Time domain (s),Current (AC) (A),Potential (AC) (V),Frequency (Hz),Column 5
0,0.316516146185836,0.0117397692298939,0.79433,0.35
0.00307354153815165,0.315377447262971,0.0117267938511074,,
0.0061470830763033,0.314421381886108,0.0117236040704891,,
0.00922062461445495,0.313215628844463,0.0116541650001065,,
0.0122941661526066,0.312067957517738,0.0116579744382372,,
0.0153677076907583,0.310762764757587,0.0116175511427881,,
0.0184412492289099,0.309542942561962,0.0115922325190536,,
0.0215147907670615,0.307999476733654,0.0115585797097149,,
0.0245883323052132,0.306681966827377,0.0115261246276481,,
0.0276618738433649,0.305039963830063,0.0114789973864924,,
0.0307354153815165,0.303422170395824,0.0114449952400322,,
0.0338089569196681,0.301651899187132,0.0114103318483068,,
0.0368824984578198,0.300045573440665,0.0113500254483774,,
0.0399560399959715,0.298285071003038,0.0112744812959247,,
0.0430295815341231,0.296281198747134,0.0112403502274314,,
0.0461031230722748,0.294352928284691,0.0111969159786995,,
0.0491766646104264,0.29230021217346,0.011132654583506,,
0.052250206148578,0.290225834874215,0.0110484809724052,,
0.0553237476867297,0.288035081780541,0.0110041442694437,,
0.0583972892248813,0.285843957048837,0.0109249320772187,,
0.061470830763033,0.283480286089079,0.0108707681883367,,
0.0645443723011846,0.281029598739234,0.0108289309093017,,
0.0676179138393363,0.278659185203795,0.0107413970077976,,
0.0706914553774879,0.276124401476953,0.0106602343499795,,
0.0737649969156396,0.273624445542605,0.010600447796957,,
0.0768385384537913,0.270940581874725,0.0104803090974772,,
0.0799120799919429,0.268106364078275,0.0104181811539874,,
0.0829856215300945,0.265410607993446,0.0103372014822805,,
0.0860591630682462,0.262690642345541,0.0102731896136019,,
0.0891327046063978,0.259706070420522,0.0101853687566051,,
0.0922062461445495,0.256853536178325,0.0100533692301066,,
0.0952797876827012,0.253696577298693,0.00999393201420506,,
0.0983533292208528,0.250776139479363,0.00986412832103989,,
0.101426870759004,0.247460331887626,0.00977433204579858,,
0.104500412297156,0.244481653079934,0.00965594003192471,,
0.107573953835308,0.241170464417995,0.00955657857360359,,
0.110647495373459,0.23771359364843,0.00948203668598691,,
0.113721036911611,0.234420668341091,0.00935170066958912,,
0.116794578449763,0.231146908937852,0.00922825158500906,,
0.119868119987914,0.22760286250476,0.0091297052466377,,
0.122941661526066,0.224163458722589,0.00901405802442978,,
0.126015203064218,0.220549862886804,0.00889802819489915,,
0.129088744602369,0.216890821029106,0.00875899202067432,,
0.132162286140521,0.213365144132908,0.00865896515831288,,
0.135235827678673,0.209625828460805,0.00852876222272325,,
0.138309369216824,0.205774809015217,0.0083942840661746,,
0.141382910754976,0.201948476953027,0.00826216809396918,,
0.144456452293128,0.198121613979366,0.00814793901412258,,
0.147529993831279,0.194164836968767,0.0080230676284061,,
0.150603535369431,0.190242091383455,0.00789879094755053,,
0.153677076907583,0.186201961271919,0.00775007314453902,,
0.156750618445734,0.182169210829829,0.00762454467233242,,
0.159824159983886,0.178009041634715,0.00748426502430721,,
0.162897701522037,0.173923146954384,0.00735404129484163,,
0.165971243060189,0.169716576096709,0.00720690798520085,,
0.169044784598341,0.165507563046268,0.00705643933780831,,
0.172118326136492,0.161255121437504,0.00689151894641515,,
0.175191867674644,0.156884658208751,0.00676206459037099,,
0.178265409212796,0.152611457961474,0.00662251272801484,,
0.181338950750947,0.148216838260793,0.00648297750075955,,
0.184412492289099,0.143752456792832,0.00628204211568395,,
0.187486033827251,0.139403230022916,0.00613533715989423,,
0.190559575365402,0.13488156320724,0.00598522616717334,,
0.193633116903554,0.130493261353064,0.00584310418171174,,
0.196706658441706,0.125926148515476,0.00571009407282697,,
0.199780199979857,0.121240111508398,0.00551725998194197,,
0.202853741518009,0.116747697914771,0.00536764388347599,,
0.205927283056161,0.111979316538551,0.00518745246935737,,
0.209000824594312,0.107390170874919,0.00504132974210325,,
0.212074366132464,0.102644990329978,0.00488555865626417,,
0.215147907670616,0.0980142212070251,0.00471393431916489,,
0.218221449208767,0.093296329511691,0.00453194631413734,,
0.221294990746919,0.0885444594822169,0.00437163384572292,,
0.22436853228507,0.083826143057706,0.00416976689499116,,
0.227442073823222,0.0789884777345286,0.00404547357903429,,
0.230515615361374,0.0741469898487603,0.00387511350961134,,
0.233589156899525,0.0693246147759458,0.00368799357592309,,
0.236662698437677,0.0644959218566271,0.00354250714128224,,
0.239736239975829,0.0596938276020024,0.00335341594812455,,
0.24280978151398,0.0548821238497537,0.00316058185723955,,
0.245883323052132,0.0500088343668764,0.00301583984336906,,
0.248956864590284,0.0450492186788247,0.0028337728216119,,
0.252030406128435,0.0402174995641217,0.00266748835193553,,
0.255103947666587,0.0352872432804128,0.00247341910480126,,
0.258177489204739,0.0302787837370349,0.00229480802527826,,
0.26125103074289,0.0254271554421717,0.00211486613767464,,
0.264324572281042,0.0205347000551936,0.00196213927532041,,
0.267398113819194,0.0155403096657955,0.00176195246978983,,
0.270471655357345,0.0105565375058161,0.00159066083471071,,
0.273545196895497,0.00565850754839311,0.00143214495720523,,
0.276618738433648,0.000694326021691343,0.00123643299384613,,
0.2796922799718,-0.00423593026201755,0.00105459470472757,,
0.282765821509952,-0.00924391198507162,0.000860512981267547,,
0.285839363048103,-0.0141652489560688,0.00069409543078347,,
0.288912904586255,-0.0191256610113269,0.000525964464895612,,
0.291986446124407,-0.024044131060381,0.000344442242696363,,
0.295059987662558,-0.0289882972246284,0.000170617913488158,,
0.29813352920071,-0.0339172793208071,-3.99783064977122E-05,,
0.301207070738862,-0.038781277852943,-0.000200870924059515,,
0.304280612277013,-0.0437565554293874,-0.000389999546194453,,
0.307354153815165,-0.0486729018325577,-0.00055247249835233,,
0.310427695353317,-0.0535164071819155,-0.00075987685833212,,
0.313501236891468,-0.0583056533789436,-0.00095231586556821,,
0.31657477842962,-0.0631920563751531,-0.00109692271924278,,
0.319648319967772,-0.068076972819244,-0.00129745678250703,,
0.322721861505923,-0.0728997726212352,-0.00147156182904418,,
0.325795403044075,-0.0777583558563676,-0.0016561303541156,,
0.328868944582227,-0.0825818989344182,-0.00182512426586801,,
0.331942486120378,-0.0873031884631663,-0.00199513291878217,,
0.33501602765853,-0.0919747846782347,-0.0021908136913269,,
0.338089569196681,-0.0967477849842521,-0.00236759490973926,,
0.341163110734833,-0.101481922570597,-0.0025376389122429,,
0.344236652272985,-0.106173905786149,-0.00272132369757339,,
0.347310193811136,-0.110761511806515,-0.00288571176573438,,
0.350383735349288,-0.115373964483722,-0.0030756492696562,,
0.35345727688744,-0.120035791927725,-0.00322230847891802,,
0.356530818425591,-0.124543867409745,-0.00341420892475863,,
0.359604359963743,-0.129151329519124,-0.00359607840469112,,
0.362677901501895,-0.133679367272451,-0.00377447530728858,,
0.365751443040046,-0.138119061357014,-0.00391457612797819,,
0.368824984578198,-0.142606325109373,-0.00407863149411902,,
0.37189852611635,-0.146956401337642,-0.00425895806843357,,
0.374972067654501,-0.151295009878139,-0.00442828468220613,,
0.378045609192653,-0.155716546790396,-0.00459004440440802,,
0.381119150730805,-0.159944619562644,-0.00475029033241814,,
0.384192692268956,-0.164245002477233,-0.00492462827036944,,
0.387266233807108,-0.168457041723058,-0.00510203954323218,,
0.39033977534526,-0.172601973758957,-0.00524676492200182,,
0.393413316883411,-0.176913399632142,-0.00540940630455689,,
0.396486858421563,-0.180842887793135,-0.00556291501665873,,
0.399560399959714,-0.18495830115125,-0.00572941574264796,,
0.402633941497866,-0.189078492712603,-0.00588362520837959,,
0.405707483036018,-0.193033570806495,-0.00604541612139586,,
0.408781024574169,-0.196852735563827,-0.00620376564789105,,
0.411854566112321,-0.200787851386412,-0.00636179910746693,,
0.414928107650473,-0.204573037809604,-0.00651006776275143,,
0.418001649188624,-0.208474069115754,-0.00667114544581171,,
0.421075190726776,-0.21220128000632,-0.00680875100134992,,
0.424148732264928,-0.215919253037291,-0.00696625421708141,,
0.427222273803079,-0.219572348686514,-0.0070858273231269,,
0.430295815341231,-0.223150267271453,-0.00726348812250466,,
0.433369356879383,-0.226546401768742,-0.00739789765926169,,
0.436442898417534,-0.230058062602108,-0.00750488007323202,,
0.439516439955686,-0.23357014816465,-0.00765335042911586,,
0.442589981493838,-0.236835890804677,-0.00778479891789363,,
0.445663523031989,-0.240210788843129,-0.00793351464151737,,
0.448737064570141,-0.243387763085216,-0.00804460592543643,,
0.451810606108293,-0.246686209871853,-0.00818485646203504,,
0.454884147646444,-0.249742985756919,-0.00833841507943989,,
0.457957689184596,-0.252945868478788,-0.00845120106427411,,
0.461031230722747,-0.25591175232003,-0.00856864695677828,,
0.464104772260899,-0.258877636161272,-0.00868931590010247,,
0.467178313799051,-0.261741054088624,-0.00880359904402761,,
0.470251855337202,-0.264706300836101,-0.008931290079365,,
0.473325396875354,-0.267376997899502,-0.00903386211218038,,
0.476398938413506,-0.270111722886298,-0.00915596375357897,,
0.479472479951657,-0.272776898470402,-0.00927442230785713,,
0.482546021489809,-0.275400450595184,-0.0093868755906712,,
0.485619563027961,-0.27787322386222,-0.0094960517585867,,
0.488693104566112,-0.280404609755647,-0.00960356441640142,,
0.491766646104264,-0.282803904875105,-0.00969522590234284,,
0.494840187642416,-0.285009417307671,-0.00980044083683085,,
0.497913729180567,-0.287259738668385,-0.00986934342520618,,
0.500987270718719,-0.289492964679734,-0.0100215545994291,,
0.504060812256871,-0.291737658378855,-0.0101014197193687,,
0.507134353795022,-0.293615386069265,-0.0101890700665797,,
0.510207895333174,-0.295635398033886,-0.0102726780842461,,
0.513281436871326,-0.29756749105892,-0.0103619420362548,,
0.516354978409477,-0.299470277770758,-0.0104363674781647,,
0.519428519947629,-0.301338236690103,-0.0105349470867382,,
0.52250206148578,-0.303022287875915,-0.010590674675115,,
0.525575603023932,-0.30448378097311,-0.0106991355336872,,
0.528649144562084,-0.306064198239795,-0.0107771707925157,,
0.531722686100235,-0.307648862798247,-0.0108113559250871,,
0.534796227638387,-0.309086571061545,-0.0109025682633015,,
0.537869769176539,-0.310444005510436,-0.0109799194036011,,
0.54094331071469,-0.311796767938384,-0.0110516000538445,,
0.544016852252842,-0.312841070801717,-0.0110988437407076,,
0.547090393790994,-0.313851182966321,-0.0111515104704987,,
0.550163935329145,-0.315005596868727,-0.0111927821560998,,
0.553237476867297,-0.316013054475977,-0.0112772385639173,,
0.556311018405449,-0.316826729396335,-0.0113028420637562,,
0.5593845599436,-0.31779426246097,-0.0113525123959786,,
0.562458101481752,-0.318614414501273,-0.0114078740121331,,
0.565531643019904,-0.319254056641458,-0.0114806380233294,,
0.568605184558055,-0.319851650593145,-0.0115094832884775,,
0.571678726096207,-0.320414947663809,-0.0115500708555496,,
0.574752267634358,-0.32085974529416,-0.0115856699717067,,
0.57782580917251,-0.321136243988224,-0.0115994438353413,,
0.580899350710662,-0.321432598771301,-0.011638170350488,,
0.583972892248813,-0.32187176874006,-0.0116447557710995,,
0.587046433786965,-0.321748703461097,-0.0117020990436614,,
0.590119975325117,-0.321929956637275,-0.0117294970550219,,
0.593193516863268,-0.321899482318843,-0.011726966440281,,
0.59626705840142,-0.321774081029408,-0.0117415408681514,,
0.599340599939572,-0.321784805441121,-0.0117363985425523,,
0.602414141477723,-0.321672995485341,-0.0117584754009776,,
0.605487683015875,-0.32122490620387,-0.0117827460133482,,
0.608561224554027,-0.320829908069493,-0.0117766076610764,,
0.611634766092178,-0.320328409094046,-0.0118027060551702,,
0.61470830763033,-0.319817672259005,-0.0117912798201654,,
0.617781849168482,-0.319343780680047,-0.0117812301397691,,
0.620855390706633,-0.318686724643615,-0.0117618356913813,,
0.623928932244785,-0.317866572603312,-0.0117675228165384,,
0.627002473782937,-0.316979207170788,-0.0117399438984549,,
0.630076015321088,-0.316216818298522,-0.0117466312090602,,
0.63314955685924,-0.314964716685465,-0.0117175863227001,,
0.636223098397392,-0.314201478354846,-0.0116882253694208,,
0.639296639935543,-0.312889171380984,-0.0116511290941732,,
0.642370181473695,-0.311683365248192,-0.0116685793151303,,
0.645443723011846,-0.310483505323874,-0.011617426379531,,
0.648517264549998,-0.30904282395634,-0.0115997099969571,,
0.65159080608815,-0.307717668924881,-0.0115897123012516,,
0.654664347626301,-0.306204358868122,-0.0115063870803023,,
0.657737889164453,-0.304789267433487,-0.0114928461080819,,
0.660811430702605,-0.303192604275791,-0.0114526889742486,,
0.663884972240756,-0.301404494441675,-0.0113907398580948,,
0.666958513778908,-0.299565948017821,-0.0113314544374901,,
0.67003205531706,-0.2977158277239,-0.0112681204491771,,
0.673105596855211,-0.29592432005637,-0.0112214278000353,,
0.676179138393363,-0.293902609175042,-0.0112028463922096,,
0.679252679931515,-0.291843415943866,-0.0111413942496981,,
0.682326221469666,-0.289726990456123,-0.0110818260323762,,
0.685399763007818,-0.287548554508575,-0.0110003805778409,,
0.68847330454597,-0.285357376685724,-0.0109475974023425,,
0.691546846084121,-0.28291560864859,-0.0108814229705327,,
0.694620387622273,-0.280590216405886,-0.0108332830676035,,
0.697693929160425,-0.278054583220692,-0.0107672084463997,,
0.700767470698576,-0.275644245142638,-0.0106676931133944,,
0.703841012236728,-0.272963354578995,-0.0105617129642601,,
0.706914553774879,-0.27034277555845,-0.0104802176044219,,
0.709988095313031,-0.267692040766356,-0.0104150433580603,,
0.713061636851183,-0.264942025529197,-0.0103484842395396,,
0.716135178389334,-0.261949277567525,-0.0102538637850058,,
0.719208719927486,-0.259140437339386,-0.0101454029264341,,
0.722282261465638,-0.2561168965124,-0.0100717260640693,,
0.725355803003789,-0.253213023130963,-0.00997392830524335,,
0.728429344541941,-0.249984231929313,-0.00985335709313739,,
0.731502886080093,-0.247032364150904,-0.00976941637345119,,
0.734576427618244,-0.243790512527069,-0.00966007593391316,,
0.737649969156396,-0.240500878870849,-0.0095632409315578,,
0.740723510694548,-0.237131502311695,-0.00944697821061302,,
0.743797052232699,-0.233750976611651,-0.00936263824850236,,
0.746870593770851,-0.230261826424653,-0.00921656542655125,,
0.749944135309003,-0.22687726579743,-0.00913059522454196,,
0.753017676847154,-0.223503217217332,-0.00899280460350482,,
0.756091218385306,-0.219847997922225,-0.00891896346951793,,
0.759164759923458,-0.21620297212736,-0.00877656908427715,,
0.762238301461609,-0.212527472014064,-0.00864900905036015,,
0.765311842999761,-0.208782103951192,-0.00852712366527442,,
0.768385384537913,-0.204979822178636,-0.0083812670996366,,
0.771458926076064,-0.201126679087164,-0.00826142783197481,,
0.774532467614216,-0.197273217448809,-0.00809239857063249,,
0.777606009152367,-0.193301150187847,-0.00798363620085452,,
0.780679550690519,-0.189416152408119,-0.00786807423353952,,
0.783753092228671,-0.185266548351276,-0.00774277865274708,,
0.786826633766822,-0.181299153111258,-0.00759670791018374,,
0.789900175304974,-0.177158362184832,-0.00741483427147571,,
0.792973716843126,-0.172973187059436,-0.00729827211871248,,
0.796047258381277,-0.168908528837943,-0.00716732060357739,,
0.799120799919429,-0.164739811968146,-0.00701334818803501,,
0.802194341457581,-0.160368074551863,-0.00686572414291486,,
0.805267882995732,-0.156041464610609,-0.00671985302156353,,
0.808341424533884,-0.151682362887334,-0.00656025586249243,,
0.811414966072036,-0.147328464096475,-0.00642057091932857,,
0.814488507610187,-0.142979237326559,-0.00625794617187436,,
0.817562049148339,-0.13847625859466,-0.00609938038906588,,
0.820635590686491,-0.133966590378228,-0.00595359036383192,,
0.823709132224642,-0.129528913757254,-0.00582516738404992,,
0.826782673762794,-0.124966791487493,-0.00564081719467957,,
0.829856215300945,-0.120459671646121,-0.00550414320479753,,
0.832929756839097,-0.11580803770236,-0.00531385428436693,,
0.836003298377249,-0.111250693635837,-0.00519151975155419,,
0.8390768399154,-0.106573682123765,-0.00498690800915602,,
0.842150381453552,-0.101826802662118,-0.00483122009882209,,
0.845223922991704,-0.0972104212400266,-0.0046543203553151,,
0.848297464529855,-0.0924296696265335,-0.00450101334381303,,
0.851371006068007,-0.0876828963471804,-0.00434121864291814,,
0.854444547606159,-0.0829102145880456,-0.00417421470512336,,
0.85751808914431,-0.0781460274124458,-0.00399667035145246,,
0.860591630682462,-0.0732684375466539,-0.00384480851435054,,
0.863665172220614,-0.0684871550216899,-0.00366631388053484,,
0.866738713758765,-0.0636755043605883,-0.0034540832618748,,
0.869812255296917,-0.0588068338075081,-0.00333204816088006,,
0.872885796835069,-0.0539751146928051,-0.00313790197640307,,
0.87595933837322,-0.0490214983043749,-0.00296466195511824,,
0.879032879911372,-0.0441328654799875,-0.00276542335034558,,
0.882106421449524,-0.0392356318897709,-0.00256929758884894,,
0.885179962987675,-0.0342760692928663,-0.00245672578093981,,
0.888253504525827,-0.0293420966288608,-0.00225088304106702,,
0.891327046063979,-0.0244377488249336,-0.00208226965725,,
0.89440058760213,-0.0195015463327503,-0.00188565939843643,,
0.897474129140282,-0.0146141876958931,-0.00171177268759992,,
0.900547670678433,-0.00964390068727552,-0.00152436163964342,,
0.903621212216585,-0.00466618091806486,-0.00135558190481655,,
0.906694753754737,0.000290408574602512,-0.0011931734136752,,
0.909768295292888,0.00526441196351661,-0.00100233761429891,,
0.91284183683104,0.0102112857762658,-0.000817203495793617,,
0.915915378369192,0.0150909461967944,-0.000657591781009437,,
0.918988919907343,0.020069196877476,-0.000441932252154054,,
0.922062461445495,0.0250300336619109,-0.00026560018146915,,
0.925136002983647,0.0299127202778238,-9.78684580053013E-05,,
0.928209544521798,0.0348591693613963,6.61661142591363E-05,,
0.93128308605995,0.0398199530546841,0.000255656549841277,,
0.934356627598102,0.0447306717962625,0.000439898611055423,,
0.937430169136253,0.0496031649119335,0.000633847253707742,,
0.940503710674405,0.0544637656106554,0.000823899123948646,,
0.943577252212557,0.0592767966415814,0.000983575299749351,,
0.946650793750708,0.0641301769442987,0.00115563630825033,,
0.94972433528886,0.0689453316211084,0.00136166203423427,,
0.952797876827011,0.0737927657153512,0.00154759671697624,,
0.955871418365163,0.0786062214754539,0.001726869041764,,
0.958944959903315,0.0833398281503278,0.00190365026017592,,
0.962018501441466,0.0881384183892443,0.00206993472985229,,
0.965092042979618,0.0928682025015274,0.00224591746341574,,
0.96816558451777,0.0976795346157465,0.00243600260385879,,
0.971239126055921,0.102340459510249,0.0026129709671574,,
0.974312667594073,0.107022302316707,0.00277288419314736,,
0.977386209132225,0.111663318031049,0.0029647368130723,,
0.980459750670376,0.116287291487174,0.00310285805674182,,
0.983533292208528,0.120921139896659,0.00330578965393835,,
0.98660683374668,0.125466591546233,0.00348258750745156,,
0.989680375284831,0.129992505653676,0.00364520809613067,,
0.992753916822983,0.134590623721167,0.00378525069396618,,
0.995827458361135,0.139046882243623,0.00400619394677948,,
0.998900999899286,0.143512060078792,0.00418340767781755,,
1.00197454143744,0.147924996225219,0.00432046427502231,,
1.00504808297559,0.152243270856379,0.00448601680025407,,
1.00812162451374,0.156575455368078,0.00464476556917326,,
1.01119516605189,0.160935778187736,0.00482281105526194,,
1.01426870759004,0.165187688885029,0.00498810157765295,,
1.0173422491282,0.169410771089449,0.00516756104732696,,
1.02041579066635,0.173617660494007,0.00531085164863487,,
1.0234893322045,0.177684123814501,0.00548101209684582,,
1.02656287374265,0.181816260883951,0.00565281942005624,,
1.0296364152808,0.185806591499513,0.00580371642129984,,
1.03270995681895,0.189917173563242,0.00593791593990645,,
