Time domain (s),Current (AC) (A),Potential (AC) (V),Frequency (Hz),Column 5
0,0.176927484823807,0.00690770402199492,0.50119,0.225
0.0048712189987829,0.175094896463008,0.00684024282077988,,
0.00974243799756579,0.173340346403309,0.00676198558053587,,
0.0146136569963487,0.171383197580736,0.00670520807663211,,
0.0194848759951316,0.169487087232129,0.00666986537238223,,
0.0243560949939145,0.167548372378485,0.00660558344176554,,
0.0292273139926974,0.165312790173232,0.00653352746431413,,
0.0340985329914803,0.163476284156798,0.00644184538885773,,
0.0389697519902632,0.161275646040653,0.00642915358335028,,
0.0438409709890461,0.159224193650278,0.00633533420672272,,
0.048712189987829,0.157183654729174,0.00624592143395475,,
0.0535834089866119,0.154893785010112,0.0061862455137458,,
0.0584546279853947,0.152723403787939,0.00611412213126439,,
0.0633258469841776,0.150407474663087,0.00603661758052576,,
0.0681970659829605,0.148154857651633,0.00595074357185155,,
0.0730682849817434,0.1459089216422,0.005869284592666,,
0.0779395039805263,0.143560042235126,0.0057955771919711,,
0.0828107229793092,0.140998420135407,0.00571716267332301,,
0.0876819419780921,0.138535613903284,0.00565240890749363,,
0.092553160976875,0.136112823725155,0.00557838694999058,,
0.0974243799756579,0.133603320437017,0.00545195477284199,,
0.102295598974441,0.130997204962578,0.00537869673901614,,
0.107166817973224,0.128568818133541,0.00529961097860765,,
0.112038036972007,0.126030177281613,0.00521081608528462,,
0.116909255970789,0.123354418482436,0.00511944856663638,,
0.121780474969572,0.120612339369998,0.00500972441138758,,
0.126651693968355,0.117958127676817,0.0049337280482038,,
0.131522912967138,0.115204890241631,0.00483096627088209,,
0.136394131965921,0.112452702178489,0.0047345630347575,,
0.141265350964704,0.109794852662218,0.00462299928388887,,
0.146136569963487,0.107011638165605,0.00454436850743489,,
0.15100778896227,0.104147796916847,0.00445762104190894,,
0.155879007961053,0.101219384308236,0.00437473532291399,,
0.160750226959836,0.098393390411244,0.00427278521449992,,
0.165621445958618,0.0955331520065078,0.00414994235521782,,
0.170492664957401,0.0926489529400711,0.00406382119476545,,
0.175363883956184,0.0896656581734924,0.00395795597750492,,
0.180235102954967,0.0867696711610805,0.00386043494129362,,
0.18510632195375,0.0837471648590767,0.00374834037581051,,
0.189977540952533,0.0807891249797209,0.00365627633851551,,
0.194848759951316,0.0777968755716891,0.00353829506704795,,
0.199719978950099,0.0747139254398775,0.00342459401500816,,
0.204591197948882,0.0716763431594899,0.00331297409328091,,
0.209462416947665,0.0685612122849566,0.00320168557961908,,
0.214333635946447,0.0654385958898336,0.00307976111387598,,
0.21920485494523,0.0623761085129048,0.0029988638432763,,
0.224076073944013,0.0592648952940071,0.0028662781485651,,
0.228947292942796,0.056164945335062,0.00275686855012491,,
0.233818511941579,0.0530008787441507,0.0026568956559343,,
0.238689730940362,0.0498975008365244,0.00253868689248948,,
0.243560949939145,0.0467038069748682,0.0024086204607876,,
0.248432168937928,0.0435106377992346,0.00231845218997107,,
0.253303387936711,0.0403071148194209,0.00220225996035106,,
0.258174606935493,0.0371673936599599,0.00207387584586538,,
0.263045825934276,0.0339893704208465,0.00196945421967154,,
0.267917044933059,0.0307785368157841,0.00186060913836039,,
0.272788263931842,0.0275954416117851,0.00174325136342368,,
0.277659482930625,0.0243269974814371,0.00161203904620599,,
0.282530701929408,0.0210828638034714,0.00149163119364593,,
0.287401920928191,0.0178116563267375,0.00136370768020067,,
0.292273139926974,0.0146512625379846,0.00126405215136183,,
0.297144358925757,0.011354240508937,0.00115001407417026,,
0.30201557792454,0.00813896456221632,0.00102430930964115,,
0.306886796923322,0.00490133699093126,0.000911161540559036,,
0.311758015922105,0.00159088299970415,0.000766364301181266,,
0.316629234920888,-0.00159361136702186,0.000655890264969816,,
0.321500453919671,-0.00490452008613526,0.000546253174551925,,
0.326371672918454,-0.00815456522662274,0.000410780297707358,,
0.331242891917237,-0.0113746682847517,0.000306558078061236,,
0.33611411091602,-0.0147004081287717,0.000176941013228848,,
0.340985329914803,-0.017909247926948,4.83771519954601E-05,,
0.345856548913586,-0.0210850674847664,-6.62451021260502E-05,,
0.350727767912368,-0.0243232897002105,-0.000189944567002165,,
0.355598986911151,-0.0275903346678314,-0.000301780746535307,,
0.360470205909934,-0.0307734298718304,-0.000425188122946452,,
0.365341424908717,-0.0339801009677799,-0.000496355196559328,,
0.3702126439075,-0.0372098582487254,-0.000663679758790892,,
0.375083862906283,-0.0403884761319979,-0.000757921821129326,,
0.379955081905066,-0.0435726906661785,-0.000867352483641781,,
0.384826300903849,-0.0467697774974478,-0.00100016567033068,,
0.389697519902632,-0.0499072599965455,-0.00115010675608707,,
0.394568738901415,-0.0531021081674515,-0.00126324609954054,,
0.399439957900197,-0.0562121670770994,-0.00136825330693613,,
0.40431117689898,-0.059354406729469,-0.00147839312653852,,
0.409182395897763,-0.0624652351786168,-0.00159478897552123,,
0.414053614896546,-0.0655792817020367,-0.00172037578124717,,
0.418924833895329,-0.0686527525063727,-0.00184645689052898,,
0.423796052894112,-0.07172888171989,-0.00193443168931573,,
0.428667271892895,-0.0747723404837311,-0.00207234238142551,,
0.433538490891678,-0.0777841781699413,-0.0021967495991202,,
0.438409709890461,-0.0808090980276493,-0.00230391095894378,,
0.443280928889244,-0.0838109317003612,-0.00242882652290888,,
0.448152147888026,-0.0867369307532679,-0.00253184247336558,,
0.453023366886809,-0.0897579329553402,-0.00265122801629891,,
0.457894585885592,-0.0926094265930325,-0.00276703968835168,,
0.462765804884375,-0.0955240924278502,-0.0028772258489127,,
0.467637023883158,-0.0984358200209413,-0.00297327801717051,,
0.472508242881941,-0.101256532078639,-0.00308593429123993,,
0.477379461880724,-0.104167630048503,-0.00321999166244735,,
0.482250680879507,-0.106872001725447,-0.00330468608309031,,
0.48712189987829,-0.10964871011538,-0.00342665548552024,,
0.491993118877072,-0.112431644779448,-0.00354185208667124,,
0.496864337875855,-0.115189604388838,-0.00366992024007695,,
0.501735556874638,-0.118029694850305,-0.00375432257225539,,
0.506606775873421,-0.120559660893325,-0.00385066682897817,,
0.511477994872204,-0.123226744883594,-0.00393232802325505,,
0.516349213870987,-0.125924120746904,-0.00403685075699478,,
0.52122043286977,-0.128413441112704,-0.00417448059481096,,
0.526091651868553,-0.131069051968611,-0.00424402011779534,,
0.530962870867336,-0.133585586049452,-0.00434991482475677,,
0.535834089866119,-0.136046433453757,-0.00447072570322771,,
0.540705308864901,-0.138513437174061,-0.00455043215162432,,
0.545576527863684,-0.140946021491279,-0.00463480078128731,,
0.550447746862467,-0.143374967985408,-0.00473045975353514,,
0.55531896586125,-0.14579635900081,-0.00483720685327649,,
0.560190184860033,-0.148089306877871,-0.00493137168068447,,
0.565061403858816,-0.150460328035101,-0.00502513348218159,,
0.569932622857599,-0.152646100047271,-0.00510473741876138,,
0.574803841856382,-0.154912114041836,-0.00519211680644682,,
0.579675060855165,-0.157123490731911,-0.00526497041009044,,
0.584546279853947,-0.159355644988482,-0.00537725736076444,,
0.58941749885273,-0.16142948398249,-0.00547489214296437,,
0.594288717851513,-0.163533614849538,-0.00556196820801302,,
0.599159936850296,-0.165505245006336,-0.00562016121755438,,
0.604031155849079,-0.167535709955805,-0.00571769489220886,,
0.608902374847862,-0.169612067442722,-0.00581932061391433,,
0.613773593846645,-0.171332477931881,-0.00588941061131365,,
0.618644812845428,-0.173348391588989,-0.00597698097991817,,
0.623516031844211,-0.175181014928856,-0.00601193048815807,,
0.628387250842994,-0.176873442163475,-0.00609528663809433,,
0.633258469841776,-0.178777982467512,-0.00618111851862446,,
0.638129688840559,-0.180400171733233,-0.00625748841801865,,
0.643000907839342,-0.182051743416222,-0.00630775993222121,,
0.647872126838125,-0.183622163661044,-0.00639180277090423,,
0.652743345836908,-0.185245682131356,-0.0064897647483555,,
0.657614564835691,-0.186709276301968,-0.0065368022253729,,
0.662485783834474,-0.188367773840456,-0.00660120773187822,,
0.667357002833257,-0.189834656043477,-0.00664602084289401,,
0.67222822183204,-0.191152737290478,-0.00671622318201015,,
0.677099440830823,-0.192608706024228,-0.00677832568331205,,
0.681970659829605,-0.19383472236379,-0.00684653957403292,,
0.686841878828388,-0.195157210973381,-0.00693246975356576,,
0.691713097827171,-0.196355943639767,-0.00694572607620225,,
0.696584316825954,-0.197690185216265,-0.00699062906059167,,
0.701455535824737,-0.198810634728072,-0.00706674057403589,,
0.70632675482352,-0.199753110741001,-0.00709304959994705,,
0.711197973822303,-0.200871321592446,-0.00715585002416708,,
0.716069192821086,-0.201797847150287,-0.00719665113160461,,
0.720940411819869,-0.202730529024127,-0.00726111561751219,,
0.725811630818652,-0.203809003654123,-0.00729889473275547,,
0.730682849817434,-0.204721537584694,-0.00736436748557523,,
0.735554068816217,-0.205402650000213,-0.00738156700248771,,
0.740425287815,-0.206198983466304,-0.00742103264776128,,
0.745296506813783,-0.206815524521971,-0.00744106177167758,,
0.750167725812566,-0.207477888156948,-0.00750224307089775,,
0.755038944811349,-0.20830199500317,-0.00753194762521314,,
0.759910163810132,-0.208730698462733,-0.00754230553154445,,
0.764781382808915,-0.209153245606297,-0.00760028649609445,,
0.769652601807698,-0.209819736771319,-0.00760746372755605,,
0.77452382080648,-0.210087326642864,-0.00765768047517135,,
0.779395039805263,-0.2105092441632,-0.00764807525834588,,
0.784266258804046,-0.210774595374382,-0.00767710435808588,,
0.789137477802829,-0.210971527528212,-0.0077162217440363,,
0.794008696801612,-0.211321388168106,-0.00772527648644727,,
0.798879915800395,-0.211496073634576,-0.00776940431298723,,
0.803751134799178,-0.211538818055887,-0.00777576285418435,,
0.808622353797961,-0.211651310739141,-0.00776743833293558,,
0.813493572796744,-0.211604648662194,-0.00778231237630056,,
0.818364791795526,-0.211698952229996,-0.00781350826691263,,
0.823236010794309,-0.211510275136256,-0.00782296884377764,,
0.828107229793092,-0.211520139233481,-0.00781380175964896,,
0.832978448791875,-0.211208125945353,-0.00781940761134026,,
0.837849667790658,-0.210867709653866,-0.0078170582651782,,
0.842720886789441,-0.210750739649886,-0.00780415020186487,,
0.847592105788224,-0.210473705429934,-0.00780871267985717,,
0.852463324787007,-0.209980430610518,-0.00781559782285379,,
0.85733454378579,-0.209499328506828,-0.00776621380821707,,
0.862205762784573,-0.208956733201285,-0.00779063689754977,,
0.867076981783355,-0.208443030606055,-0.00779317582035999,,
0.871948200782138,-0.208020763295037,-0.00780807233206859,,
0.876819419780921,-0.207388831449372,-0.00777226902677741,,
0.881690638779704,-0.206798454736701,-0.00775055337283126,,
0.886561857778487,-0.205908867074854,-0.00773439863388914,,
0.89143307677727,-0.205279523680235,-0.00770191081352856,,
0.896304295776053,-0.204277163502588,-0.0076917649521886,,
0.901175514774836,-0.203603046900704,-0.00768136210917003,,
0.906046733773619,-0.202562069831792,-0.00767288030951674,,
0.910917952772402,-0.20168311580667,-0.00761101372582118,,
0.915789171771184,-0.20063290426376,-0.00760744125921242,,
0.920660390769967,-0.19955275063849,-0.00756798684811022,,
0.92553160976875,-0.198459235009178,-0.00757241451604207,,
0.930402828767533,-0.197487936244072,-0.0075184441507985,,
0.935274047766316,-0.196166287132117,-0.00747561808390707,,
0.940145266765099,-0.194994558306364,-0.00745657756710294,,
0.945016485763882,-0.193715443741311,-0.00739425038236652,,
0.949887704762665,-0.192280112657784,-0.00736849042659848,,
0.954758923761448,-0.191012471227093,-0.00732701386458601,,
0.959630142760231,-0.18945723189786,-0.0073035470841214,,
0.964501361759013,-0.18794277816212,-0.00724446657501376,,
0.969372580757796,-0.186510875027275,-0.00719853987672625,,
0.974243799756579,-0.184906035379369,-0.00715508610048987,,
0.979115018755362,-0.183444749827256,-0.00711536066499496,,
0.983986237754145,-0.181761836899181,-0.00706337032251803,,
0.988857456752928,-0.179974056724715,-0.00697363175877008,,
0.993728675751711,-0.178207683739973,-0.00693395406850472,,
0.998599894750494,-0.176557791052256,-0.00687034478392023,,
1.00347111374928,-0.174699493076348,-0.00683448530777087,,
1.00834233274806,-0.172984889112506,-0.00676058692615644,,
1.01321355174684,-0.171013188997572,-0.00671470656882711,,
1.01808477074563,-0.169092348447765,-0.00664835755061288,,
1.02295598974441,-0.167183400781139,-0.00658071660265014,,
1.02782720874319,-0.165016097716965,-0.00653352325150003,,
1.03269842774197,-0.163022570663489,-0.00643768312823356,,
1.03756964674076,-0.160921098205623,-0.00636841322537052,,
1.04244086573954,-0.158738894058407,-0.0063326885592816,,
1.04731208473832,-0.156810288155465,-0.0062356365497398,,
1.05218330373711,-0.154393094628244,-0.00616627677350312,,
1.05705452273589,-0.15219242153303,-0.00611468945693661,,
1.06192574173467,-0.149875757847746,-0.00602975771441594,,
1.06679696073345,-0.147662842078672,-0.00594513210307479,,
1.07166817973224,-0.14526866477831,-0.00586721188798256,,
1.07653939873102,-0.142862664552905,-0.00578355241540995,,
1.0814106177298,-0.140529980454396,-0.00568145485849181,,
1.08628183672859,-0.137980985798288,-0.00559297452197738,,
1.09115305572737,-0.1355838702562,-0.0055211207596173,,
1.09602427472615,-0.132997098206462,-0.00542862982379644,,
1.10089549372493,-0.130616842575235,-0.00533704885588504,,
1.10576671272372,-0.127950038417511,-0.00527076724270126,,
1.1106379317225,-0.125341439429231,-0.00515530242570073,,
1.11550915072128,-0.122744593407859,-0.0050793931273474,,
1.12038036972007,-0.119973201836289,-0.00499386737799679,,
1.12525158871885,-0.117379573889189,-0.00488734496168997,,
1.13012280771763,-0.114619935284526,-0.0047878214343684,,
1.13499402671641,-0.111900522608266,-0.00471001356099343,,
1.1398652457152,-0.109154525840192,-0.00461419590607015,,
1.14473646471398,-0.106362916367217,-0.00452588548640298,,
1.14960768371276,-0.103564940703833,-0.00442600246558644,,
1.15447890271155,-0.100640550688063,-0.00431845773965245,,
1.15935012171033,-0.0977989211475961,-0.00421404734763042,,
1.16422134070911,-0.0949236417435442,-0.0041296899521388,,
1.16909255970789,-0.0921186003083895,-0.00403041357659539,,
1.17396377870668,-0.0891193550867226,-0.00391703971980739,,
1.17883499770546,-0.0861542494355952,-0.00381277396774626,,
1.18370621670424,-0.0831847364218778,-0.0037018589902944,,
1.18857743570303,-0.0801542898713981,-0.00359460635282538,,
1.19344865470181,-0.0771094319448299,-0.00350524834664467,,
1.19831987370059,-0.0741928072821943,-0.00340073825134812,,
1.20319109269938,-0.0711115711247233,-0.00327599400850165,,
1.20806231169816,-0.0680868611414244,-0.00316029327389478,,
1.21293353069694,-0.0649547654188257,-0.00304331184371121,,
1.21780474969572,-0.0618625458339475,-0.00295156236322436,,
1.22267596869451,-0.0587578037426624,-0.00282555006324392,,
1.22754718769329,-0.0556303952151993,-0.00273187813512044,,
1.23241840669207,-0.0525108219990076,-0.00259315858264664,,
1.23728962569086,-0.0493759279509549,-0.00249406195385093,,
1.24216084468964,-0.0461119611413334,-0.0023874370257273,,
1.24703206368842,-0.0429481044248311,-0.00227733231291127,,
1.2519032826872,-0.0397636100581051,-0.00214826291395021,,
1.25677450168599,-0.0365592475806553,-0.00204457010464676,,
1.26164572068477,-0.033397979315198,-0.00194184624265503,,
1.26651693968355,-0.0301824934940682,-0.0018006776407451,,
1.27138815868234,-0.026934896888353,-0.00167284259640255,,
1.27625937768112,-0.0236919874777734,-0.00157216335366472,,
1.2811305966799,-0.0204671972245089,-0.00144325123310773,,
1.28600181567868,-0.01724632462688,-0.00131767566155361,,
1.29087303467747,-0.0139877445937577,-0.00119075198939234,,
1.29574425367625,-0.0107313332628622,-0.00108891422269508,,
1.30061547267503,-0.00746253934183245,-0.00095629622974025,,
1.30548669167382,-0.00432694571241623,-0.000846806587826432,,
1.3103579106726,-0.00093824354567983,-0.000752394608640294,,
1.31522912967138,0.0022817895543128,-0.00060086810039861,,
1.32010034867016,0.00556761828154414,-0.000499861662409451,,
1.32497156766895,0.00881476015937303,-0.000368904922598556,,
1.32984278666773,0.0120722908204501,-0.000234690272987059,,
1.33471400566651,0.0152562605011535,-0.000118123102885725,,
1.3395852246653,0.0184997645558921,-2.72063553778956E-05,,
1.34445644366408,0.0217556162216968,0.000102638201432192,,
1.34932766266286,0.0249854434607786,0.000223046053992704,,
1.35419888166165,0.028208799572248,0.000333890817870941,,
1.35907010066043,0.0314120776985844,0.000486375039252085,,
1.36394131965921,0.034681641159114,0.000585384603216887,,
1.36881253865799,0.0378037328682143,0.000694252152871666,,
1.37368375765678,0.0409859535955089,0.00084365540265674,,
1.37855497665556,0.0442575108629245,0.000942527348017919,,
1.38342619565434,0.0473535781453021,0.00105903413444652,,
1.38829741465313,0.0505109287551236,0.00115538119971248,,
1.39316863365191,0.0537611837700202,0.00128500107308804,,
1.39803985265069,0.0567912105716818,0.00142343977126869,,
1.40291107164947,0.0599272939080525,0.00151491963163419,,
1.40778229064826,0.0630244805206117,0.00166887272096838,,
1.41265350964704,0.0660886119137447,0.00175931622899217,,
1.41752472864582,0.069244318507362,0.00190429602366038,,
1.42239594764461,0.0722441233941197,0.00198842873571703,,
1.42726716664339,0.0753650607939703,0.00211399588164252,,
1.43213838564217,0.0784107931972428,0.00221935836971854,,
1.43700960464095,0.0814234703810893,0.00235732242414333,,
1.44188082363974,0.0843986500038512,0.00246921477453554,,
1.44675204263852,0.0873475253673449,0.00257532714357422,,
1.4516232616373,0.0902910839124759,0.0027192930542439,,
1.45649448063609,0.093270461023419,0.00279398906205053,,
1.46136569963487,0.0961871906232591,0.00295006260129815,,
1.46623691863365,0.0990064685391615,0.00303537490138606,,
1.47110813763243,0.101819065453042,0.00311947110238497,,
1.47597935663122,0.10471589196309,0.00324652115897806,,
1.48085057563,0.107536883853333,0.00335651493434819,,
1.48572179462878,0.110368509380302,0.00344930919280584,,
1.49059301362757,0.113121746815488,0.00355379822403012,,
1.49546423262635,0.115745806551901,0.00366023076696287,,
1.50033545162513,0.118480015374,0.0037653039751171,,
1.50520667062391,0.121222654151529,0.00387321942871788,,
1.5100778896227,0.123838004099967,0.00398827700699345,,
1.51494910862148,0.126420858494069,0.00408053483375115,,
1.51982032762026,0.129004237574193,0.00419532560044811,,
1.52469154661905,0.131644457640104,0.00429531253735327,,
1.52956276561783,0.134145600930947,0.00438110509828249,,
1.53443398461661,0.136598333191435,0.00448689729342711,,
1.5393052036154,0.139045468801015,0.0045808936082592,,
1.54417642261418,0.141627203864935,0.00467075293935348,,
1.54904764161296,0.143884088322707,0.00478144885045628,,
1.55391886061174,0.146299567875588,0.00487803745041449,,
1.55879007961053,0.148665831879545,0.00498003249551537,,
1.56366129860931,0.150874795013916,0.00506101963948913,,
1.56853251760809,0.153241373829487,0.00514397276351453,,
1.57340373660688,0.155368940672212,0.00522255579473851,,
1.57827495560566,0.157579058115833,0.00532440479560714,,
1.58314617460444,0.159719742109124,0.00540357200376063,,
1.58801739360322,0.161775461945817,0.00548960048229619,,
1.59288861260201,0.163915866106563,0.00557308442093563,,
1.59775983160079,0.165980470626572,0.00568129477154455,,
1.60263105059957,0.167925306817148,0.00573141883724348,,
1.60750226959836,0.169836283269729,0.00583171752241363,,
1.61237348859714,0.17170640417068,0.00589410087800868,,
1.61724470759592,0.173583520885267,0.00599321997514801,,
1.6221159265947,0.175474629227124,0.00607868674509726,,
1.62698714559349,0.177235300623754,0.0061400393654365,,
1.63185836459227,0.178970857049433,0.00621260930624379,,
1.63672958359105,0.180704454647295,0.00630252199965353,,
