Time domain (s),Current (AC) (A),Potential (AC) (V),Frequency (Hz),Column 5
0,-0.185412108898163,-0.00592642699797041,0.50119,0.375
0.0048712189987829,-0.189717471599579,-0.00613881834641816,,
0.00974243799756579,-0.19414097070694,-0.00630502633944419,,
0.0146136569963487,-0.198388755321503,-0.00646819378355401,,
0.0194848759951316,-0.202698290348053,-0.00663780910120471,,
0.0243560949939145,-0.206941902637482,-0.00680906731359476,,
0.0292273139926974,-0.211122691631317,-0.00694858966102618,,
0.0340985329914803,-0.215263545513153,-0.00711031821581987,,
0.0389697519902632,-0.219246089458466,-0.0073056251951944,,
0.0438409709890461,-0.223353087902069,-0.00744981796465849,,
0.048712189987829,-0.227302253246307,-0.00763199914828183,,
0.0535834089866119,-0.231159389019012,-0.00779782734397738,,
0.0584546279853947,-0.235040843486786,-0.00794425766228768,,
0.0633258469841776,-0.238890826702118,-0.00808391890702831,,
0.0681970659829605,-0.242556750774384,-0.00825431118150455,,
0.0730682849817434,-0.246273696422577,-0.0084034717000554,,
0.0779395039805263,-0.249957263469696,-0.00856724681989407,,
0.0828107229793092,-0.253444373607636,-0.00871246395701641,,
0.0876819419780921,-0.256952345371246,-0.00881833626094153,,
0.092553160976875,-0.260429918766022,-0.00899145873565832,,
0.0974243799756579,-0.263778269290924,-0.00909621986110709,,
0.102295598974441,-0.267164885997772,-0.0092979855653752,,
0.107166817973224,-0.270436465740204,-0.00940187858263908,,
0.112038036972007,-0.273628890514374,-0.00954346919782045,,
0.116909255970789,-0.276781737804413,-0.00968912038903502,,
0.121780474969572,-0.279878795146942,-0.00982676762278745,,
0.126651693968355,-0.282880961894989,-0.00992712092892889,,
0.131522912967138,-0.285805881023407,-0.0100508089830726,,
0.136394131965921,-0.288736999034882,-0.0101848470570474,,
0.141265350964704,-0.291422069072723,-0.0103141061954659,,
0.146136569963487,-0.294098556041718,-0.010420171653462,,
0.15100778896227,-0.296819746494293,-0.0105265474601342,,
0.155879007961053,-0.299417316913605,-0.0106173537465155,,
0.160750226959836,-0.301872909069061,-0.0107614423429978,,
0.165621445958618,-0.30447655916214,-0.0108358044900916,,
0.170492664957401,-0.306793391704559,-0.0109495939406608,,
0.175363883956184,-0.309119880199432,-0.0110427788434677,,
0.180235102954967,-0.311289489269257,-0.0111881023238425,,
0.18510632195375,-0.313539206981659,-0.011295956084699,,
0.189977540952533,-0.315616309642792,-0.0113620690337686,,
0.194848759951316,-0.317558825016022,-0.0114558247177068,,
0.199719978950099,-0.319503843784332,-0.0115675133464692,,
0.204591197948882,-0.321470320224762,-0.0116065261282854,,
0.209462416947665,-0.323244631290436,-0.0117192781895739,,
0.214333635946447,-0.324753820896149,-0.0117862635873691,,
0.21920485494523,-0.326603949069977,-0.0118771002575366,,
0.224076073944013,-0.328187167644501,-0.0119603691946049,,
0.228947292942796,-0.32962828874588,-0.0120265016761087,,
0.233818511941579,-0.331053912639618,-0.0120892485356925,,
0.238689730940362,-0.332380592823029,-0.0121580027039139,,
0.243560949939145,-0.333629786968231,-0.012216287487429,,
0.248432168937928,-0.334952056407928,-0.0122705095246403,,
0.253303387936711,-0.336022078990936,-0.0123624248192269,,
0.258174606935493,-0.336858928203583,-0.0124014202388798,,
0.263045825934276,-0.337904632091522,-0.0124524476379717,,
0.267917044933059,-0.338739097118378,-0.0125137534379691,,
0.272788263931842,-0.339541614055634,-0.0125756669136958,,
0.277659482930625,-0.340284526348114,-0.0126071618786336,,
0.282530701929408,-0.340773284435272,-0.0126336218161005,,
0.287401920928191,-0.341423690319061,-0.0126897167967197,,
0.292273139926974,-0.341809928417206,-0.0127028100384141,,
0.297144358925757,-0.342247188091278,-0.0127502955561125,,
0.30201557792454,-0.342529952526093,-0.0127698952686508,,
0.306886796923322,-0.342757880687714,-0.012796511465591,,
0.311758015922105,-0.342943847179413,-0.0128306476496807,,
0.316629234920888,-0.342910945415497,-0.0128510286595849,,
0.321500453919671,-0.342933833599091,-0.0128860351221296,,
0.326371672918454,-0.342814147472382,-0.0128763101401912,,
0.331242891917237,-0.342724978923798,-0.0128983796205144,,
0.33611411091602,-0.342511475086212,-0.0129117484865575,,
0.340985329914803,-0.341912925243378,-0.0129037445290954,,
0.345856548913586,-0.341679275035858,-0.0129158980436803,,
0.350727767912368,-0.341048419475555,-0.0128904798360345,,
0.355598986911151,-0.34045284986496,-0.0129074426699618,,
0.360470205909934,-0.339873969554901,-0.0128661011879401,,
0.365341424908717,-0.339095294475555,-0.0128797652107662,,
0.3702126439075,-0.338287055492401,-0.0128825626893909,,
0.375083862906283,-0.337375462055206,-0.0128426622669555,,
0.379955081905066,-0.336367309093475,-0.012824970222153,,
0.384826300903849,-0.335206210613251,-0.0128142555968846,,
0.389697519902632,-0.334245383739471,-0.0127816516237411,,
0.394568738901415,-0.332894504070282,-0.0127543908564736,,
0.399439957900197,-0.331672847270966,-0.0127428471878885,,
0.40431117689898,-0.330293476581573,-0.0126787634417003,,
0.409182395897763,-0.328747451305389,-0.0126529459042901,,
0.414053614896546,-0.327179133892059,-0.0126248365612724,,
0.418924833895329,-0.325679361820221,-0.012558443647313,,
0.423796052894112,-0.32389372587204,-0.0125197607466063,,
0.428667271892895,-0.322124183177948,-0.0124576910114067,,
0.433538490891678,-0.320382297039032,-0.0124234528246054,,
0.438409709890461,-0.318494975566864,-0.0123794419099159,,
0.443280928889244,-0.316429793834686,-0.0123063254980669,,
0.448152147888026,-0.314352691173553,-0.0122663925215747,,
0.453023366886809,-0.31225460767746,-0.0122114608059225,,
0.457894585885592,-0.310129344463348,-0.0121296654824978,,
0.462765804884375,-0.307774841785431,-0.0120877206652876,,
0.467637023883158,-0.305597484111786,-0.0119840359939878,,
0.472508242881941,-0.303104102611542,-0.0119131441093616,,
0.477379461880724,-0.300618350505829,-0.0118185029550753,,
0.482250680879507,-0.297936260700226,-0.0117629114772031,,
0.48712189987829,-0.295450389385223,-0.0116577097868502,,
0.491993118877072,-0.292691886425018,-0.0115840768506312,,
0.496864337875855,-0.289912760257721,-0.0114975633592231,,
0.501735556874638,-0.286995589733124,-0.0114099017947411,,
0.506606775873421,-0.284163057804108,-0.0113173788244247,,
0.511477994872204,-0.281111896038055,-0.0112271845543139,,
0.516349213870987,-0.278185069561005,-0.0111039110218281,,
0.52122043286977,-0.275044620037079,-0.0110007255127345,,
0.526091651868553,-0.271836459636688,-0.0108978047766368,,
0.530962870867336,-0.268627822399139,-0.0107901940860722,,
0.535834089866119,-0.26543527841568,-0.0106885212554904,,
0.540705308864901,-0.261918723583221,-0.0105667604015163,,
0.545576527863684,-0.258491694927216,-0.0104541298753738,,
0.550447746862467,-0.254933893680573,-0.0103250769126491,,
0.55531896586125,-0.251525580883026,-0.0102184406735217,,
0.560190184860033,-0.247739493846893,-0.0101213167298271,,
0.565061403858816,-0.244312942028046,-0.00998118670666637,,
0.569932622857599,-0.240491569042206,-0.00987685746503963,,
0.574803841856382,-0.236767947673798,-0.00973504548227133,,
0.579675060855165,-0.232940375804901,-0.00959269310215838,,
0.584546279853947,-0.229062139987946,-0.00946145033653778,,
0.58941749885273,-0.2251335978508,-0.00931624839130896,,
0.594288717851513,-0.221038043498993,-0.00917228350024279,,
0.599159936850296,-0.216956794261932,-0.0090284553362161,,
0.604031155849079,-0.212898433208466,-0.00889235333503224,,
0.608902374847862,-0.208712875843048,-0.00875282881733064,,
0.613773593846645,-0.204645335674286,-0.00862940336591267,,
0.618644812845428,-0.200243055820465,-0.00844796875532827,,
0.623516031844211,-0.196003615856171,-0.00832921372594342,,
0.628387250842994,-0.191700994968414,-0.00811852169926697,,
0.633258469841776,-0.187243640422821,-0.00797700270301105,,
0.638129688840559,-0.182880103588104,-0.0078310216306865,,
0.643000907839342,-0.178473174571991,-0.00768023123901918,,
0.647872126838125,-0.173934638500214,-0.00752824285805653,,
0.652743345836908,-0.169448554515839,-0.00738115060725564,,
0.657614564835691,-0.164829432964325,-0.00720954298132126,,
0.662485783834474,-0.160097777843475,-0.00703058898987452,,
0.667357002833257,-0.155430018901825,-0.0068651644644846,,
0.67222822183204,-0.150757491588593,-0.00667761837228076,,
0.677099440830823,-0.146115481853485,-0.00652295404783931,,
0.681970659829605,-0.141142666339874,-0.00636574182587601,,
0.686841878828388,-0.136423289775848,-0.0061727440142727,,
0.691713097827171,-0.131517946720123,-0.00600415523455,,
0.696584316825954,-0.126767337322235,-0.00580629818738343,,
0.701455535824737,-0.121821105480194,-0.00564813104641715,,
0.70632675482352,-0.116817653179169,-0.0054642635626454,,
0.711197973822303,-0.112037479877472,-0.00528848901742451,,
0.716069192821086,-0.106991827487946,-0.00511083935852508,,
0.720940411819869,-0.10191684961319,-0.00493893874607831,,
0.725811630818652,-0.0968872904777527,-0.00473510477406025,,
0.730682849817434,-0.0917679667472839,-0.00458785626378599,,
0.735554068816217,-0.0867001414299011,-0.00433905645807586,,
0.740425287815,-0.081625759601593,-0.0041810086819849,,
0.745296506813783,-0.0765067934989929,-0.00399308062217951,,
0.750167725812566,-0.0713240504264832,-0.00379588116696272,,
0.755038944811349,-0.0661389231681824,-0.00361647792953024,,
0.759910163810132,-0.0609548687934875,-0.00341346431974676,,
0.764781382808915,-0.0557953715324402,-0.00323629863116004,,
0.769652601807698,-0.0506237149238586,-0.00303177234286522,,
0.77452382080648,-0.045423686504364,-0.00284532006697358,,
0.779395039805263,-0.04010409116745,-0.00266258329411251,,
0.784266258804046,-0.0349089503288269,-0.00248355985401094,,
0.789137477802829,-0.0296770930290222,-0.00227509452482799,,
0.794008696801612,-0.0244042277336121,-0.00207199410422598,,
0.798879915800395,-0.0191246867179871,-0.00186897615390169,,
0.803751134799178,-0.0139132142066956,-0.0016747803530035,,
0.808622353797961,-0.00858610868453979,-0.00147426472452139,,
0.813493572796744,-0.00332087278366089,-0.00128256907519475,,
0.818364791795526,0.00194770097732544,-0.00109953714555067,,
0.823236010794309,0.00722628831863403,-0.00087389846620578,,
0.828107229793092,0.0125043988227844,-0.000685119660379652,,
0.832978448791875,0.0177652835845947,-0.00047564515543197,,
0.837849667790658,0.0229700207710266,-0.000283341830376482,,
0.842720886789441,0.0283001065254211,-0.000107341577027853,,
0.847592105788224,0.0335099697113037,7.20095739135118E-05,,
0.852463324787007,0.0387757420539856,0.000312892232980477,,
0.85733454378579,0.0439551472663879,0.000506588871672431,,
0.862205762784573,0.0492127537727356,0.000688787417459036,,
0.867076981783355,0.0544455051422119,0.000884979867182167,,
0.871948200782138,0.0596206784248352,0.00109040464744847,,
0.876819419780921,0.0647767186164856,0.00128685752962632,,
0.881690638779704,0.0698606967926025,0.00149657076432463,,
0.886561857778487,0.0751102566719055,0.00168821866770097,,
0.89143307677727,0.0802586674690247,0.00185723933124526,,
0.896304295776053,0.0853383541107178,0.0020656026577166,,
0.901175514774836,0.090466320514679,0.00226485084824901,,
0.906046733773619,0.0954645276069641,0.00247522818570856,,
0.910917952772402,0.100547611713409,0.00265858565592181,,
0.915789171771184,0.105644524097443,0.00285636240308174,,
0.920660390769967,0.110552608966827,0.0030511311553818,,
0.92553160976875,0.115583181381226,0.00323188864158208,,
0.930402828767533,0.12051659822464,0.00345474937473611,,
0.935274047766316,0.125420391559601,0.00363259001743632,,
0.940145266765099,0.130264580249786,0.0038143848929173,,
0.945016485763882,0.135171711444855,0.00399344956815773,,
0.949887704762665,0.139953434467316,0.00418007112514518,,
0.954758923761448,0.144783735275269,0.00438341678630927,,
0.959630142760231,0.149572670459747,0.00456872315939716,,
0.964501361759013,0.15436726808548,0.00470668291209586,,
0.969372580757796,0.159032583236694,0.00487278673214009,,
0.974243799756579,0.163614511489868,0.00512252843523076,,
0.979115018755362,0.168139278888702,0.00531974091207044,,
0.983986237754145,0.172858059406281,0.00545808263237069,,
0.988857456752928,0.177305519580841,0.00563392662624596,,
0.993728675751711,0.181859314441681,0.00580820802538895,,
0.998599894750494,0.186230003833771,0.00601290793532128,,
1.00347111374928,0.190734684467316,0.0061825927016268,,
1.00834233274806,0.195050477981567,0.00634372660231408,,
1.01321355174684,0.199362099170685,0.00651519533093881,,
1.01808477074563,0.203644096851349,0.00669491108731801,,
1.02295598974441,0.207806408405304,0.0068504934361644,,
1.02782720874319,0.211923897266388,0.0070455009182151,,
1.03269842774197,0.21601802110672,0.00720475102414175,,
1.03756964674076,0.220220863819122,0.00737120642800049,,
1.04244086573954,0.224140465259552,0.00750683531022389,,
1.04731208473832,0.228070557117462,0.0076876318612924,,
1.05218330373711,0.231943905353546,0.00784772403215817,,
1.05705452273589,0.235781908035278,0.00801103254384783,,
1.06192574173467,0.239583790302277,0.00814631852333791,,
1.06679696073345,0.243365108966827,0.00829665315820849,,
1.07166817973224,0.246951878070831,0.00847361701164218,,
1.07653939873102,0.250613033771515,0.00858660563241065,,
1.0814106177298,0.254120171070099,0.0087317923857464,,
1.08628183672859,0.257627785205841,0.00887662755526764,,
1.09115305572737,0.261148750782013,0.00903258753117431,,
1.09602427472615,0.264519989490509,0.00915756038543147,,
1.10089549372493,0.267807304859161,0.00931828193473105,,
1.10576671272372,0.271066904067993,0.009451102486977,,
1.1106379317225,0.274206936359406,0.00958199149851202,,
1.11550915072128,0.277425587177277,0.00972634486799073,,
1.12038036972007,0.280443489551544,0.00981805181661333,,
1.12525158871885,0.283406555652618,0.00997406821955238,,
1.13012280771763,0.286369144916534,0.0100606706920496,,
1.13499402671641,0.289223968982697,0.01020305779649,,
1.1398652457152,0.292048811912537,0.0103263986073601,,
1.14473646471398,0.29481440782547,0.0104436062339057,,
1.14960768371276,0.29749470949173,0.0105708188072788,,
1.15447890271155,0.299870729446411,0.0106687414105036,,
1.15935012171033,0.302464246749878,0.010774503030635,,
1.16422134070911,0.304974853992462,0.0108848352403585,,
1.16909255970789,0.307349026203156,0.0109951197041318,,
1.17396377870668,0.309634029865265,0.0110808410468217,,
1.17883499770546,0.311930477619171,0.0111718491683557,,
1.18370621670424,0.313971340656281,0.0112901072058049,,
1.18857743570303,0.316008865833282,0.0113932862040871,,
1.19344865470181,0.318012058734894,0.0114746236004444,,
1.19831987370059,0.319972336292267,0.0115675502410664,,
1.20319109269938,0.321807742118835,0.0116712370826368,,
1.20806231169816,0.323603987693787,0.0117467624946985,,
1.21293353069694,0.32530289888382,0.0118158812683573,,
1.21780474969572,0.326799690723419,0.011862724385999,,
1.22267596869451,0.32849246263504,0.0119491705990229,,
1.22754718769329,0.329930067062378,0.0120540597704291,,
1.23241840669207,0.331240892410278,0.0120943920766861,,
1.23728962569086,0.332717716693878,0.0121679208399228,,
1.24216084468964,0.333930730819702,0.0122258540396234,,
1.24703206368842,0.335074245929718,0.0123037927924381,,
1.2519032826872,0.336291670799255,0.0123737102256269,,
1.25677450168599,0.337207615375519,0.012385325513137,,
1.26164572068477,0.338148415088654,0.0124516316162775,,
1.26651693968355,0.33898913860321,0.0125167050057966,,
1.27138815868234,0.339729607105255,0.0125314628449349,,
1.27625937768112,0.340312778949738,0.0126285347021384,,
1.2811305966799,0.34106433391571,0.0126322154808411,,
1.28600181567868,0.341529190540314,0.0126791063444331,,
1.29087303467747,0.34192830324173,0.0127304115381439,,
1.29574425367625,0.342454254627228,0.0127415406850706,,
1.30061547267503,0.342655003070831,0.0127464411557727,,
1.30548669167382,0.342850029468536,0.0127822419373063,,
1.3103579106726,0.342927753925323,0.0128191495567749,,
1.31522912967138,0.343007862567902,0.0128173265295874,,
1.32010034867016,0.342932999134064,0.0128561179438167,,
1.32497156766895,0.342948257923126,0.0128467250132593,,
1.32984278666773,0.342717945575714,0.0128634100525677,,
1.33471400566651,0.342401802539825,0.0128628023768385,,
1.3395852246653,0.342062771320343,0.0128805465081321,,
1.34445644366408,0.341613173484802,0.0128702464045216,,
1.34932766266286,0.341048538684845,0.0128817054325583,,
1.35419888166165,0.340513586997986,0.0128729722642214,,
1.35907010066043,0.339726269245148,0.0128704721126494,,
1.36394131965921,0.339110255241394,0.0128387036936335,,
1.36881253865799,0.338130354881287,0.0128401794775472,,
1.37368375765678,0.337214827537537,0.0128072434530231,,
1.37855497665556,0.336352229118347,0.0128199699190095,,
1.38342619565434,0.335070908069611,0.0127873464134316,,
1.38829741465313,0.333954632282257,0.0127607128543277,,
1.39316863365191,0.332730114459991,0.0127212660184188,,
1.39803985265069,0.331397294998169,0.0126942331295501,,
1.40291107164947,0.330139935016632,0.0126834165015697,,
1.40778229064826,0.328645467758179,0.0126185861823429,,
1.41265350964704,0.327055752277374,0.0125590165987144,,
1.41752472864582,0.325291931629181,0.0125746555676605,,
1.42239594764461,0.323692142963409,0.0124875018464659,,
1.42726716664339,0.32189929485321,0.0124470827293903,,
1.43213838564217,0.3200643658638,0.0123932947462717,,
1.43700960464095,0.318119287490845,0.012334871065447,,
1.44188082363974,0.316038429737091,0.0122768336927646,,
1.44675204263852,0.314091980457306,0.0121949493882512,,
1.4516232616373,0.311951994895935,0.0121359006695334,,
1.45649448063609,0.309769928455353,0.0120880331842339,,
1.46136569963487,0.307475864887238,0.0119749186877787,,
1.46623691863365,0.305062592029572,0.0119245684130709,,
1.47110813763243,0.302629292011261,0.0118496333145752,,
1.47597935663122,0.300020933151245,0.0117904934444981,,
1.48085057563,0.297501385211945,0.0116857301487792,,
1.48572179462878,0.294919848442078,0.0116037460118239,,
1.49059301362757,0.292215645313263,0.0115488338286061,,
1.49546423262635,0.289363265037537,0.0114456982357334,,
1.50033545162513,0.286412000656128,0.0113884247982532,,
1.50520667062391,0.283541917800903,0.011253086732272,,
1.5100778896227,0.280586540699005,0.011147108085094,,
1.51494910862148,0.277634918689728,0.0110362159455915,,
1.51982032762026,0.274364769458771,0.0109789902540616,,
1.52469154661905,0.271288692951202,0.0108431530258741,,
1.52956276561783,0.268004715442657,0.010759202623881,,
1.53443398461661,0.264687359333038,0.0106333095749482,,
1.5393052036154,0.261240780353546,0.0105365328745277,,
1.54417642261418,0.257804751396179,0.0104171636586021,,
1.54904764161296,0.254485428333282,0.010279607576209,,
1.55391886061174,0.250809013843536,0.0101823100108778,,
1.55879007961053,0.24725329875946,0.0100467809610958,,
1.56366129860931,0.243534862995148,0.0099204885823978,,
1.56853251760809,0.239951431751251,0.00980643652910329,,
1.57340373660688,0.236084759235382,0.00969834403849612,,
1.57827495560566,0.232216656208038,0.00952683624500272,,
1.58314617460444,0.228270411491394,0.00939767910929579,,
1.58801739360322,0.224351704120636,0.00929001199169921,,
1.59288861260201,0.220301926136017,0.00912030118214791,,
1.59775983160079,0.216307997703552,0.00897859120209166,,
1.60263105059957,0.21213561296463,0.00883899940600541,,
1.60750226959836,0.208008587360382,0.00870421692926238,,
1.61237348859714,0.203859090805054,0.00856924780925938,,
1.61724470759592,0.199547588825226,0.00839319112887882,,
1.6221159265947,0.195258855819702,0.00826352614988402,,
1.62698714559349,0.190820038318634,0.00810029142738999,,
1.63185836459227,0.186466038227081,0.00793733015897402,,
1.63672958359105,0.182042896747589,0.00779160951910463,,
1.64160080258984,0.177512943744659,0.00764158306263951,,
1.64647202158862,0.172959625720978,0.00747975033486403,,
1.6513432405874,0.168371975421906,0.00730072906503265,,
1.65621445958618,0.163788139820099,0.00714926154898121,,
1.66108567858497,0.159147560596466,0.00697450703087732,,
1.66595689758375,0.154626667499542,0.00679972646952809,,
