Time domain (s),Current (AC) (A),Potential (AC) (V),Frequency (Hz),Column 5
0,-0.157028259365509,-0.00574644197851271,0.63096,0.167
0.00386935186065678,-0.15658867064957,-0.00576927225421375,,
0.00773870372131355,-0.156004090312279,-0.00575839818070101,,
0.0116080555819703,-0.155807656894033,-0.00574215855250815,,
0.0154774074426271,-0.15521559893472,-0.0057093416807743,,
0.0193467593032839,-0.154721757684529,-0.00573739784617366,,
0.0232161111639407,-0.154004542363699,-0.00569828395330951,,
0.0270854630245974,-0.153529792914418,-0.00569160532785995,,
0.0309548148852542,-0.152924158563346,-0.00570693108518983,,
0.034824166745911,-0.152299008149123,-0.00567033995978505,,
0.0386935186065678,-0.151411663669077,-0.00563032759219828,,
0.0425628704672245,-0.150722025394004,-0.00562376553752042,,
0.0464322223278813,-0.149910411724233,-0.00564319876497299,,
0.0503015741885381,-0.149162490423606,-0.00558057716626159,,
0.0541709260491949,-0.148196392264808,-0.00557065325451189,,
0.0580402779098517,-0.147249014677458,-0.00554420708543368,,
0.0619096297705084,-0.146423241255345,-0.00550713318107787,,
0.0657789816311652,-0.145254345744666,-0.005496682501406,,
0.069648333491822,-0.144428731420893,-0.00547312090906971,,
0.0735176853524788,-0.143528818171916,-0.00540920493490127,,
0.0773870372131355,-0.142355308809349,-0.005410543299329,,
0.0812563890737923,-0.141211762967655,-0.00537201665922149,,
0.0851257409344491,-0.140108893268454,-0.00533995749750504,,
0.0889950927951059,-0.138861138013462,-0.00529588054904151,,
0.0928644446557626,-0.137776723721807,-0.00526453400864746,,
0.0967337965164194,-0.136446449460662,-0.00522782961164392,,
0.100603148377076,-0.135207656745542,-0.00519157390213909,,
0.104472500237733,-0.134042208365582,-0.00516828614114484,,
0.10834185209839,-0.132547744616616,-0.00510478366329892,,
0.112211203959047,-0.131242024532752,-0.00506063633248255,,
0.116080555819703,-0.129898545109312,-0.005033187214877,,
0.11994990768036,-0.128470955696309,-0.00498078755319087,,
0.123819259541017,-0.127097565784777,-0.00491861354225476,,
0.127688611401674,-0.125460602955135,-0.00487765981069854,,
0.13155796326233,-0.124073053291262,-0.00485936149868538,,
0.135427315122987,-0.122465947916931,-0.00479800348315251,,
0.139296666983644,-0.120929110976502,-0.00474596563074892,,
0.143166018844301,-0.119417199442816,-0.00468840166392326,,
0.147035370704958,-0.117728582685158,-0.00462980835518767,,
0.150904722565614,-0.116041981173151,-0.00458976079642426,,
0.154774074426271,-0.114411753506607,-0.00453004906811305,,
0.158643426286928,-0.112653186511728,-0.00444446412706512,,
0.162512778147585,-0.110966744098061,-0.0044081919216965,,
0.166382130008241,-0.109223238412788,-0.00436847867910917,,
0.170251481868898,-0.107552917964335,-0.00430840734096405,,
0.174120833729555,-0.105600038862421,-0.00423659974548363,,
0.177990185590212,-0.103814106952905,-0.00417404742940075,,
0.181859537450869,-0.101915745549144,-0.00411633390007582,,
0.185728889311525,-0.100052120616483,-0.00403771681195852,,
0.189598241172182,-0.0981162650370471,-0.00399170434879181,,
0.193467593032839,-0.0961922888003996,-0.00392404931212864,,
0.197336944893496,-0.0943388461615563,-0.00383118859535614,,
0.201206296754152,-0.0922463847818831,-0.00377551615426341,,
0.205075648614809,-0.0903438337884783,-0.0037532225440029,,
0.208945000475466,-0.0883421114959052,-0.00365861876427331,,
0.212814352336123,-0.0862768028997476,-0.00359678896703164,,
0.21668370419678,-0.0842167975816204,-0.00352592273552022,,
0.220553056057436,-0.0821319729223109,-0.00343051065845756,,
0.224422407918093,-0.080070270555214,-0.00334736270637626,,
0.22829175977875,-0.0779750514709649,-0.00328686907411413,,
0.232161111639407,-0.0758183143615633,-0.00321863338303974,,
0.236030463500063,-0.0737149812619277,-0.00317292994239171,,
0.23989981536072,-0.0714441706420923,-0.00308092041219865,,
0.243769167221377,-0.0692653718960842,-0.00302760687964998,,
0.247638519082034,-0.0671323934722587,-0.00294067587610369,,
0.251507870942691,-0.0649642543150917,-0.00286107343504671,,
0.255377222803347,-0.0626439110784524,-0.00278360885795692,,
0.259246574664004,-0.0604222618459587,-0.00270599471836785,,
0.263115926524661,-0.0580970926263116,-0.00262771194642619,,
0.266985278385318,-0.0558576243796358,-0.00253781718599111,,
0.270854630245974,-0.0535644869592924,-0.00248423752017102,,
0.274723982106631,-0.0513413528089502,-0.00237197766739827,,
0.278593333967288,-0.0489603931044234,-0.00228487070797012,,
0.282462685827945,-0.0466927114186258,-0.00221944041349076,,
0.286332037688601,-0.0443636708060166,-0.00213194635112224,,
0.290201389549258,-0.0419838247898762,-0.00206055335168864,,
0.294070741409915,-0.0396179263949557,-0.00195643145846258,,
0.297940093270572,-0.0372191476762468,-0.00190413737030593,,
0.301809445131229,-0.0348693712465387,-0.00180588360574729,,
0.305678796991885,-0.0324959952295953,-0.0016977939073799,,
0.309548148852542,-0.0301106338043033,-0.0016274280504085,,
0.313417500713199,-0.0277197039370794,-0.00154796747378105,,
0.317286852573856,-0.0253135006291279,-0.00145413899965741,,
0.321156204434512,-0.0228924481426913,-0.00138643997402355,,
0.325025556295169,-0.020486456965861,-0.00129134351782412,,
0.328894908155826,-0.0180785035761595,-0.00118506726476664,,
0.332764260016483,-0.0156292906833815,-0.00111412185310833,,
0.33663361187714,-0.0132129050816116,-0.00103017220203938,,
0.340502963737796,-0.010795511857016,-0.000965958202595374,,
0.344372315598453,-0.00834237453849549,-0.000842586735868789,,
0.34824166745911,-0.00585153091317887,-0.000758937309523589,,
0.352111019319767,-0.00343408465580294,-0.000689302769186995,,
0.355980371180423,-0.000982273156790036,-0.000558505964236122,,
0.35984972304108,0.00144938588570736,-0.000520059603999368,,
0.363719074901737,0.00387979865786761,-0.000390327332135065,,
0.367588426762394,0.0063254318379751,-0.000312054457712208,,
0.371457778623051,0.00873863547292671,-0.000215674623297968,,
0.375327130483707,0.0112233272957281,-0.000136053486928578,,
0.379196482344364,0.013625075850134,-5.75331745462648E-05,,
0.383065834205021,0.016059280466086,3.82912991150342E-05,,
0.386935186065678,0.0185017847121556,0.000122453196966799,,
0.390804537926334,0.0209056280613835,0.000221312909594484,,
0.394673889786991,0.0233011982968841,0.000296481262422876,,
0.398543241647648,0.025746035985287,0.000392403611543468,,
0.402412593508305,0.0281231773296319,0.000475206250206028,,
0.406281945368962,0.0304875908067039,0.000563382141617996,,
0.410151297229618,0.0329194619803225,0.000644823321642729,,
0.414020649090275,0.0352537528381818,0.000756834636732151,,
0.417890000950932,0.0376196512331023,0.000809240896763708,,
0.421759352811589,0.0400143994605081,0.000918571084099984,,
0.425628704672245,0.0424172086705202,0.000987996676826697,,
0.429498056532902,0.0447056792061969,0.00110749931359599,,
0.433367408393559,0.0471019123514512,0.0011910409669631,,
0.437236760254216,0.049411171737007,0.00127246455139973,,
0.441106112114873,0.0517182832949606,0.0013461372792305,,
0.444975463975529,0.0540103865760881,0.00144570191511084,,
0.448844815836186,0.0562364905621273,0.00153604646276939,,
0.452714167696843,0.0585109604438038,0.00162839470803533,,
0.4565835195575,0.0608467362195116,0.00170369722722352,,
0.460452871418156,0.0631197211833395,0.00175308804332586,,
0.464322223278813,0.0652983077982264,0.00186126571963419,,
0.46819157513947,0.0675772324334484,0.00193826401363673,,
0.472060927000127,0.0696875128273037,0.00203446569272003,,
0.475930278860784,0.0718773158752249,0.00210556066687806,,
0.47979963072144,0.0740366250744713,0.00218990511895756,,
0.483668982582097,0.0761916916512933,0.00226835065008979,,
0.487538334442754,0.0783373714260016,0.00232425843217499,,
0.491407686303411,0.0805227727531575,0.00242570579599377,,
0.495277038164067,0.082591024668622,0.00253466647597733,,
0.499146390024724,0.08453775196802,0.00260584063028224,,
0.503015741885381,0.0866206409308483,0.002665947159604,,
0.506885093746038,0.0885879714653944,0.00274569036536665,,
0.510754445606695,0.0907264652983714,0.00281929271084458,,
0.514623797467351,0.0927060729215578,0.00291458161878966,,
0.518493149328008,0.0946349812067736,0.0029863100341232,,
0.522362501188665,0.0966324078441422,0.00307749917001576,,
0.526231853049322,0.098497464661872,0.00313523029492924,,
0.530101204909978,0.100434433929694,0.00324412719090583,,
0.533970556770635,0.102289944846969,0.00329123058054082,,
0.537839908631292,0.104069300691728,0.00337082642325237,,
0.541709260491949,0.105955994883822,0.00343299383584306,,
0.545578612352606,0.107882357595583,0.00352110154435037,,
0.549447964213262,0.109573254762794,0.00357944191650583,,
0.553317316073919,0.111369368966129,0.00360287704055118,,
0.557186667934576,0.113094604858588,0.00371892874258339,,
0.561056019795233,0.114777255428462,0.00378166581234218,,
0.564925371655889,0.116349385684183,0.00383101263947383,,
0.568794723516546,0.118043438301822,0.00389504958331166,,
0.572664075377203,0.119570331595944,0.00397799958502532,,
0.57653342723786,0.121148375006669,0.00404407761709535,,
0.580402779098517,0.122813657340994,0.00410831031185221,,
0.584272130959173,0.124295578837418,0.00414972152870163,,
0.58814148281983,0.125806800944959,0.00423022134475737,,
0.592010834680487,0.127317174528016,0.00426597557999786,,
0.595880186541144,0.12866123731204,0.00436102474805367,,
0.5997495384018,0.130088057749728,0.0044129493288585,,
0.603618890262457,0.131456913358544,0.00446394354293611,,
0.607488242123114,0.132945649567237,0.00451416795003023,,
0.611357593983771,0.134244740553563,0.00456896501060955,,
0.615226945844428,0.135498621094679,0.00462650258405262,,
0.619096297705084,0.136722432049364,0.00468664210510239,,
0.622965649565741,0.137983975827234,0.00473854909031868,,
0.626835001426398,0.139296643205318,0.00477915970790477,,
0.630704353287055,0.140247600505339,0.00484341879604333,,
0.634573705147711,0.141489018343084,0.00485988606715848,,
0.638443057008368,0.14254734050683,0.00492088337313312,,
0.642312408869025,0.143598264597724,0.00499413160739826,,
0.646181760729682,0.14460607303823,0.00499172101181378,,
0.650051112590339,0.145622605371096,0.0050549947470131,,
0.653920464450995,0.146429127893959,0.00510896921384374,,
0.657789816311652,0.147548543820615,0.00515503666322337,,
0.661659168172309,0.148314310651814,0.00519784672933543,,
0.665528520032966,0.149151194441401,0.0052125214499017,,
0.669397871893622,0.150001203844113,0.0052506444912046,,
0.673267223754279,0.15073517752352,0.00530175747550299,,
0.677136575614936,0.151426937109805,0.00532732386517054,,
0.681005927475593,0.152201852095606,0.00536597257467131,,
0.684875279336249,0.152824032674132,0.00538838055625535,,
0.688744631196906,0.153577734547812,0.00541280543213807,,
0.692613983057563,0.154301738064522,0.00546915090447975,,
0.69648333491822,0.154782002922955,0.00548249055979078,,
0.700352686778877,0.155293026793964,0.00549643506344655,,
0.704222038639533,0.155761836571851,0.00555664716629733,,
0.70809139050019,0.156051581167041,0.00556569129863638,,
0.711960742360847,0.156633059086684,0.00558493207434285,,
0.715830094221504,0.157015107235994,0.00562968645295214,,
0.719699446082161,0.157351785841754,0.00565961434904727,,
0.723568797942817,0.157686926496885,0.00567198404755809,,
0.727438149803474,0.15814322053862,0.0056791740447899,,
0.731307501664131,0.158128795622377,0.00566981979020831,,
0.735176853524788,0.158440416239443,0.00569910764678205,,
0.739046205385444,0.158535238850627,0.00570446770284017,,
0.742915557246101,0.158631546379659,0.00573073791603607,,
0.746784909106758,0.158668059448898,0.00577059412277769,,
0.750654260967415,0.15874333948054,0.00575388711177327,,
0.754523612828071,0.158832010289208,0.00577893223214021,,
0.758392964688728,0.158771128657419,0.00574699843898951,,
0.762262316549385,0.158683094242114,0.00577031919171178,,
0.766131668410042,0.158658274900932,0.00575653304835022,,
0.770001020270699,0.158480933283596,0.00578278566595802,,
0.773870372131355,0.158304228059623,0.00578719336080447,,
0.777739723992012,0.157949969087192,0.00576081757407909,,
0.781609075852669,0.15791814941901,0.00578472997845525,,
0.785478427713326,0.157613104866702,0.00578606724315911,,
0.789347779573983,0.157315909165878,0.00575393110074396,,
0.793217131434639,0.156881888891871,0.00576924586083116,,
0.797086483295296,0.156408173581805,0.00576775023583354,,
0.800955835155953,0.155882751310944,0.0057254174500514,,
0.80482518701661,0.15567974182794,0.00575706311544533,,
0.808694538877266,0.155058807519751,0.00573072032044797,,
0.812563890737923,0.154518748201526,0.00573170567338765,,
0.81643324259858,0.154030846622729,0.00569243891885085,,
0.820302594459237,0.153244264425261,0.00568072245655227,,
0.824171946319893,0.152679147118342,0.00567433305858378,,
0.82804129818055,0.152085392110059,0.00566924133524616,,
0.831910650041207,0.151367116133622,0.00564038237113484,,
0.835780001901864,0.150490590340758,0.00563236098236031,,
0.839649353762521,0.149694488759225,0.00559361549712412,,
0.843518705623177,0.149045102364403,0.00559302384547067,,
0.847388057483834,0.148000144461294,0.00557016057804161,,
0.851257409344491,0.147129770470945,0.00554368801558125,,
0.855126761205148,0.146133841373227,0.0055054264090213,,
0.858996113065804,0.145308677828087,0.00548763726934176,,
0.862865464926461,0.144190720302889,0.0054815557941672,,
0.866734816787118,0.14308827486593,0.00546109432452857,,
0.870604168647775,0.141990284182517,0.00538684094228703,,
0.874473520508432,0.14106260827305,0.00535518647909949,,
0.878342872369088,0.139826095967483,0.00532724468502366,,
0.882212224229745,0.138752341264668,0.00529814158212627,,
0.886081576090402,0.137540621783893,0.00524436946455964,,
0.889950927951059,0.136305833043686,0.0051916552817346,,
0.893820279811715,0.135007961811307,0.00517249368617501,,
0.897689631672372,0.133708473079129,0.00514312445000575,,
0.901558983533029,0.132344682100832,0.00511208583240519,,
0.905428335393686,0.131027772100324,0.00503856266707414,,
0.909297687254343,0.129670557186785,0.00501718402740048,,
0.913167039114999,0.128136398401762,0.00498014531422086,,
0.917036390975656,0.126643843832887,0.00494451204864932,,
0.920905742836313,0.125286867566859,0.00485606122617144,,
0.92477509469697,0.123679788708918,0.00481952398725571,,
0.928644446557626,0.12225638888556,0.00478378734760376,,
0.932513798418283,0.120625710440383,0.00471705607932149,,
0.93638315027894,0.119085638500356,0.00468555997642728,,
0.940252502139597,0.117541323937905,0.0046514707237213,,
0.944121854000254,0.115737175268354,0.00457783098761855,,
0.94799120586091,0.114104587643086,0.00446962691792763,,
0.951860557721567,0.112394810806087,0.00442655951633775,,
0.955729909582224,0.11060527266751,0.00436954321219529,,
0.959599261442881,0.108789430269902,0.00435178926369284,,
0.963468613303537,0.107082384621088,0.00428581460570365,,
0.967337965164194,0.105397665772781,0.00422178426021125,,
0.971207317024851,0.103450089948899,0.00418569570879468,,
0.975076668885508,0.101627883617654,0.00408601890103988,,
0.978946020746165,0.0996938576691393,0.00405539158031365,,
0.982815372606821,0.0978638290028002,0.00398214334604852,,
0.986684724467478,0.0958787059704622,0.00389248282688159,,
0.990554076328135,0.0938918858891545,0.00383806847034585,,
0.994423428188792,0.091908247774665,0.00380054587848999,,
0.998292780049448,0.0899451863789334,0.00371372044847318,,
1.00216213191011,0.0878684227022302,0.00363030856256907,,
1.00603148377076,0.0858058452942582,0.00356998208839476,,
1.00990083563142,0.0838468409062199,0.00351728550115782,,
1.01377018749208,0.0817446480113609,0.00343390880642991,,
1.01763953935273,0.079655739827968,0.00334894410986619,,
1.02150889121339,0.0774820322288691,0.00328093936088703,,
1.02537824307405,0.0754203563781623,0.00321821988671678,,
1.0292475949347,0.0732097379639719,0.00314543573609027,,
1.03311694679536,0.0710886123665443,0.00304147220315842,,
1.03698629865602,0.068860227970952,0.0029985125745462,,
1.04085565051667,0.0666725197178529,0.00292829957924701,,
1.04472500237733,0.0644724813433331,0.00282563811984238,,
1.04859435423799,0.0622128606401417,0.00275376674035455,,
1.05246370609864,0.05994096284831,0.00268133450149266,,
1.0563330579593,0.0577549251277904,0.00260811046116105,,
1.06020240981996,0.0554339985305677,0.00251589198335855,,
1.06407176168061,0.053128769636315,0.00243422206068677,,
1.06794111354127,0.0508139948416075,0.00235626700657576,,
1.07181046540193,0.0484801282459906,0.00228473874105806,,
1.07567981726258,0.0461547468952224,0.00220225722188028,,
1.07954916912324,0.0438270055857306,0.00211764223763211,,
1.0834185209839,0.0415162877987164,0.00205010157229246,,
1.08728787284455,0.0391283542835796,0.00193879188128276,,
1.09115722470521,0.0367127641735143,0.00185026847700387,,
1.09502657656587,0.0343708631116814,0.00179275729694295,,
1.09889592842652,0.0319702017292717,0.00169282535315896,,
1.10276528028718,0.0295556987912026,0.00161152273839127,,
1.10663463214784,0.0272305295715556,0.00152969445542572,,
1.11050398400849,0.0248271104845701,0.00144540279011096,,
1.11437333586915,0.0223644272655948,0.00134538066893741,,
1.11824268772981,0.0199535835893668,0.00128924194475699,,
1.12211203959047,0.0175308340539604,0.00119979697154582,,
1.12598139145112,0.015108933043039,0.00110394500477762,,
1.12985074331178,0.0126984871126632,0.00100587379444672,,
1.13372009517244,0.0102680743405029,0.0009118055804338,,
1.13758944703309,0.00783325984757743,0.000835583691761066,,
1.14145879889375,0.00538144834856452,0.000736802059556396,,
1.14532815075441,0.00296291491919236,0.000655554431001626,,
1.14919750261506,0.000513463378902987,0.000574652115865604,,
1.15306685447572,-0.00192111246651113,0.000496877416533703,,
1.15693620633638,-0.00435155175506153,0.00039643300124359,,
1.16080555819703,-0.00685215341195408,0.000309994674167147,,
1.16467491005769,-0.00925241704851152,0.000201289130212778,,
1.16854426191835,-0.0117176458409413,0.00011882740607172,,
1.172413613779,-0.0141121289044456,1.83565973985722E-05,,
1.17628296563966,-0.01652405975267,-5.62135054305024E-05,,
1.18015231750032,-0.0189947509214711,-0.000139360357787499,,
1.18402166936097,-0.0213861580837178,-0.000227084262527377,,
1.18789102122163,-0.0237957024568284,-0.000293190887428185,,
1.19176037308229,-0.0262392408421139,-0.000387512038021676,,
1.19562972494294,-0.0286159579242164,-0.00048533471066925,,
1.1994990768036,-0.0309992510710765,-0.000574817074505685,,
1.20336842866426,-0.0333971282325203,-0.000669191011863912,,
1.20723778052491,-0.035773527117941,-0.0007496193458425,,
1.21110713238557,-0.0381243111704748,-0.000824612842513339,,
1.21497648424623,-0.0405445151324266,-0.000924802121774704,,
1.21884583610688,-0.0429157168053774,-0.00102061889736627,,
1.22271518796754,-0.045209914881327,-0.00109912271388479,,
1.2265845398282,-0.0475562972130956,-0.00115089663246515,,
1.23045389168886,-0.0498831634817123,-0.00130011601827063,,
1.23432324354951,-0.0522003247515335,-0.00137818764315334,,
1.23819259541017,-0.05449574258143,-0.00144922103275302,,
1.24206194727083,-0.0567750914788944,-0.00156664409094054,,
1.24593129913148,-0.0589956270230017,-0.0016261182788111,,
1.24980065099214,-0.0612680286262463,-0.00168794917577708,,
1.2536700028528,-0.0635441955568925,-0.001790883366799,,
1.25753935471345,-0.065692023159203,-0.00186659718286197,,
1.26140870657411,-0.0679253926361439,-0.00195059082290161,,
1.26527805843477,-0.0700994714647049,-0.0020183503333695,,
1.26914741029542,-0.0723635469214418,-0.00211752786630903,,
1.27301676215608,-0.0744258326491221,-0.0021718278515217,,
1.27688611401674,-0.0766420725380248,-0.00229057277827405,,
1.28075546587739,-0.0787538378497287,-0.00235666070786245,,
1.28462481773805,-0.0808422157053185,-0.00245092027389715,,
1.28849416959871,-0.082959496426174,-0.0025237935021889,,
1.29236352145936,-0.0849980765010584,-0.00260913980307187,,
1.29623287332002,-0.0870035641210331,-0.0027076223102771,,
1.30010222518068,-0.0890571524727435,-0.00278425989472098,,
