Time domain (s),Current (AC) (A),Potential (AC) (V),Frequency (Hz),Column 5
0,0.267622487555428,0.0104751533200464,0.25119,0.3
0.00971936084239022,0.266369628357004,0.0104478245799573,,
0.0194387216847804,0.265075631594751,0.0103974263129945,,
0.0291580825271707,0.263873827051438,0.0103777874151962,,
0.0388774433695609,0.26241716244471,0.0103014995279684,,
0.0485968042119511,0.260849114210916,0.0102880241332541,,
0.0583161650543413,0.259379226815815,0.0102202401358946,,
0.0680355258967316,0.257777019712055,0.0101785347341306,,
0.0777548867391218,0.256207180892336,0.0101433707861118,,
0.087474247581512,0.254484178107286,0.010103860405493,,
0.0971936084239022,0.252752727429664,0.0100194792863268,,
0.106912969266292,0.250915861744729,0.0099745431332412,,
0.116632330108683,0.248974361564293,0.00991728360812827,,
0.126351690951073,0.247151407354625,0.00983484675438051,,
0.136071051793463,0.245017396230954,0.00978601843631699,,
0.145790412635853,0.243043160466801,0.00970512245833977,,
0.155509773478244,0.240818426322899,0.0096440216462228,,
0.165229134320634,0.238673028909239,0.00958875726450215,,
0.174948495163024,0.23644792746566,0.00951486791031408,,
0.184667856005414,0.23426024467668,0.00941503442374581,,
0.194387216847804,0.231863981583594,0.00935547812154081,,
0.204106577690195,0.229527266950651,0.00929097575347626,,
0.213825938532585,0.227014202560262,0.00921276903981694,,
0.223545299374975,0.22461132807299,0.009107818682764,,
0.233264660217365,0.222011580958817,0.00902283066205545,,
0.242984021059756,0.21948602837941,0.00893503345037772,,
0.252703381902146,0.216762868573748,0.00886953169354676,,
0.262422742744536,0.213980573520081,0.00875652081182388,,
0.272142103586926,0.211329771750798,0.0086583590301017,,
0.281861464429316,0.208635261319946,0.00856452551027376,,
0.291580825271707,0.205641768951975,0.00846215902745007,,
0.301300186114097,0.202818336334478,0.00837427096224808,,
0.311019546956487,0.199875531321939,0.00827618186334522,,
0.320738907798877,0.196851553080772,0.00817153313999297,,
0.330458268641268,0.193781616467514,0.00804513408293905,,
0.340177629483658,0.1907683817419,0.00794945078535791,,
0.349896990326048,0.187629760089033,0.00784205828557383,,
0.359616351168438,0.184348304774253,0.00769065997279217,,
0.369335712010828,0.181159041678413,0.00760406566177529,,
0.379055072853219,0.177976022677082,0.0074822928661753,,
0.388774433695609,0.174574827667583,0.00738943329612729,,
0.398493794537999,0.171293739652479,0.00723293264942448,,
0.408213155380389,0.167992128767921,0.00711669828466199,,
0.41793251622278,0.164503837822501,0.00703299674985658,,
0.42765187706517,0.161011185193415,0.00688186009522473,,
0.43737123790756,0.157509671459621,0.00679227125204918,,
0.44709059874995,0.153947645104033,0.00661722194983927,,
0.45680995959234,0.150352883164727,0.00650986942560561,,
0.466529320434731,0.146752611730266,0.00639583008198841,,
0.476248681277121,0.143204864149623,0.00624008897074813,,
0.485968042119511,0.139520527001577,0.00614057892272646,,
0.495687402961901,0.135723291115296,0.00599994130135473,,
0.505406763804292,0.131915173976083,0.00582752311720647,,
0.515126124646682,0.128181572758852,0.00571089626521948,,
0.524845485489072,0.124338148938183,0.00557483402732828,,
0.534564846331462,0.120489950221711,0.00541260960859891,,
0.544284207173852,0.116737616720951,0.00526317373194063,,
0.554003568016243,0.112756776908604,0.00513309692422581,,
0.563722928858633,0.108821941380808,0.00501789465549818,,
0.573442289701023,0.10488118314572,0.0048648101013069,,
0.583161650543413,0.100955805584608,0.00467347984755451,,
0.592881011385804,0.0968542160034306,0.0045508348581218,,
0.602600372228194,0.0928580414295671,0.00440199861472346,,
0.612319733070584,0.0888893225065632,0.00426190248035629,,
0.622039093912974,0.0848089903941952,0.00409816625898385,,
0.631758454755364,0.0807309079923491,0.00393137372505592,,
0.641477815597755,0.0765587050482586,0.00380602493474225,,
0.651197176440145,0.0724574368542986,0.00364775082724655,,
0.660916537282535,0.0683451955824868,0.00348060941578598,,
0.670635898124925,0.0642181704986736,0.0033175128032239,,
0.680355258967316,0.0600228735873884,0.00318580426621384,,
0.690074619809706,0.055797458102585,0.00306153481576787,,
0.699793980652096,0.0516554196444723,0.00285380731796181,,
0.709513341494486,0.0473947433906719,0.00270297593117119,,
0.719232702336876,0.0432207498606557,0.00257882277323684,,
0.728952063179267,0.0389707252974898,0.002387866836004,,
0.738671424021657,0.0347618382981537,0.0022436205126497,,
0.748390784864047,0.0304652125884618,0.00209565282894308,,
0.758110145706437,0.0262349762953971,0.00191112568708496,,
0.767829506548828,0.0220407812831431,0.00175071470469934,,
0.777548867391218,0.0177801050293427,0.00159597298222591,,
0.787268228233608,0.0134463361398089,0.00142511384455357,,
0.796987589075998,0.00913974742637708,0.00128215400710241,,
0.806706949918388,0.00494298131638368,0.00110843116634607,,
0.816426310760779,0.000643738596492839,0.000948325451802123,,
0.826145671603169,-0.00367157348426901,0.000815057868316149,,
0.835865032445559,-0.00792719936750996,0.000614871213021395,,
0.845584393287949,-0.0121375555655543,0.000384626577769609,,
0.85530375413034,-0.0164092508096662,0.00031358639010115,,
0.86502311497273,-0.0207217163179309,0.000151256581283565,,
0.87474247581512,-0.0249879020668871,-4.8592098901068E-05,,
0.88446183665751,-0.0292492210951224,-0.000186760321483792,,
0.8941811974999,-0.0335173351673831,-0.000366637579971574,,
0.903900558342291,-0.0376958281184431,-0.000523821445176598,,
0.913619919184681,-0.0420658678510857,-0.000680903554434398,,
0.923339280027071,-0.0461877048269605,-0.000845471994088687,,
0.933058640869461,-0.0503965918262966,-0.0010458585271369,,
0.942778001711851,-0.0546062134249868,-0.00116339936557797,,
0.952497362554242,-0.0587848900258854,-0.00133228698177446,,
0.962216723396632,-0.0629847781831338,-0.00148682519235388,,
0.971936084239022,-0.0671367337325269,-0.00165839843872684,,
0.981655445081412,-0.0712930050531253,-0.00183692379677369,,
0.991374805923803,-0.0754243918206035,-0.00197611139589871,,
1.00109416676619,-0.0795141818996556,-0.00215283240295472,,
1.01081352760858,-0.0836485070645502,-0.00230835909987759,,
1.02053288845097,-0.0877072603208914,-0.00245314327609503,,
1.03025224929336,-0.0918224859025793,-0.00259666277125525,,
1.03997161013575,-0.0957529597467101,-0.00278142249813529,,
1.04969097097814,-0.0997006966756624,-0.00296501929990534,,
1.05941033182053,-0.103732177930983,-0.00311221654572647,,
1.06912969266292,-0.107619218588302,-0.00326229203119555,,
1.07884905350531,-0.111615898199222,-0.0034065383545494,,
1.0885684143477,-0.115497521186304,-0.00356393845114189,,
1.0982877751901,-0.119415965966012,-0.00371565838539967,,
1.10800713603249,-0.123206774107944,-0.00386329172813715,,
1.11772649687488,-0.127055707423769,-0.0040262593286946,,
1.12744585771727,-0.130819059914842,-0.0041756116201106,,
1.13716521855966,-0.134536867245959,-0.00434369609115315,,
1.14688457940205,-0.138359814109633,-0.00447991823124694,,
1.15660394024444,-0.141976522204643,-0.00463133289766304,,
1.16632330108683,-0.14555989785396,-0.00475524075108247,,
1.17604266192922,-0.14922261023352,-0.00490637740571431,,
1.18576202277161,-0.152867692228582,-0.00509744781838739,,
1.195481383614,-0.156361814056375,-0.0051991020095814,,
1.20520074445639,-0.159846845217161,-0.00535456692610747,,
1.21492010529878,-0.163372922116858,-0.00548610829263296,,
1.22463946614117,-0.166709747857954,-0.00563759564186839,,
1.23435882698356,-0.170071274502332,-0.00577838226301974,,
1.24407818782595,-0.173633622245138,-0.00588204068295806,,
1.25379754866834,-0.176876511093828,-0.00607610562779026,,
1.26351690951073,-0.180285511221464,-0.00617336977669281,,
1.27323627035312,-0.183424086961872,-0.00629881850588321,,
1.28295563119551,-0.186601229168369,-0.00643223508914881,,
1.2926749920379,-0.18988011338541,-0.00659695071151267,,
1.30239435288029,-0.192815939704085,-0.00671878165336803,,
1.31211371372268,-0.195830000853972,-0.00684194995909992,,
1.32183307456507,-0.198773907765542,-0.00691522877760553,,
1.33155243540746,-0.20185628665536,-0.00707805282959484,,
1.34127179624985,-0.204760157902131,-0.00723007439755285,,
1.35099115709224,-0.207559440565862,-0.00732335552795327,,
1.36071051793463,-0.210492603961878,-0.00745322882377364,,
1.37042987877702,-0.213244780442027,-0.00755627670802905,,
1.38014923961941,-0.216084741544991,-0.00767669760318812,,
1.3898686004618,-0.218602213531504,-0.00777845355032891,,
1.39958796130419,-0.221183595661824,-0.00789140446872594,,
1.40930732214658,-0.22372677862573,-0.00801268120408372,,
1.41902668298897,-0.226364724906316,-0.00811757704902183,,
1.42874604383136,-0.228787433576149,-0.00822365035563433,,
1.43846540467375,-0.2312054591751,-0.00834030446367873,,
1.44818476551614,-0.233380240562924,-0.00844180056974064,,
1.45790412635853,-0.235936554490284,-0.00852067596533868,,
1.46762348720092,-0.238141821751303,-0.00864566134155531,,
1.47734284804331,-0.240276200174651,-0.008739216849599,,
1.4870622088857,-0.242426739783789,-0.00884251548958126,,
1.49678156972809,-0.244499044561715,-0.00889175083143368,,
1.50650093057048,-0.246407441858757,-0.00898237177064454,,
1.51622029141287,-0.248351283574634,-0.00907031798210189,,
1.52593965225526,-0.2502516921037,-0.00916669540060822,,
1.53565901309766,-0.252092506260164,-0.00924689362351883,,
1.54537837394005,-0.253868216548871,-0.00932959395248734,,
1.55509773478244,-0.255504812084894,-0.00942927117099357,,
1.56481709562483,-0.257303570428336,-0.00947306983795571,,
1.57453645646722,-0.258989751420761,-0.00955172536802529,,
1.58425581730961,-0.260653251658128,-0.00960715146901858,,
1.593975178152,-0.261869840013443,-0.00970868936770142,,
1.60369453899439,-0.263393674548612,-0.00978082161473104,,
1.61341389983678,-0.264494838980413,-0.00982954817684778,,
1.62313326067917,-0.265823361912309,-0.00990311772663022,,
1.63285262152156,-0.267203306798993,-0.00995002721826221,,
1.64257198236395,-0.268370585172663,-0.00999746002619384,,
1.65229134320634,-0.269613894579483,-0.0100716401116596,,
1.66201070404873,-0.270504228996657,-0.0101181425795032,,
1.67173006489112,-0.271381707925133,-0.0101680756764213,,
1.68144942573351,-0.27244357129149,-0.0102481703263146,,
1.6911687865759,-0.273472744986589,-0.0102693973437162,,
1.70088814741829,-0.274161799180738,-0.0103135576077049,,
1.71060750826068,-0.274857740243832,-0.0103729540077078,,
1.72032686910307,-0.275534398073881,-0.0104027685002199,,
1.73004622994546,-0.275925204930264,-0.01041979081652,,
1.73976559078785,-0.276439791777813,-0.0104780824376678,,
1.74948495163024,-0.276997811812174,-0.010486033938109,,
1.75920431247263,-0.277399545833949,-0.0105257623671853,,
1.76892367331502,-0.277677958989155,-0.0105582806605788,,
1.77864303415741,-0.277937731685749,-0.0105617694359093,,
1.7883623949998,-0.278296124345633,-0.0105777741927384,,
1.79808175584219,-0.278195116934443,-0.0106299168473658,,
1.80780111668458,-0.278371879904025,-0.0106509076456049,,
1.81752047752697,-0.278262057300586,-0.010607428783048,,
1.82723983836936,-0.27848087608319,-0.0106521868632261,,
1.83695919921175,-0.278293185948216,-0.0106725943818393,,
1.84667856005414,-0.278012568994949,-0.0106844707545268,,
1.85639792089653,-0.277699354195343,-0.0106778438984692,,
1.86611728173892,-0.277500185945462,-0.0106635108464865,,
1.87583664258131,-0.277113786685203,-0.0106537404584905,,
1.8855560034237,-0.276621972417631,-0.0106741661478083,,
1.89527536426609,-0.276177447983479,-0.0106872327016636,,
1.90499472510848,-0.27546598850903,-0.0106676246940638,,
1.91471408595087,-0.274792820025913,-0.0106403250271021,,
1.92443344679326,-0.274155830560986,-0.010630598248798,,
1.93415280763565,-0.273389367959898,-0.0106337399636658,,
1.94387216847804,-0.272653299407086,-0.0105891127125624,,
1.95359152932043,-0.2714730737198,-0.0105835452085974,,
1.96331089016282,-0.270695224828724,-0.0105453576552921,,
1.97303025100521,-0.269596264194985,-0.0105349494755558,,
1.98274961184761,-0.268482978873841,-0.0105037830826031,,
1.99246897269,-0.267226813978324,-0.0104811787257737,,
2.00218833353239,-0.266193967286454,-0.0104329027971373,,
2.01190769437478,-0.264733951070174,-0.010398131336343,,
2.02162705521717,-0.263478153474334,-0.0103871707671797,,
2.03134641605956,-0.26215550733727,-0.0103178749671766,,
2.04106577690195,-0.260668310944888,-0.0102716923037387,,
2.05078513774434,-0.259185613973549,-0.0102417015553891,,
2.06050449858673,-0.257669676381437,-0.0101597880179409,,
2.07022385942912,-0.255893506968134,-0.0101382757204731,,
2.07994322027151,-0.25414112020892,-0.0100686891891923,,
2.0896625811139,-0.252435931458207,-0.0100147876103356,,
2.09938194195629,-0.25054690921913,-0.00998556911694237,,
2.10910130279868,-0.248707839736132,-0.0099457243953549,,
2.11882066364107,-0.246655460965686,-0.00981381961473238,,
2.12854002448346,-0.244752481338881,-0.00980602983356471,,
2.13825938532585,-0.242620674013272,-0.00970572390867064,,
2.14797874616824,-0.240595016294332,-0.0096823363944627,,
2.15769810701063,-0.238333919482401,-0.00958383482055947,,
2.16741746785302,-0.236055284110891,-0.00950847909049024,,
2.17713682869541,-0.233791248901544,-0.00941518524059637,,
2.1868561895378,-0.231406280273528,-0.00935498751251052,,
2.19657555038019,-0.22904647167339,-0.00924804019499481,,
2.20629491122258,-0.226586206611578,-0.00918818044201863,,
2.21601427206497,-0.22408553858529,-0.00910335959179465,,
2.22573363290736,-0.221517838367941,-0.00904088144025028,,
2.23545299374975,-0.21891294905829,-0.00896436096800057,,
2.24517235459214,-0.21623680361129,-0.00884777954277505,,
2.25489171543453,-0.213544496978501,-0.00874230041821145,,
2.26461107627692,-0.210826112068641,-0.00866732082173227,,
2.27433043711931,-0.208015902239518,-0.00856392224287328,,
2.2840497979617,-0.205117265013145,-0.00849442293097624,,
2.29376915880409,-0.202175010950122,-0.00835761932832702,,
2.30348851964648,-0.199156909503787,-0.00824160301202292,,
2.31320788048887,-0.196152489970423,-0.00813529530331758,,
2.32292724133126,-0.193147611312463,-0.00803092640882008,,
2.33264660217365,-0.190133182862899,-0.00796215392511668,,
2.34236596301604,-0.186938410271903,-0.00781274348744532,,
2.35208532385843,-0.183858694304743,-0.0077359777106798,,
2.36180468470082,-0.180507268401484,-0.00759006149955033,,
2.37152404554321,-0.177123428301726,-0.00746026270361977,,
2.3812434063856,-0.173851155478872,-0.00738185066099506,,
2.39096276722799,-0.170624795115649,-0.0072278375837862,,
2.40068212807038,-0.167182554367239,-0.00713180904281296,,
2.41040148891277,-0.163770615842186,-0.0069834797620798,,
2.42012084975517,-0.160252619535384,-0.00686519392473972,,
2.42984021059756,-0.156755559310174,-0.00673686513883132,,
2.43955957143995,-0.153368597163161,-0.00660404455468466,,
2.44927893228234,-0.149682102129512,-0.00648286957527455,,
2.45899829312473,-0.146017185951889,-0.00633177471326363,,
2.46871765396712,-0.142397447634544,-0.00623374012647515,,
2.47843701480951,-0.13870535128082,-0.00609434901545614,,
2.4881563756519,-0.134907839919782,-0.00594126446126486,,
2.49787573649429,-0.131190308063422,-0.00582194834495997,,
2.50759509733668,-0.127446146980475,-0.00565232118107639,,
2.51731445817907,-0.123605202432626,-0.00552602751411069,,
2.52703381902146,-0.119768849130739,-0.00540691490970024,,
2.53675317986385,-0.115972806968409,-0.00523689525859172,,
2.54647254070624,-0.112017356746239,-0.0050899015246646,,
2.55619190154863,-0.108117001475626,-0.00495240016694964,,
2.56591126239102,-0.104194149099794,-0.0048016559995423,,
2.57563062323341,-0.100248707793824,-0.00467011463301725,,
2.5853499840758,-0.0962381626200955,-0.00450614037541097,,
2.59506934491819,-0.0922485535279593,-0.00435882865414916,,
2.60478870576058,-0.0880841097895465,-0.00422124189412143,,
2.61450806660297,-0.0840705343934826,-0.00407261824796956,,
2.62422742744536,-0.0799711945228272,-0.00389178339333673,,
2.63394678828775,-0.0758276868660063,-0.00376881859949885,,
2.64366614913014,-0.0718094283990601,-0.00361639000775238,,
2.65338550997253,-0.0675998986252891,-0.00345267740829591,,
2.66310487081492,-0.0634970694077017,-0.00332745944705737,,
2.67282423165731,-0.0592180281700487,-0.00314922845442833,,
2.6825435924997,-0.0550678172941216,-0.00297551469902491,,
2.69226295334209,-0.0509306455567299,-0.00281083178392949,,
2.70198231418448,-0.046631035537162,-0.00268178888932047,,
2.71170167502687,-0.0424461148417535,-0.00248515278975292,,
2.72142103586926,-0.038229055424603,-0.00233099252983449,,
2.73114039671165,-0.0339871114543323,-0.0021974451174942,,
2.74085975755404,-0.0297429636859992,-0.00206240043907435,,
2.75057911839643,-0.0254690646438249,-0.00185660630426376,,
2.76029847923882,-0.0212792772276955,-0.00168503124082031,,
2.77001784008121,-0.0170024397881048,-0.00153844453068208,,
2.7797372009236,-0.0126819855118642,-0.00136316446052032,,
2.78945656176599,-0.00838779316253286,-0.00122872850071287,,
2.79917592260838,-0.004166417974177,-0.00106148533330508,,
2.80889528345077,0.000100135074456236,-0.000889386953561999,,
2.81861464429316,0.00448197430922409,-0.000729279421947115,,
2.82833400513555,0.0087588576612744,-0.000569916889231248,,
2.83805336597794,0.0129666427615794,-0.000410656112462604,,
2.84777272682034,0.0172989424524048,-0.000254880476883379,,
2.85749208766273,0.0215530073120183,-8.48026795190471E-05,,
2.86721144850512,0.0257887071877792,7.63605700471182E-05,,
2.87693080934751,0.0300405682493304,0.000265455827103356,,
2.8866501701899,0.0342472514506042,0.000418554917859026,,
2.89636953103229,0.0385119680008521,0.000579576435927542,,
2.90608889187468,0.0428167661283584,0.000748825649150575,,
2.91580825271707,0.0469591259736885,0.000931840988365185,,
2.92552761355946,0.0511503825885261,0.0010761309214109,,
2.93524697440185,0.0553052765353356,0.00123921663155002,,
2.94496633524424,0.0595068634535903,0.00138179125005822,,
2.95468569608663,0.0637520672084949,0.00154582547099036,,
2.96440505692902,0.0678845558750042,0.00172825571350899,,
2.97412441777141,0.0719737031796215,0.00186017503069502,,
2.9838437786138,0.0761039421356089,0.00203779367057066,,
2.99356313945619,0.0802192136297564,0.0021909981514141,,
3.00328250029858,0.0842558370805553,0.00233863149415159,,
3.01300186114097,0.0883504479678686,0.00250016179195578,,
3.02272122198336,0.0924576847815806,0.00267278348799849,,
3.03244058282575,0.0964839320165028,0.00281307586597768,,
3.04215994366814,0.100468812125297,0.00302194811818923,,
3.05187930451053,0.104467971009036,0.003165064223702,,
3.06159866535292,0.108406158146385,0.00329594781071174,,
3.07131802619531,0.112291454130239,0.0034625731741551,,
3.0810373870377,0.116316737203509,0.0036041447697559,,
3.09075674788009,0.120152401818501,0.00377455327394793,,
3.10047610872248,0.123910612114094,0.00394661894642212,,
3.11019546956487,0.127747470453037,0.00408701671448997,,
3.11991483040726,0.131486902552641,0.00422101476031056,,
3.12963419124965,0.135312695988812,0.00434960883850977,,
3.13935355209204,0.139031651131421,0.0045169501277238,,
3.14907291293443,0.142780633022628,0.00466801409953632,,
3.15879227377682,0.14626997995462,0.00482673520637134,,
3.16851163461921,0.150009090667007,0.0049613038123244,,
3.1782309954616,0.153511339000155,0.00510701832862992,,
3.18795035630399,0.157164088375975,0.00524071110660929,,
3.19766971714638,0.160666612183881,0.00539626687665962,,
3.20738907798877,0.164085529402798,0.00553878334891245,,
3.21710843883116,0.167515695174325,0.00566955791169343,,
3.22682779967355,0.170911334776209,0.00581567581764686,,
3.23654716051594,0.174319508479572,0.00592363887756298,,
3.24626652135833,0.177502206093685,0.00608354108021292,,
3.25598588220072,0.180738116248511,0.00617291550907151,,
3.26570524304311,0.184040507644884,0.00633364629586231,,
3.2754246038855,0.187147174225847,0.00648165395511979,,
3.2851439647279,0.190434093123324,0.00662172828464103,,
3.29486332557029,0.1934195048984,0.00672864471195833,,
3.30458268641268,0.196495639693709,0.00686625872804347,,
