Time domain (s),Current (AC) (A),Potential (AC) (V),Frequency (Hz),Column 5
0,0.364274322986603,0.0128622831852154,0.79433,0.425
0.00307354153815165,0.366247415542603,0.0129377930185264,,
0.0061470830763033,0.368001341819763,0.0130022731075328,,
0.00922062461445495,0.369782745838165,0.0131002548923931,,
0.0122941661526066,0.371733963489532,0.0131880221538214,,
0.0153677076907583,0.373251795768738,0.013232553593979,,
0.0184412492289099,0.374882519245148,0.0133003722065586,,
0.0215147907670615,0.376185655593872,0.0134143090284935,,
0.0245883323052132,0.377629101276398,0.0134975634600925,,
0.0276618738433649,0.378863155841827,0.0135387466716668,,
0.0307354153815165,0.380020439624786,0.0136013828086998,,
0.0338089569196681,0.381034672260284,0.0136770818897132,,
0.0368824984578198,0.382077932357788,0.0137200944957452,,
0.0399560399959715,0.383044600486755,0.013795483016426,,
0.0430295815341231,0.383860409259796,0.0138387091326866,,
0.0461031230722748,0.384588062763214,0.0139021799006129,,
0.0491766646104264,0.385313332080841,0.0139055912117638,,
0.052250206148578,0.385791182518005,0.0139622733249252,,
0.0553237476867297,0.386358082294464,0.0140223618967319,,
0.0583972892248813,0.386619925498962,0.0140309071583768,,
0.061470830763033,0.386983752250671,0.0140587605381857,,
0.0645443723011846,0.387022316455841,0.0140779764587506,,
0.0676179138393363,0.387206852436066,0.0141158842293194,,
0.0706914553774879,0.387088596820831,0.0141570092108312,,
0.0737649969156396,0.387317538261414,0.014177976885771,,
0.0768385384537913,0.386862635612488,0.01416363288042,,
0.0799120799919429,0.386801600456238,0.0141799567078897,,
0.0829856215300945,0.386259377002716,0.0142037485408517,,
0.0860591630682462,0.385875046253204,0.0141971151662528,,
0.0891327046063978,0.385401546955109,0.0142262447549273,,
0.0922062461445495,0.384710133075714,0.0142044084815582,,
0.0952797876827012,0.383976757526398,0.0141866483125512,,
0.0983533292208528,0.383117020130157,0.0141691792938556,,
0.101426870759004,0.382270574569702,0.0141746189521772,,
0.104500412297156,0.381367981433868,0.0141918113780766,,
0.107573953835308,0.380287945270538,0.0141288113031539,,
0.110647495373459,0.379051983356476,0.0141265209207027,,
0.113721036911611,0.377834558486938,0.0141017925542384,,
0.116794578449763,0.37633353471756,0.0140834889046499,,
0.119868119987914,0.375054657459259,0.0140307518782108,,
0.122941661526066,0.37356024980545,0.0140022579677166,,
0.126015203064218,0.371918022632599,0.0139678197383608,,
0.129088744602369,0.370164275169373,0.013913102889803,,
0.132162286140521,0.36862450838089,0.013899617777871,,
0.135235827678673,0.366648972034454,0.0138532472382455,,
0.138309369216824,0.364639580249786,0.013773957303389,,
0.141382910754976,0.362603962421417,0.0137368065236303,,
0.144456452293128,0.360506355762482,0.0136592877531698,,
0.147529993831279,0.358306705951691,0.0136017904191363,,
0.150603535369431,0.355824828147888,0.0135411146942013,,
0.153677076907583,0.353486835956573,0.0134622711898227,,
0.156750618445734,0.351025402545929,0.0134087577625528,,
0.159824159983886,0.348536729812622,0.0133396386785813,,
0.162897701522037,0.345836937427521,0.0132348439764303,,
0.165971243060189,0.343159019947052,0.013193107579264,,
0.169044784598341,0.340417265892029,0.0130873666386,,
0.172118326136492,0.337598145008087,0.0130348431223895,,
0.175191867674644,0.334677517414093,0.0129155491347208,,
0.178265409212796,0.331660985946655,0.0128224732326112,,
0.181338950750947,0.328435719013214,0.0127435957606963,,
0.184412492289099,0.325329601764679,0.0126358507353874,,
0.187486033827251,0.322074770927429,0.0125548721287241,,
0.190559575365402,0.318782567977905,0.0124331907085007,,
0.193633116903554,0.315172493457794,0.0123421383010567,,
0.196706658441706,0.311881363391876,0.0122124017222123,,
0.199780199979857,0.308281302452087,0.0121216986951422,,
0.202853741518009,0.304737448692322,0.0120092224772699,,
0.205927283056161,0.300910294055939,0.0118878079448321,,
0.209000824594312,0.297178089618683,0.0117601288281901,,
0.212074366132464,0.293435871601105,0.0116239093024078,,
0.215147907670616,0.28938615322113,0.011500131599941,,
0.218221449208767,0.285533249378204,0.0113827786143497,,
0.221294990746919,0.281423389911652,0.011233903755024,,
0.22436853228507,0.277366995811462,0.0110913953825116,,
0.227442073823222,0.273098707199097,0.0109691704817063,,
0.230515615361374,0.268939316272736,0.0108393222952428,,
0.233589156899525,0.264602482318878,0.0106966732000799,,
0.236662698437677,0.260240435600281,0.010554159975062,,
0.239736239975829,0.255898296833038,0.0104117923252005,,
0.24280978151398,0.251241505146027,0.0102782659398004,,
0.245883323052132,0.246836960315704,0.0100806379607987,,
0.248956864590284,0.242177844047546,0.00992935625889713,,
0.252030406128435,0.237435162067413,0.00978731372688335,,
0.255103947666587,0.232727348804474,0.00963922012089347,,
0.258177489204739,0.228007137775421,0.00946501518445952,,
0.26125103074289,0.223183929920197,0.00928489989669989,,
0.264324572281042,0.218322098255157,0.0091476953123637,,
0.267398113819194,0.213451206684113,0.00896363008537726,,
0.270471655357345,0.208406686782837,0.00881190195299775,,
0.273545196895497,0.20331221818924,0.008619800977411,,
0.276618738433648,0.198222935199738,0.00846353090017082,,
0.2796922799718,0.193094551563263,0.00827185694504129,,
0.282765821509952,0.187902271747589,0.00810746862661293,,
0.285839363048103,0.182779133319855,0.00794568610347346,,
0.288912904586255,0.177465736865997,0.00774914023313,,
0.291986446124407,0.172106087207794,0.00755145402406621,,
0.295059987662558,0.166759788990021,0.00737975298031168,,
0.29813352920071,0.161398231983185,0.00718540044231553,,
0.301207070738862,0.155976593494415,0.00700174282576516,,
0.304280612277013,0.150481522083282,0.00680430409446631,,
0.307354153815165,0.144976913928986,0.00661617732063302,,
0.310427695353317,0.139475643634796,0.00641992260060142,,
0.313501236891468,0.133892416954041,0.00622365332305375,,
0.31657477842962,0.128269970417023,0.00603929694575589,,
0.319648319967772,0.122614204883575,0.0058210167046524,,
0.322721861505923,0.117037057876587,0.00563440876494425,,
0.325795403044075,0.111315071582794,0.0054404201648377,,
0.328868944582227,0.105573952198029,0.00525695664849524,,
0.331942486120378,0.0998227596282959,0.00501442843894129,,
0.33501602765853,0.0940988659858704,0.00480596481584383,,
0.338089569196681,0.0883477330207825,0.0046220160489816,,
0.341163110734833,0.0825021862983704,0.00441124263341219,,
0.344236652272985,0.0766356587409973,0.00421603605450205,,
0.347310193811136,0.0708344578742981,0.00400050233133786,,
0.350383735349288,0.0649197697639465,0.00378206681006787,,
0.35345727688744,0.0591014623641968,0.00359081987539556,,
0.356530818425591,0.0532171726226807,0.00337203012124698,,
0.359604359963743,0.0473564267158508,0.00316178562874292,,
0.362677901501895,0.0414327383041382,0.00296383738439898,,
0.365751443040046,0.0355513095855713,0.00274096667338286,,
0.368824984578198,0.0296013951301575,0.00252186635890173,,
0.37189852611635,0.0237349271774292,0.00231022434490225,,
0.374972067654501,0.0177152752876282,0.0020876302266819,,
0.378045609192653,0.0117467045783997,0.00188268466984942,,
0.381119150730805,0.00588256120681763,0.00163209644916984,,
0.384192692268956,-9.1254711151123E-05,0.00142666078931253,,
0.387266233807108,-0.00607270002365112,0.00121604265390918,,
0.39033977534526,-0.0120177865028381,0.00102157365578837,,
0.393413316883411,-0.0179993510246277,0.00080189589318902,,
0.396486858421563,-0.0240413546562195,0.000556087390124915,,
0.399560399959714,-0.0299221873283386,0.000358037243171516,,
0.402633941497866,-0.0357887148857117,0.000145812928549205,,
0.405707483036018,-0.0417782664299011,-8.79419516155444E-05,,
0.408781024574169,-0.0476109385490417,-0.000313001142473901,,
0.411854566112321,-0.0535890460014343,-0.000532936087847879,,
0.414928107650473,-0.0594789385795593,-0.000734645023717118,,
0.418001649188624,-0.0652758479118347,-0.000936780980042684,,
0.421075190726776,-0.0712242722511292,-0.0011740296639462,,
0.424148732264928,-0.0769945979118347,-0.00139082018595582,,
0.427222273803079,-0.0828598141670227,-0.00162789417967213,,
0.430295815341231,-0.0886594653129578,-0.00179420166390454,,
0.433369356879383,-0.0944516062736511,-0.00203072975078689,,
0.436442898417534,-0.100208938121796,-0.00226060020054408,,
0.439516439955686,-0.105941951274872,-0.00248795220010622,,
0.442589981493838,-0.111647307872772,-0.00271374897175392,,
0.445663523031989,-0.117345035076141,-0.00289560145637235,,
0.448737064570141,-0.123009383678436,-0.00309335074800376,,
0.451810606108293,-0.128572165966034,-0.00333238515381851,,
0.454884147646444,-0.134178817272186,-0.00355573626284889,,
0.457957689184596,-0.139784395694733,-0.00373040703978145,,
0.461031230722747,-0.145224750041962,-0.00394137455555876,,
0.464104772260899,-0.150729835033417,-0.00416660843660432,,
0.467178313799051,-0.156175792217255,-0.00436231967605449,,
0.470251855337202,-0.161685645580292,-0.00457060860896519,,
0.473325396875354,-0.167073905467987,-0.00476080740251605,,
0.476398938413506,-0.172350704669952,-0.00497587285892909,,
0.479472479951657,-0.177667796611786,-0.00516599158614417,,
0.482546021489809,-0.182934939861298,-0.00540644292347503,,
0.485619563027961,-0.18807715177536,-0.00557738697641952,,
0.488693104566112,-0.193206489086151,-0.0057956550862599,,
0.491766646104264,-0.198448836803436,-0.00600246643133939,,
0.494840187642416,-0.203491389751434,-0.00620194321481948,,
0.497913729180567,-0.208580195903778,-0.0063968416596496,,
0.500987270718719,-0.213517367839813,-0.00657346799617509,,
0.504060812256871,-0.218411147594452,-0.00674346338435416,,
0.507134353795022,-0.223288714885712,-0.00697687131039748,,
0.510207895333174,-0.228147566318512,-0.00714789057717224,,
0.513281436871326,-0.232906877994537,-0.00734173845462838,,
0.516354978409477,-0.237565696239471,-0.00750544256982444,,
0.519428519947629,-0.242321670055389,-0.00771439144344166,,
0.52250206148578,-0.246944606304169,-0.00787683390728766,,
0.525575603023932,-0.251354873180389,-0.00805773530088816,,
0.528649144562084,-0.25588196516037,-0.00821819794261547,,
0.531722686100235,-0.260233104228973,-0.00840810558585448,,
0.534796227638387,-0.264737784862518,-0.00860430207582397,,
0.537869769176539,-0.268974959850311,-0.00876168095050067,,
0.54094331071469,-0.273215472698212,-0.00895174144765365,,
0.544016852252842,-0.277473628520966,-0.00910630344306584,,
0.547090393790994,-0.281481921672821,-0.0092805641833098,,
0.550163935329145,-0.285657584667206,-0.00943641209259827,,
0.553237476867297,-0.289580047130585,-0.00957775343761158,,
0.556311018405449,-0.293311774730682,-0.00975411288635142,,
0.5593845599436,-0.297344028949738,-0.00992520979320943,,
0.562458101481752,-0.301112830638886,-0.0100608106245792,,
0.565531643019904,-0.304672539234161,-0.0102504489537805,,
0.568605184558055,-0.308305442333221,-0.0103692164446354,,
0.571678726096207,-0.311939418315887,-0.0105227084626525,,
0.574752267634358,-0.315408885478973,-0.0106799344834156,,
0.57782580917251,-0.318729102611542,-0.0108145793712628,,
0.580899350710662,-0.322125613689423,-0.0109637647909211,,
0.583972892248813,-0.325346648693085,-0.0110945689209077,,
0.587046433786965,-0.328459084033966,-0.0112258364651399,,
0.590119975325117,-0.331599414348602,-0.0113575552923555,,
0.593193516863268,-0.334713637828827,-0.0114790426123714,,
0.59626705840142,-0.337494075298309,-0.0116064888087641,,
0.599340599939572,-0.340497195720673,-0.0117437928694568,,
0.602414141477723,-0.343280494213104,-0.0118602942403867,,
0.605487683015875,-0.345928370952606,-0.0120048018450389,,
0.608561224554027,-0.348631918430328,-0.0121072673446974,,
0.611634766092178,-0.351158797740936,-0.0122127996276382,,
0.61470830763033,-0.353571951389313,-0.0123124894943261,,
0.617781849168482,-0.355850875377655,-0.0124429830639805,,
0.620855390706633,-0.358194053173065,-0.0125456620738675,,
0.623928932244785,-0.360301196575165,-0.0126544746503185,,
0.627002473782937,-0.362607181072235,-0.0127305037016847,,
0.630076015321088,-0.364617526531219,-0.012833163301551,,
0.63314955685924,-0.366645038127899,-0.0129272824922775,,
0.636223098397392,-0.368341624736786,-0.0130107819753889,,
0.639296639935543,-0.370208442211151,-0.0130948297915867,,
0.642370181473695,-0.372002780437469,-0.0131708588429529,,
0.645443723011846,-0.373477160930634,-0.0132471402245895,,
0.648517264549998,-0.375017821788788,-0.0133946952025026,,
0.65159080608815,-0.376458346843719,-0.0134405610815884,,
0.654664347626301,-0.377895534038544,-0.0135209185675871,,
0.657737889164453,-0.378889262676239,-0.0135315164389289,,
0.660811430702605,-0.380108535289764,-0.0136327785172994,,
0.663884972240756,-0.381255805492401,-0.0136724525997587,,
0.666958513778908,-0.38224858045578,-0.0137376678433019,,
0.67003205531706,-0.383158385753632,-0.0137745298990017,,
0.673105596855211,-0.383875072002411,-0.0138424091678964,,
0.676179138393363,-0.384584486484528,-0.0138986788181161,,
0.679252679931515,-0.385278403759003,-0.0139369723628477,,
0.682326221469666,-0.385736048221588,-0.0140058391165487,,
0.685399763007818,-0.38616281747818,-0.0140422717255388,,
0.68847330454597,-0.386541426181793,-0.014080276546212,,
0.691546846084121,-0.386911451816559,-0.0140928154196307,,
0.694620387622273,-0.387066066265106,-0.0141127883310057,,
0.697693929160425,-0.387079775333405,-0.0141291121584759,,
0.700767470698576,-0.387086451053619,-0.0141559756272249,,
0.703841012236728,-0.387098848819733,-0.0141615463031868,,
0.706914553774879,-0.386955797672272,-0.01421187648705,,
0.709988095313031,-0.386570632457733,-0.0141954167894349,,
0.713061636851183,-0.386215388774872,-0.014226317542505,,
0.716135178389334,-0.385655581951141,-0.0142264340026297,,
0.719208719927486,-0.385184347629547,-0.0142319852685704,,
0.722282261465638,-0.384539306163788,-0.0142246871007599,,
0.725355803003789,-0.383842051029205,-0.0142382158852383,,
0.728429344541941,-0.383162677288055,-0.0142152344206439,,
0.731502886080093,-0.382085978984833,-0.014196329060411,,
0.734576427618244,-0.380990207195282,-0.0141890503026216,,
0.737649969156396,-0.379867732524872,-0.0141783942012172,,
0.740723510694548,-0.378646075725555,-0.0141427768130997,,
0.743797052232699,-0.377372801303864,-0.0141157192441428,,
0.746870593770851,-0.375993430614471,-0.0140926431556965,,
0.749944135309003,-0.37478369474411,-0.0140606724252317,,
0.753017676847154,-0.373225867748261,-0.0140393214023815,,
0.756091218385306,-0.37144547700882,-0.0140042887411398,,
0.759164759923458,-0.369686782360077,-0.0139212526722745,,
0.762238301461609,-0.367941081523895,-0.0138899054887269,,
0.765311842999761,-0.366057097911835,-0.013866419363592,,
0.768385384537913,-0.36415833234787,-0.0137995469895249,,
0.771458926076064,-0.361939132213593,-0.0137580702013866,,
0.774532467614216,-0.359921157360077,-0.0136792242707555,,
0.777606009152367,-0.35773378610611,-0.0136417653569172,,
0.780679550690519,-0.355344355106354,-0.0135695988996845,,
0.783753092228671,-0.353000819683075,-0.0134970248320156,,
0.786826633766822,-0.35058456659317,-0.0134522459140936,,
0.789900175304974,-0.347881972789764,-0.0133557198807912,,
0.792973716843126,-0.345306575298309,-0.0132652910202644,,
0.796047258381277,-0.342476069927216,-0.0132123574673648,,
0.799120799919429,-0.339755713939667,-0.0131109595188486,,
0.802194341457581,-0.336869418621063,-0.0130296315318117,,
0.805267882995732,-0.333995521068573,-0.0129211683357342,,
0.808341424533884,-0.330875098705292,-0.0128932179058219,,
0.811414966072036,-0.327794253826141,-0.0127612491745888,,
0.814488507610187,-0.324540317058563,-0.0126468659221759,,
0.817562049148339,-0.321199119091034,-0.0125417606596923,,
0.820635590686491,-0.317963302135468,-0.0124528627645537,,
0.823709132224642,-0.314583003520966,-0.0123358591593363,,
0.826782673762794,-0.310925185680389,-0.012229628115648,,
0.829856215300945,-0.307509124279022,-0.0121299770690011,,
0.832929756839097,-0.303785026073456,-0.0119920130676023,,
0.836003298377249,-0.300043284893036,-0.0118963580589821,,
0.8390768399154,-0.296376407146454,-0.0117626036058383,,
0.842150381453552,-0.292523086071014,-0.0116245789481244,,
0.845223922991704,-0.288595855236053,-0.0115275288442613,,
0.848297464529855,-0.284534633159637,-0.0113855081485208,,
0.851371006068007,-0.280502498149872,-0.0112482744491533,,
0.854444547606159,-0.276470482349396,-0.0111072630744928,,
0.85751808914431,-0.272212684154511,-0.0109912687903555,,
0.860591630682462,-0.267922699451447,-0.0108283216659699,,
0.863665172220614,-0.263640582561493,-0.0106916168896682,,
0.866738713758765,-0.259151518344879,-0.0105528546511651,,
0.869812255296917,-0.254731833934784,-0.0104000977876844,,
0.872885796835069,-0.250225245952606,-0.0102503130836351,,
0.87595933837322,-0.245871245861053,-0.0101193706572502,,
0.879032879911372,-0.241175353527069,-0.009947902533745,,
0.882106421449524,-0.236484825611115,-0.00977284355639707,,
0.885179962987675,-0.231753885746002,-0.00961597176851292,,
0.888253504525827,-0.226977050304413,-0.0094300237695113,,
0.891327046063979,-0.222128093242645,-0.00929822972846539,,
0.89440058760213,-0.217064559459686,-0.00914518171467327,,
0.897474129140282,-0.21227902173996,-0.00896363979038695,,
0.900547670678433,-0.207395732402802,-0.00879587898084955,,
0.903621212216585,-0.202203333377838,-0.00861584861193121,,
0.906694753754737,-0.197153747081757,-0.00845435966535568,,
0.909768295292888,-0.192047297954559,-0.0082650149127188,,
0.91284183683104,-0.186947524547577,-0.00809907621888106,,
0.915915378369192,-0.181661307811737,-0.00789309950469486,,
0.918988919907343,-0.176432907581329,-0.00771633244551895,,
0.922062461445495,-0.171063601970673,-0.00753370356006933,,
0.925136002983647,-0.165723025798798,-0.00734907544248031,,
0.928209544521798,-0.160301387310028,-0.00716623304680253,,
0.93128308605995,-0.154938399791718,-0.00697207703526681,,
0.934356627598102,-0.149416148662567,-0.00677898372236818,,
0.937430169136253,-0.143921554088593,-0.00660229430327508,,
0.940503710674405,-0.138331115245819,-0.00637956674116236,,
0.943577252212557,-0.132810175418854,-0.00620095087750761,,
0.946650793750708,-0.127322375774384,-0.00599856501716411,,
0.94972433528886,-0.121649444103241,-0.00580894852423652,,
0.952797876827011,-0.11596554517746,-0.00558268591209021,,
0.955871418365163,-0.110273659229279,-0.00541824178985229,,
0.958944959903315,-0.10454660654068,-0.00520692974620607,,
0.962018501441466,-0.0988703370094299,-0.00501395531968463,,
0.965092042979618,-0.0930144190788269,-0.00479304744701903,,
0.96816558451777,-0.0873348116874695,-0.00456616371420848,,
0.971239126055921,-0.0814434885978699,-0.00438452716607074,,
0.974312667594073,-0.0756580233573914,-0.00416990571388309,,
0.977386209132225,-0.0697957873344421,-0.00397153772783954,,
0.980459750670376,-0.0639302134513855,-0.00373335978919132,,
0.983533292208528,-0.0580560564994812,-0.00354006994983269,,
0.98660683374668,-0.0522014498710632,-0.00330833613808101,,
0.989680375284831,-0.0462732911109924,-0.00309723517841087,,
0.992753916822983,-0.0404173731803894,-0.00287723957672181,,
0.995827458361135,-0.034430205821991,-0.00266883418368602,,
0.998900999899286,-0.0285150408744812,-0.0024730064841112,,
1.00197454143744,-0.0225870013237,-0.00222380122741184,,
1.00504808297559,-0.0166266560554504,-0.00203787263843136,,
1.00812162451374,-0.0106417536735535,-0.00181242524715719,,
1.01119516605189,-0.00466650724411011,-0.00159338073648607,,
1.01426870759004,0.00127720832824707,-0.00136985736352102,,
1.0173422491282,0.00721102952957153,-0.00117255450236753,,
1.02041579066635,0.0131648182868958,-0.000924300336686112,,
1.0234893322045,0.0191905498504639,-0.000701861498631828,,
1.02656287374265,0.0251124501228333,-0.000486759648429924,,
1.0296364152808,0.0310037732124329,-0.000293377611472412,,
1.03270995681895,0.0369394421577454,-8.22742255497388E-05,,
1.03578349835711,0.0428441166877747,0.000156391389870336,,
1.03885703989526,0.0487216114997864,0.000371959080570861,,
