Time domain (s),Current (AC) (A),Potential (AC) (V),Frequency (Hz),Column 5
0,0.0532250040150329,0.00163151400199535,0.63096,0.1
0.00386935186065678,0.0544045958154391,0.00166660641534344,,
0.00773870372131355,0.0555869199324558,0.00170955024139507,,
0.0116080555819703,0.0567659718140108,0.00176111712812244,,
0.0154774074426271,0.057974735593558,0.00183163647616258,,
0.0193467593032839,0.0591123118906361,0.00187373697109638,,
0.0232161111639407,0.0602573161622123,0.00190891933976411,,
0.0270854630245974,0.0614028603526397,0.00193637820094761,,
0.0309548148852542,0.0625494516584147,0.0019856568492429,,
0.034824166745911,0.0636150224141585,0.00204153456353229,,
0.0386935186065678,0.0646425043491282,0.00206342884489308,,
0.0425628704672245,0.0657448550314612,0.00209115054427489,,
0.0464322223278813,0.0668101803695453,0.00213123969449391,,
0.0503015741885381,0.0678550542359939,0.00220150463764668,,
0.0541709260491949,0.0688058349717416,0.00222216062781611,,
0.0580402779098517,0.0698337095749667,0.00227629686334829,,
0.0619096297705084,0.070840641871237,0.00232409687108426,,
0.0657789816311652,0.0717478364306351,0.00235022186355049,,
0.069648333491822,0.0727991402397659,0.00237508467044423,,
0.0735176853524788,0.0736279320375019,0.00242396414201096,,
0.0773870372131355,0.0745488699858391,0.00244069583138051,,
0.0812563890737923,0.0754534631180451,0.00250107974494096,,
0.0851257409344491,0.0763732067004388,0.00251296368593712,,
0.0889950927951059,0.077245715563943,0.00255295023087054,,
0.0928644446557626,0.0780870563846746,0.00261855576959924,,
0.0967337965164194,0.0788746180155934,0.00264103757163836,,
0.100603148377076,0.0796534264166522,0.00267139186965837,,
0.104472500237733,0.0805322343334201,0.00270989836848035,,
0.10834185209839,0.0812884970321479,0.00270716457010822,,
0.112211203959047,0.0819574728499352,0.00274449743312521,,
0.116080555819703,0.0828167618821741,0.00280254672504165,,
0.11994990768036,0.0834650408106662,0.0028329628673438,,
0.123819259541017,0.0840515726559963,0.00285616571748815,,
0.127688611401674,0.0848650503917717,0.00289018569476562,,
0.13155796326233,0.0855355968825805,0.00292669630994302,,
0.135427315122987,0.086115306116973,0.00295404272697741,,
0.139296666983644,0.0866677903523242,0.00298820888164864,,
0.143166018844301,0.0873082322768856,0.00297111877655398,,
0.147035370704958,0.0878752452376867,0.00300149978005937,,
0.150904722565614,0.0884713320105649,0.00303414793871903,,
0.154774074426271,0.0890092875204662,0.00306151122237575,,
0.158643426286928,0.089471834364153,0.00309547497757867,,
0.162512778147585,0.0899540309817871,0.00312969032656474,,
0.166382130008241,0.0904650232714842,0.00312157888676712,,
0.170251481868898,0.0909368632638821,0.0031520498455917,,
0.174120833729555,0.0913099144676917,0.00316535901617687,,
0.177990185590212,0.0916661791035829,0.00318840444451274,,
0.181859537450869,0.0921565072263393,0.00318617805036236,,
0.185728889311525,0.092471688946009,0.00324774684414253,,
0.189598241172182,0.0927841219878909,0.00324489076275825,,
0.193467593032839,0.0931339894034545,0.00326982103614126,,
0.197336944893496,0.093472076771356,0.00327511575000727,,
0.201206296754152,0.0936931489991475,0.00329417081660566,,
0.205075648614809,0.0938948495930059,0.00331596108712828,,
0.208945000475466,0.0940814979037405,0.0032938714340589,,
0.212814352336123,0.0943952398398071,0.00332959634574515,,
0.21668370419678,0.0946414428359444,0.00335770597744123,,
0.220553056057436,0.0947762589369659,0.00337109807558589,,
0.224422407918093,0.0948237554346923,0.00337716443742409,,
0.22829175977875,0.0950385613315747,0.00339444148091639,,
0.232161111639407,0.0951449744287888,0.00338941522745673,,
0.236030463500063,0.0951174712897333,0.00340537667440577,,
0.23989981536072,0.0951905239464154,0.00339617312081097,,
0.243769167221377,0.0952640837995942,0.00340556220725174,,
0.247638519082034,0.0952669633668004,0.00342127627707312,,
0.251507870942691,0.0952118589216256,0.00340098010818046,,
0.255377222803347,0.0952033511094253,0.00343009189835408,,
0.259246574664004,0.095115916977889,0.00341623315699113,,
0.263115926524661,0.0950566240713232,0.00342408738079802,,
0.266985278385318,0.0950345037596022,0.00343369011112182,,
0.270854630245974,0.0948312324927222,0.00344732396418701,,
0.274723982106631,0.0945537469255712,0.00342866947986931,,
0.278593333967288,0.0944964173602824,0.00340539354102809,,
0.282462685827945,0.0944030932049151,0.00343074969662593,,
0.286332037688601,0.0941366023489153,0.00340787293451372,,
0.290201389549258,0.0939010177568512,0.00339969262267426,,
0.294070741409915,0.0935961599400631,0.00342563348784664,,
0.297940093270572,0.0932769206484209,0.00340331894647949,,
0.301809445131229,0.0930233878448494,0.00340354945698484,,
0.305678796991885,0.0926298033635177,0.00341244378916983,,
0.309548148852542,0.0922836172128486,0.00339148560534985,,
0.313417500713199,0.0920315078317029,0.00337052461042608,,
0.317286852573856,0.0916008652837676,0.00336050162009549,,
0.321156204434512,0.0911905433180494,0.00337654037239732,,
0.325025556295169,0.0906804672542816,0.00336662842066371,,
0.328894908155826,0.0902540295289146,0.0033429476828859,,
0.332764260016483,0.0896978803898463,0.00332501284112174,,
0.33663361187714,0.0893218350905892,0.00329663193791641,,
0.340502963737796,0.088674079719771,0.00331233616887516,,
0.344372315598453,0.0882209405530366,0.00327722407780051,,
0.34824166745911,0.0876488065437379,0.00326257963294641,,
0.352111019319767,0.0870783904580567,0.00325960548520543,,
0.355980371180423,0.0864912205268116,0.00320890722952916,,
0.35984972304108,0.0857969830512601,0.00319170327473373,,
0.363719074901737,0.085203661317347,0.00317146332791518,,
0.367588426762394,0.0844581151897563,0.00315717870433785,,
0.371457778623051,0.0838926729019768,0.00315993780264368,,
0.375327130483707,0.0831072055017535,0.00312043195644751,,
0.379196482344364,0.0823907168250625,0.00312358039261929,,
0.383065834205021,0.0816404586784069,0.00310056307532047,,
0.386935186065678,0.0808699126718889,0.00308151503648135,,
0.390804537926334,0.0800454565861396,0.00305178480348811,,
0.394673889786991,0.0793480777645449,0.00301942478296047,,
0.398543241647648,0.0783856315093762,0.00300553652500835,,
0.402412593508305,0.0776906086973139,0.00296695693748905,,
0.406281945368962,0.0768157438242773,0.00295331184000913,,
0.410151297229618,0.0759887844783998,0.00290988169301309,,
0.414020649090275,0.0750568518189113,0.00290308303865494,,
0.417890000950932,0.0741601284129907,0.00287266127414521,,
0.421759352811589,0.0732514940699895,0.00282057714433259,,
0.425628704672245,0.0723080431416759,0.0027964958242741,,
0.429498056532902,0.0712924721437867,0.00273662072048841,,
0.433367408393559,0.0704269004194613,0.00275335803206556,,
0.437236760254216,0.0693591045436037,0.00270339347446136,,
0.441106112114873,0.0684367268116634,0.00265191654305319,,
0.444975463975529,0.0673659204791809,0.00264406794145344,,
0.448844815836186,0.0663005951410968,0.00258113997902276,,
0.452714167696843,0.0652211664681729,0.00255727370839898,,
0.4565835195575,0.0641669830918358,0.0025495698786413,,
0.460452871418156,0.0630838731540175,0.00248390390118258,,
0.464322223278813,0.0620243233115232,0.00247047525868904,,
0.46819157513947,0.0608968254996671,0.00244466370428809,,
0.472060927000127,0.0597151885520973,0.00240152591207954,,
0.475930278860784,0.0585990944808252,0.00234632145713221,,
0.47979963072144,0.0574167540026311,0.00229879693756141,,
0.483668982582097,0.0562503983946675,0.00227432909074077,,
0.487538334442754,0.0550793307676389,0.00224341819418328,,
0.491407686303411,0.0538841958487897,0.00220233110214174,,
0.495277038164067,0.0526496304926272,0.0021772462180536,,
0.499146390024724,0.0514464949580742,0.00213084473442038,,
0.503015741885381,0.050272155095584,0.00206180262138789,,
0.506885093746038,0.0489565855505674,0.00204507093201833,,
0.510754445606695,0.0477292191124205,0.00198150766014527,,
0.514623797467351,0.0464242679714771,0.00194167994257244,,
0.518493149328008,0.0451110707971702,0.00188627308815725,,
0.522362501188665,0.043869306522992,0.0018532707304284,,
0.526231853049322,0.0425462762811227,0.00179220371866284,,
0.530101204909978,0.0412169797083443,0.00178970605300366,,
0.533970556770635,0.0399271790175885,0.00171732575429795,,
0.537839908631292,0.0385962954106112,0.00166515588582161,,
0.541709260491949,0.0372319041125063,0.00161755968310562,,
0.545578612352606,0.03587274839114,0.00155682859823525,,
0.549447964213262,0.0345006346173454,0.0015276774526094,,
0.553317316073919,0.0331632065394448,0.00149485500551894,,
0.557186667934576,0.031788589505522,0.00145349804751982,,
0.561056019795233,0.0303632037384112,0.00139136281633911,,
0.564925371655889,0.0289871960044173,0.00136909746928726,,
0.568794723516546,0.0276167510707082,0.00129854438800248,,
0.572664075377203,0.0261843136361774,0.00124444750792296,,
0.57653342723786,0.0247920592531162,0.00121782635564927,,
0.580402779098517,0.0234119285024405,0.00114948280189253,,
0.584272130959173,0.0219293604206367,0.00112130429815505,,
0.58814148281983,0.0205253096287361,0.00104862040024711,,
0.592010834680487,0.0190670706175899,0.000996568598127467,,
0.595880186541144,0.0176524177827935,0.000930378349823791,,
0.5997495384018,0.0162139594350132,0.000905748864539202,,
0.603618890262457,0.0147401118607148,0.000860608160926368,,
0.607488242123114,0.013340135001964,0.000795564842942742,,
0.611357593983771,0.0119053251967235,0.000754916283082441,,
0.615226945844428,0.0104174888158264,0.000703304418695261,,
0.619096297705084,0.00897170066061198,0.000641134048718239,,
0.622965649565741,0.00753741441304538,0.000603431525561415,,
0.626835001426398,0.00606569379179708,0.000554552053994684,,
0.630704353287055,0.00461556992459591,0.0004887666046276,,
0.634573705147711,0.0031411006255598,0.000438678358459565,,
0.638443057008368,0.0016986828728709,0.000381045109894007,,
0.642312408869025,0.000224622603267497,0.000330456487263042,,
0.646181760729682,-0.00125573671959966,0.0002700107294209,,
0.650051112590339,-0.0027019339042468,0.000233241492700653,,
0.653920464450995,-0.00419168454288899,0.000159828113376115,,
0.657789816311652,-0.00564030318177778,0.000116795737557407,,
0.661659168172309,-0.00706922296318722,5.24383288822428E-05,,
0.665528520032966,-0.00853227216046205,2.57665767415816E-05,,
0.669397871893622,-0.0100142021563508,-5.30511494938324E-05,,
0.673267223754279,-0.0114529386441453,-9.98672709262571E-05,,
0.677136575614936,-0.0129033242901834,-0.000158197673215454,,
0.681005927475593,-0.0143501759219229,-0.000196704874813491,,
0.684875279336249,-0.0158321059178117,-0.0002588464309774,,
0.688744631196906,-0.0172343242578537,-0.00029947812421538,,
0.692613983057563,-0.0186488134808771,-0.000365539061748077,,
0.69648333491822,-0.0200889897522748,-0.000405131349383581,,
0.700352686778877,-0.0215295914142824,-0.000463365471370381,,
0.704222038639533,-0.0229504287741015,-0.000523938431655768,,
0.70809139050019,-0.0243742438681907,-0.00058082462940634,,
0.711960742360847,-0.0257446233571905,-0.00060595027449839,,
0.715830094221504,-0.0271811347248711,-0.000691076117492528,,
0.719699446082161,-0.0285745834738758,-0.00071143905009885,,
0.723568797942817,-0.0299665924392775,-0.000766942184816877,,
0.727438149803474,-0.0313360884247027,-0.000822956237636507,,
0.731307501664131,-0.0327696220581131,-0.000838254264106997,,
0.735176853524788,-0.0340811013088026,-0.000920483967488117,,
0.739046205385444,-0.0354844649312562,-0.000966895992760453,,
0.742915557246101,-0.0367868473673622,-0.00102889769651382,,
0.746784909106758,-0.0381895892650782,-0.00106165829932259,,
0.750654260967415,-0.0395023119652431,-0.00110998187512745,,
0.754523612828071,-0.0408380057583491,-0.00116874448461424,,
0.758392964688728,-0.0420987326370278,-0.00122037883783133,,
0.762262316549385,-0.0434332811477222,-0.00126660954691271,,
0.766131668410042,-0.0447286937222948,-0.00132753811181985,,
0.770001020270699,-0.0460273458099745,-0.00135915740651615,,
0.773870372131355,-0.0472567246729303,-0.00143328058953118,,
0.777739723992012,-0.0485278899827318,-0.00148193587557532,,
0.781609075852669,-0.0498130931826639,-0.00150163538770265,,
0.785478427713326,-0.0509989513139792,-0.00156521763452577,,
0.789347779573983,-0.0522245998285087,-0.00162981047313782,,
0.793217131434639,-0.0534533896890814,-0.0016441014216988,,
0.797086483295296,-0.0546707594478927,-0.0017071776698514,,
0.800955835155953,-0.0558212119915126,-0.00173980333968116,,
0.80482518701661,-0.0570300739381236,-0.00179663753201265,,
0.808694538877266,-0.0581897541857454,-0.00181684374558655,,
0.812563890737923,-0.059344329746047,-0.00188209016581453,,
0.81643324259858,-0.0605228580699282,-0.00192719783895834,,
0.820302594459237,-0.061626517646446,-0.00198422880855054,,
0.824171946319893,-0.0627487635203861,-0.00196717595058038,,
0.82804129818055,-0.06383524386073,-0.00206152853877484,,
0.831910650041207,-0.0648762401281564,-0.00208606947429191,,
0.835780001901864,-0.0659164183367175,-0.00216562370970319,,
0.839649353762521,-0.0670178527931213,-0.00220766025202757,,
0.843518705623177,-0.0679975600903504,-0.00222003613617616,,
0.847388057483834,-0.0690186284438151,-0.00224042155761239,,
0.851257409344491,-0.07000893778394,-0.00230267063849388,,
0.855126761205148,-0.0709954513309294,-0.00233595972880263,,
0.858996113065804,-0.0719958064339217,-0.00236838229638847,,
0.862865464926461,-0.0728933478987078,-0.00241218069797222,,
0.866734816787118,-0.0738080031549585,-0.00243037345850317,,
0.870604168647775,-0.0747553807658261,-0.00247023490932063,,
0.874473520508432,-0.0756716066950985,-0.00249998763114334,,
0.878342872369088,-0.0765543249332431,-0.00256067373835389,,
0.882212224229745,-0.0775163621589791,-0.00259376042919479,,
0.886081576090402,-0.0782015682646563,-0.00262898918107357,,
0.889950927951059,-0.0790627879158177,-0.0026369952044818,,
0.893820279811715,-0.0798619005379162,-0.00267618761261268,,
0.897689631672372,-0.0805884349774746,-0.00272508395080173,,
0.901558983533029,-0.0814717094956477,-0.00273332048471531,,
0.905428335393686,-0.0822205605810548,-0.002764057092842,,
0.909297687254343,-0.0829308974550778,-0.00279862312701784,,
0.913167039114999,-0.0836048143484122,-0.00283780358795793,,
0.917036390975656,-0.0843283710537004,-0.00286851770725471,,
0.920905742836313,-0.0849675040840771,-0.00289565048040608,,
0.92477509469697,-0.0856334694452396,-0.00294035265183767,,
0.928644446557626,-0.0862168435833491,-0.00297209633787388,,
0.932513798418283,-0.0868113433220284,-0.00298588128776434,,
0.93638315027894,-0.0874728257206084,-0.00299906044480203,,
0.940252502139597,-0.0880237720052926,-0.00302251559150557,,
0.944121854000254,-0.088512873039751,-0.00305816038673568,,
0.94799120586091,-0.0890012214600531,-0.00306408619338772,,
0.951860557721567,-0.0895626388982148,-0.00308537749299909,,
0.955729909582224,-0.09005200171151,-0.00310294689127888,,
0.959599261442881,-0.0905089693937346,-0.00315375548277652,,
0.963468613303537,-0.0909960089198521,-0.00317940891259294,,
0.967337965164194,-0.0913914585753969,-0.00318241117137097,,
0.971207317024851,-0.0917391008708466,-0.00320387113720599,,
0.975076668885508,-0.0921086016991803,-0.00319670844491515,,
0.978946020746165,-0.0925501898747349,-0.0032419559704695,,
0.982815372606821,-0.0928706071711433,-0.00326112769787246,,
0.986684724467478,-0.0932034589623061,-0.00327760638790719,,
0.990554076328135,-0.0934768869574846,-0.00327084779177689,,
0.994423428188792,-0.0937274093044314,-0.00333414892822725,,
0.998292780049448,-0.0939492668687337,-0.00333353610761522,,
1.00216213191011,-0.094304369861036,-0.00333657280241395,,
1.00603148377076,-0.0944022751460497,-0.00332631719324983,,
1.00990083563142,-0.0945403634825329,-0.0033566721940459,,
1.01377018749208,-0.0947139228514207,-0.00336335067372007,,
1.01763953935273,-0.0947948125120336,-0.0034015367067175,,
1.02150889121339,-0.0950507013251376,-0.00335235996093219,,
1.02537824307405,-0.0950653609400059,-0.0033807795168137,,
1.0292475949347,-0.0950842090162652,-0.003400901397276,,
1.03311694679536,-0.0951865645415068,-0.00340544414089505,,
1.03698629865602,-0.0952374805252906,-0.00339697147426854,,
1.04085565051667,-0.0953148361716049,-0.00340439278810223,,
1.04472500237733,-0.0951599939895579,-0.00344032431591224,,
1.04859435423799,-0.095167585575829,-0.00342965336617285,,
1.05246370609864,-0.0951196800486699,-0.00339553218916144,,
1.0563330579593,-0.0950253087779549,-0.00343641125952709,,
1.06020240981996,-0.0948813304176406,-0.00344111704716266,,
1.06407176168061,-0.0947300222498922,-0.00341512558212331,,
1.06794111354127,-0.0945449446121792,-0.00341529424834652,,
1.07181046540193,-0.0943992646894249,-0.00342045543478564,,
1.07567981726258,-0.0942418047190086,-0.00342875311020485,,
1.07954916912324,-0.0939562040079125,-0.00340925599754582,,
1.0834185209839,-0.0937749221633351,-0.00341347265313319,,
1.08728787284455,-0.0935380123159089,-0.00341377063012782,,
1.09115722470521,-0.0931907626887147,-0.00339615063198107,,
1.09502657656587,-0.0928976031137022,-0.0034157665137724,,
1.09889592842652,-0.0925924671568999,-0.00337842381189235,,
1.10276528028718,-0.0922314741407666,-0.00338039720670746,,
1.10663463214784,-0.091805592695428,-0.00340329645764959,,
1.11050398400849,-0.091469174167612,-0.00338538972692248,,
1.11437333586915,-0.0910617154079228,-0.00334367294764659,,
1.11824268772981,-0.090564368340101,-0.00336174342516582,,
1.12211203959047,-0.0900297832327252,-0.00334912719164882,,
1.12598139145112,-0.0895271678658101,-0.00334071566652838,,
1.12985074331178,-0.0891424838649342,-0.00330383960786662,,
1.13372009517244,-0.0885736384522745,-0.00328677058604976,,
1.13758944703309,-0.0880125155153044,-0.00328814170189151,,
1.14145879889375,-0.0875050245175514,-0.00325941292460019,,
1.14532815075441,-0.0868703744497572,-0.00326628326210354,,
1.14919750261506,-0.0863443298769365,-0.00323868384573389,,
1.15306685447572,-0.0857205109085205,-0.00322784985197844,,
1.15693620633638,-0.0850307236731969,-0.00319262110009966,,
1.16080555819703,-0.084398266003162,-0.00317727809596979,,
1.16467491005769,-0.0837409393436184,-0.00316471808452734,,
1.16854426191835,-0.0830329584791278,-0.00314058194794642,,
1.172413613779,-0.0822796898758475,-0.00311347728583211,,
1.17628296563966,-0.081450505409856,-0.00308617022424951,,
1.18015231750032,-0.0807262942574754,-0.00306765629511796,,
1.18402166936097,-0.0800086275760183,-0.00302792415507191,,
1.18789102122163,-0.0792011707534924,-0.00303328282154736,,
1.19176037308229,-0.0783263058804558,-0.00301871497926953,,
1.19562972494294,-0.0774951580731873,-0.00299700201409969,,
1.1994990768036,-0.0766286701229326,-0.0029645731215302,,
1.20336842866426,-0.075693596117401,-0.00292145008761624,,
1.20723778052491,-0.0749348628808997,-0.00290749084929498,,
1.21110713238557,-0.073957086202593,-0.00284231822053993,,
1.21497648424623,-0.0729981903229003,-0.00283544788303658,,
1.21884583610688,-0.0721207076614943,-0.00279935963619371,,
1.22271518796754,-0.0711863862701188,-0.00277457694575611,,
1.2265845398282,-0.0701243822510284,-0.00273627776583352,,
1.23045389168886,-0.0692271025650792,-0.00270861650518173,,
1.23432324354951,-0.0681898366460791,-0.00267486077165469,,
1.23819259541017,-0.0670745279113177,-0.00262098877987293,,
1.24206194727083,-0.0660363130440337,-0.00258031140619952,,
1.24593129913148,-0.0649694661164599,-0.00255153694847277,,
1.24980065099214,-0.0639457472522712,-0.00252646822823088,,
1.2536700028528,-0.0628186584698477,-0.00250106147276652,,
1.25753935471345,-0.0617418312241158,-0.00246426412500877,,
1.26140870657411,-0.06063031828249,-0.00242652294917622,,
1.26527805843477,-0.0594671040205695,-0.00236919259703683,,
1.26914741029542,-0.0584065070627276,-0.00236452054264635,,
1.27301676215608,-0.0571909370334201,-0.002302597549797,,
1.27688611401674,-0.0560476179631067,-0.00231331909940335,,
1.28075546587739,-0.0548749796630566,-0.00223558645920541,,
1.28462481773805,-0.0536259019426215,-0.00219299261556793,,
1.28849416959871,-0.0524255150858563,-0.0021822879325839,,
