Time domain (s),Current (AC) (A),Potential (AC) (V),Frequency (Hz),Column 5
0,0.00447458267211914,0.000180954403347311,0.25119,0.005
0.00971936084239022,0.00446571826934814,0.000204212135738846,,
0.0194387216847804,0.00445544302463531,0.000192165374755859,,
0.0291580825271707,0.00444654405117035,0.000200174914466,,
0.0388774433695609,0.00443416118621826,0.000180111991034515,,
0.0485968042119511,0.00442148625850677,0.000152312384711362,,
0.0583161650543413,0.00440566062927246,0.000172328948974787,,
0.0680355258967316,0.00439267635345459,0.000179243087768732,,
0.0777548867391218,0.00437657356262207,0.000157048967149631,,
0.087474247581512,0.0043597275018692,0.00016526116265192,,
0.0971936084239022,0.00434256553649902,0.000182877646552004,,
0.106912969266292,0.00432256698608398,0.000184165106879242,,
0.116632330108683,0.0043025016784668,0.000178951687283213,,
0.126351690951073,0.00428210258483887,0.000171889199151121,,
0.136071051793463,0.00425933837890625,0.000168630811903103,,
0.145790412635853,0.004237060546875,0.000155496597289861,,
0.155509773478244,0.00421177864074707,0.000160376230875503,,
0.165229134320634,0.00418781757354736,0.000172662734985174,,
0.174948495163024,0.0041609525680542,0.000161102082994358,,
0.184667856005414,0.00413388729095459,0.000176423125796799,,
0.194387216847804,0.00410702705383301,0.000175301233927616,,
0.204106577690195,0.00407846927642822,0.0001690970526802,,
0.213825938532585,0.00404786169528961,0.00014630423651818,,
0.223545299374975,0.00401682376861572,0.000161886215209961,,
0.233264660217365,0.00398477971553802,0.000160429212782365,,
0.242984021059756,0.00395211160182953,0.000147702958848583,,
0.252703381902146,0.00392000615596771,0.000161600112915217,,
0.262422742744536,0.00388422012329102,0.000159157647027008,,
0.272142103586926,0.00384795248508453,0.00016752878824855,,
0.281861464429316,0.00381256103515625,0.000137249628702651,,
0.291580825271707,0.0037739372253418,0.000137154261271366,,
0.301300186114097,0.0037365198135376,0.000163841247558416,,
0.311019546956487,0.00369799613952637,0.000156381395127969,,
0.320738907798877,0.00365824639797211,0.000139644410875217,,
0.330458268641268,0.00361833095550537,0.000152227613661182,,
0.340177629483658,0.00357735633850098,0.000146691004435429,,
0.349896990326048,0.00353404521942139,0.000142367680867395,,
0.359616351168438,0.00349022388458252,0.000144810146755603,,
0.369335712010828,0.0034460973739624,0.000134685304429727,,
0.379055072853219,0.00340239107608795,0.000145271089341925,,
0.388774433695609,0.00335702836513519,0.00013309054904509,,
0.398493794537999,0.00330949306488037,0.000106292300753985,,
0.408213155380389,0.00326259136199951,0.000141339831881915,,
0.41793251622278,0.00321410715579987,0.000126685036553109,,
0.42765187706517,0.00316621243953705,0.000136491987440479,,
0.43737123790756,0.00311587810516357,0.000139877531263544,,
0.44709059874995,0.00306631624698639,0.000139517254299726,,
0.45680995959234,0.00301613748073578,0.000115993287828076,,
0.466529320434731,0.00296291828155518,0.000121201409233773,,
0.476248681277121,0.00291079998016357,0.000131109025743203,,
0.485968042119511,0.00285757064819336,0.000128899680243766,,
0.495687402961901,0.00280464172363281,0.00014547242058649,,
0.505406763804292,0.00274979591369629,0.00014227761162644,,
0.515126124646682,0.00269539773464203,9.48588053386601E-05,,
0.524845485489072,0.00263882637023926,8.95341237385772E-05,,
0.534564846331462,0.00258257925510406,0.000131760703192985,,
0.544284207173852,0.00252545356750488,9.15951199003118E-05,,
0.554003568016243,0.00246809005737305,0.000105126698811908,,
0.563722928858633,0.00241030633449554,0.00012391938103562,,
0.573442289701023,0.00235071182250977,0.00012629297044553,,
0.583161650543413,0.00229158401489258,0.000122372309367069,,
0.592881011385804,0.00223174571990967,0.000103372997708018,,
0.602600372228194,0.00217188835144043,7.90754954018702E-05,,
0.612319733070584,0.0021104770898819,8.49730438656771E-05,,
0.622039093912974,0.00204841136932373,8.97573100195892E-05,,
0.631758454755364,0.0019864559173584,0.000103696187337299,,
0.641477815597755,0.00192449033260345,9.38521491158362E-05,,
0.651197176440145,0.00186163425445557,7.00745317669949E-05,,
0.660916537282535,0.00179808676242828,8.31180148654909E-05,,
0.670635898124925,0.00173373162746429,8.25835598838864E-05,,
0.680355258967316,0.00167030334472656,5.6229697333432E-05,,
0.690074619809706,0.00160624504089355,7.39468468560212E-05,,
0.699793980652096,0.0015424633026123,7.34759701623844E-05,,
0.709513341494486,0.00147627770900726,7.32262929279415E-05,,
0.719232702336876,0.0014110803604126,8.35584269629486E-05,,
0.728952063179267,0.00134364187717438,7.9505311118222E-05,,
0.738671424021657,0.00127692222595215,8.22762648264863E-05,,
0.748390784864047,0.00121134281158447,4.84989749058862E-05,,
0.758110145706437,0.00114527225494385,5.98013401029718E-05,,
0.767829506548828,0.00107783317565918,6.01139333511469E-05,,
0.777548867391218,0.00100947856903076,1.77754296197818E-05,,
0.787268228233608,0.000941758155822754,5.24050659604924E-05,,
0.796987589075998,0.000874385833740234,4.2077567842469E-05,,
0.806706949918388,0.000806832313537598,4.5612123277472E-05,,
0.816426310760779,0.000737752914428711,4.15272182889836E-05,,
0.826145671603169,0.000670113563537598,2.51399146184994E-05,,
0.835865032445559,0.000601563453674316,7.02169206405756E-05,,
0.845584393287949,0.000533390045166016,4.25179799399267E-05,,
0.85530375413034,0.000463390350341797,2.01755099826784E-05,,
0.86502311497273,0.000394778847694397,3.44064500596986E-05,,
0.87474247581512,0.000326814651489258,2.54359510210023E-05,,
0.88446183665751,0.000257235169410706,2.73439619276061E-05,,
0.8941811974999,0.000187911987304687,4.67876593273076E-05,,
0.903900558342291,0.000118756294250488,-6.1836507585511E-06,,
0.913619919184681,4.90474700927734E-05,1.11262003565926E-06,,
0.923339280027071,-2.044677734375E-05,2.72538926866517E-05,,
0.933058640869461,-8.93640518188477E-05,1.84959835478615E-05,,
0.942778001711851,-0.00015864372253418,1.06652577720467E-05,,
0.952497362554242,-0.000227618217468262,-5.19222683514897E-07,,
0.962216723396632,-0.000297298431396484,-1.40468279496986E-06,,
0.971936084239022,-0.000366935729980469,1.81886884900173E-05,,
0.981655445081412,-0.000435495376586914,-1.34997897678346E-05,,
0.991374805923803,-0.000504765510559082,8.4824032255959E-06,,
1.00109416676619,-0.000573945045471191,-2.04357835982272E-05,,
1.01081352760858,-0.000642032623291016,-1.83635287815953E-05,,
1.02053288845097,-0.000709809064865112,-1.25779045951901E-05,,
1.03025224929336,-0.000779151916503906,2.2676255966303E-06,,
1.03997161013575,-0.000846590995788574,3.33189964285552E-06,,
1.04969097097814,-0.000915098190307617,-8.61485799141803E-06,,
1.05941033182053,-0.000982484817504883,-2.56803300646702E-05,,
1.06912969266292,-0.00105025172233582,5.49952189121683E-06,,
1.07884905350531,-0.00111742973327637,-2.98288133406821E-05,,
1.0885684143477,-0.00118445992469788,-1.06440650093909E-05,,
1.0982877751901,-0.00125154495239258,-3.81840599907868E-05,,
1.10800713603249,-0.00131755352020264,-2.6379691230094E-05,,
1.11772649687488,-0.00138352274894714,-2.02178955079901E-05,,
1.12744585771727,-0.00144875645637512,-2.87585788303346E-05,,
1.13716521855966,-0.00151453495025635,-5.18692864304171E-06,,
1.14688457940205,-0.00157983779907227,-4.63538699677635E-05,,
1.15660394024444,-0.001644287109375,-2.85784403484257E-05,,
1.16632330108683,-0.00170817852020264,-6.76949818929629E-05,,
1.17604266192922,-0.00177146434783936,-3.88675265843297E-05,,
1.18576202277161,-0.00183472156524658,-6.03516896564571E-05,,
1.195481383614,-0.00189863562583923,-5.10321723088403E-05,,
1.20520074445639,-0.00196035742759705,-3.85337405734987E-05,,
1.21492010529878,-0.00202250957489014,-7.63628217907986E-05,,
1.22463946614117,-0.00208416104316711,-6.79916805692571E-05,,
1.23435882698356,-0.0021453857421875,-5.72469499373618E-05,,
1.24407818782595,-0.00220548152923584,-9.64899857840429E-05,,
1.25379754866834,-0.00226596832275391,-6.87175326876677E-05,,
1.26351690951073,-0.00232520580291748,-6.37690226237275E-05,,
1.27323627035312,-0.00238412380218506,-7.7279408772668E-05,,
1.28295563119551,-0.00244345188140869,-8.42776563430014E-05,,
1.2926749920379,-0.0025004768371582,-9.13037194147925E-05,,
1.30239435288029,-0.0025562858581543,-7.56952497695806E-05,,
1.31211371372268,-0.00261406302452087,-6.9814258151446E-05,,
1.32183307456507,-0.00267007946968079,-7.93668958873894E-05,,
1.33155243540746,-0.00272584438323975,-8.53061676027167E-05,,
1.34127179624985,-0.00277882099151611,-0.000114503833982482,,
1.35099115709224,-0.00283306121826172,-0.000116776757769888,,
1.36071051793463,-0.00288855075836182,-6.68366750082861E-05,,
1.37042987877702,-0.00294001460075378,-8.85963439940518E-05,,
1.38014923961941,-0.00299198150634766,-8.74943203394984E-05,,
1.3898686004618,-0.00304440021514893,-6.98725382486387E-05,,
1.39958796130419,-0.00309474468231201,-0.000104315413369083,,
1.40930732214658,-0.00314369678497314,-0.000111643473307055,,
1.41902668298897,-0.00319365978240967,-0.000101830561955563,,
1.42874604383136,-0.00324155688285828,-0.000103255775239841,,
1.43846540467375,-0.00328968048095703,-0.000112326939900598,,
1.44818476551614,-0.00333656430244446,-0.000137233734130771,,
1.45790412635853,-0.00338255405426025,-0.000127606921725754,,
1.46762348720092,-0.00342754364013672,-8.88188680012725E-05,,
1.47734284804331,-0.00347099304199219,-0.000128396352132132,,
1.4870622088857,-0.00351451396942139,-0.000102811389499191,,
1.49678156972809,-0.00355869293212891,-0.000106207529703806,,
1.50650093057048,-0.00360053539276123,-0.000128730138142963,,
1.51622029141287,-0.00364123344421387,-0.000112830268012232,,
1.52593965225526,-0.00368320107460022,-0.000123998853895468,,
1.53565901309766,-0.00372082710266113,-0.000113889906141473,,
1.54537837394005,-0.00375945568084717,-0.000148068534003176,,
1.55509773478244,-0.0037969970703125,-0.000140370925267419,,
1.56481709562483,-0.00383391380310059,-0.000127055909898477,,
1.57453645646722,-0.00386902213096619,-0.000118721856011472,,
1.58425581730961,-0.00390465259552002,-0.00011837217542876,,
1.593975178152,-0.00393832802772522,-0.000112968020968829,,
1.60369453899439,-0.00397186875343323,-0.000134807162814443,,
1.61341389983678,-0.00400293350219727,-0.000131665335761255,,
1.62313326067917,-0.00403500556945801,-0.00013795428805885,,
1.63285262152156,-0.00406633853912353,-0.000141615337795553,,
1.64257198236395,-0.00409335613250732,-0.000137075450685309,,
1.65229134320634,-0.00412362575531006,-0.000144132640626626,,
1.66201070404873,-0.00415137767791748,-0.000142797496583746,,
1.67173006489112,-0.00417630195617676,-0.000159412622451782,,
1.68144942573351,-0.00420173525810242,-0.000152996513578696,,
1.6911687865759,-0.00422690033912659,-0.000151104397243973,,
1.70088814741829,-0.00425012230873108,-0.00015218522813587,,
1.71060750826068,-0.00427393555641174,-0.000158108605278873,,
1.72032686910307,-0.00429478764533997,-0.000147862566842072,,
1.73004622994546,-0.00431514263153076,-0.000143147177166458,,
1.73976559078785,-0.00433445453643799,-0.000134727689955039,,
1.74948495163024,-0.00435266494750977,-0.000148614247640122,,
1.75920431247263,-0.00437039375305176,-0.000192621019151407,,
1.76892367331502,-0.00438444137573242,-0.00016452537642575,,
1.77864303415741,-0.00440061092376709,-0.000162638558281802,,
1.7883623949998,-0.00441508769989014,-0.000168557299507821,,
1.79808175584219,-0.00442910671234131,-0.000173643562528802,,
1.80780111668458,-0.00444030284881592,-0.000151077906290542,,
1.81752047752697,-0.0044518506526947,-0.000168646706474984,,
1.82723983836936,-0.00446287035942078,-0.000168228811687765,,
1.83695919921175,-0.0044694459438324,-0.000153525670369525,,
1.84667856005414,-0.00447824954986572,-0.000175751580132388,,
1.85639792089653,-0.00448580265045166,-0.000158166885376065,,
1.86611728173892,-0.00449053287506104,-0.000183481640285699,,
1.87583664258131,-0.00449589133262634,-0.000182904137505435,,
1.8855560034237,-0.00450086116790771,-0.000179380840725329,,
1.89527536426609,-0.00450225353240967,-0.000182114707099057,,
1.90499472510848,-0.00450446486473084,-0.000177499983045948,,
1.91471408595087,-0.00450370669364929,-0.000169722239176551,,
1.92443344679326,-0.00450568556785584,-0.000160360336303622,,
1.93415280763565,-0.00450308680534363,-0.00018032391866063,,
1.94387216847804,-0.00450020313262939,-0.000143973032633582,,
1.95359152932043,-0.00449745655059814,-0.000183645884195727,,
1.96331089016282,-0.0044927442073822,-0.000158045689264696,,
1.97303025100521,-0.00448841452598572,-0.000158511267768002,,
1.98274961184761,-0.00448019504547119,-0.000176711214913361,,
1.99246897269,-0.00447208404541016,-0.0001681539747449,,
2.00218833353239,-0.0044630765914917,-0.000162257088555329,,
2.01190769437478,-0.00445333003997803,-0.000165722105238242,,
2.02162705521717,-0.00444279670715332,-0.000164074367947187,,
2.03134641605956,-0.00443013191223145,-0.000159205330742651,,
2.04106577690195,-0.00441719532012939,-0.000165203544828518,,
2.05078513774434,-0.00440401077270508,-0.000165939331054688,,
2.06050449858673,-0.00438915729522705,-0.000169547398884973,,
2.07022385942912,-0.00437195777893066,-0.000161918004353723,,
2.07994322027151,-0.00435473442077637,-0.000173552831014057,,
2.0896625811139,-0.00433713436126709,-0.000182247161865323,,
2.09938194195629,-0.00431839942932129,-0.000147459242079151,,
2.10910130279868,-0.00429637432098389,-0.000167041354709241,,
2.11882066364107,-0.00427635192871094,-0.000151566002104087,,
2.12854002448346,-0.00425401210784912,-0.000148285759820066,,
2.13825938532585,-0.00423217296600342,-0.000161605411105548,,
2.14797874616824,-0.00420708060264587,-0.000144921408759213,,
2.15769810701063,-0.00418403029441834,-0.000128264559639657,,
2.16741746785302,-0.00415727138519287,-0.00015660391913519,,
2.17713682869541,-0.00412842273712158,-0.000139756335152619,,
2.1868561895378,-0.00410031795501709,-0.000166421466403666,,
2.19657555038019,-0.00407003402709961,-0.000173409779866684,,
2.20629491122258,-0.00404088020324707,-0.00016032854715986,,
2.21601427206497,-0.00401106834411621,-0.000157086716757959,,
2.22573363290736,-0.0039786159992218,-0.000181886884901061,,
2.23545299374975,-0.00394568562507629,-0.000135861502753354,,
2.24517235459214,-0.00391273617744446,-0.000170829561021435,,
2.25489171543453,-0.00387748122215271,-0.000164683659871212,,
2.26461107627692,-0.00384091734886169,-0.000144842598173156,,
2.27433043711931,-0.00380553245544434,-0.000160921944512449,,
2.2840497979617,-0.003768630027771,-0.000126245286729443,,
2.29376915880409,-0.00372981548309326,-0.000140598085191623,,
2.30348851964648,-0.00369087696075439,-0.000130256679323093,,
2.31320788048887,-0.00365044116973877,-0.000146441989474777,,
2.32292724133126,-0.00361015319824219,-0.000144201517104925,,
2.33264660217365,-0.003566974401474,-0.000150012969970525,,
2.34236596301604,-0.00352414965629578,-0.000130478541056078,,
2.35208532385843,-0.00348083019256592,-0.000158198674519827,,
2.36180468470082,-0.00343876361846924,-0.000123219357596405,,
2.37152404554321,-0.00339271664619446,-0.000125149223539456,,
2.3812434063856,-0.00334604263305664,-0.000116517146428574,,
2.39096276722799,-0.0032996940612793,-0.000121815999349018,,
2.40068212807038,-0.00325302481651306,-0.000127718183729364,,
2.41040148891277,-0.00320354461669922,-0.000121471616957081,,
2.42012084975517,-0.00315559864044189,-0.000140042437447363,,
2.42984021059756,-0.00310721874237061,-0.000126876433690359,,
2.43955957143995,-0.00305533409118652,-0.000121502743827051,,
2.44927893228234,-0.00300352096557617,-0.00012262596024426,,
2.45899829312473,-0.00295114874839783,-0.000106212827894581,,
2.46871765396712,-0.00289868831634522,-0.000103733274671836,,
2.47843701480951,-0.00284667015075684,-0.000120353698730646,,
2.4881563756519,-0.00279194831848145,-0.000117513206269848,,
2.49787573649429,-0.00273816585540772,-0.000119605991575344,,
2.50759509733668,-0.00268184661865234,-0.000105735990736378,,
2.51731445817907,-0.00262692332267761,-8.64399804010318E-05,,
2.52703381902146,-0.0025692892074585,-9.30302672914607E-05,,
2.53675317986385,-0.00251218318939209,-9.08109876842644E-05,,
2.54647254070624,-0.00245650291442871,-0.000114381975597766,,
2.55619190154863,-0.00239696502685547,-8.8718202378768E-05,,
2.56591126239102,-0.00233928203582764,-0.000120591455035513,,
2.57563062323341,-0.0022780179977417,-9.31845770941742E-05,,
2.5853499840758,-0.00221909403800964,-0.000115961498684314,,
2.59506934491819,-0.0021605396270752,-9.17428069642234E-05,,
2.60478870576058,-0.00209723472595215,-9.93304782443971E-05,,
2.61450806660297,-0.0020372486114502,-8.46114423538324E-05,,
2.62422742744536,-0.00197476863861084,-6.62061903211608E-05,,
2.63394678828775,-0.00191137790679932,-6.23703002928799E-05,,
2.64366614913014,-0.0018494987487793,-8.63174597420802E-05,,
2.65338550997253,-0.00178591728210449,-7.91702005598083E-05,,
2.66310487081492,-0.00172212719917297,-8.29431745739129E-05,,
2.67282423165731,-0.00165799140930176,-6.86426957448028E-05,,
2.6825435924997,-0.00159415245056152,-6.57982296412563E-05,,
2.69226295334209,-0.00152945041656494,-7.51177469888731E-05,,
2.70198231418448,-0.00146403908729553,-7.77191585963344E-05,,
2.71170167502687,-0.0013976514339447,-5.77025943333531E-05,,
2.72142103586926,-0.00133220672607422,-6.9162580702109E-05,,
2.73114039671165,-0.00126622676849365,-5.83648681642401E-05,,
2.74085975755404,-0.00119897842407227,-4.59829966228398E-05,,
2.75057911839643,-0.0011323356628418,-4.68783908420534E-05,,
2.76029847923882,-0.00106493353843689,-3.20646497939947E-05,,
2.77001784008121,-0.000997714996337891,-4.73499298094815E-05,,
2.7797372009236,-0.000929789543151856,-3.95350986055476E-05,,
2.78945656176599,-0.000861396789550781,-3.68595123290127E-05,,
2.79917592260838,-0.0007937490940094,-5.52124447290581E-05,,
2.80889528345077,-0.000725412368774414,-4.25974527993311E-05,,
2.81861464429316,-0.000656414031982422,-2.64697604710484E-05,,
2.82833400513555,-0.000588893890380859,-3.63455878362728E-05,,
2.83805336597794,-0.000519633293151855,-3.05069817438941E-05,,
2.84777272682034,-0.000450844764709473,-2.82181633841638E-05,,
2.85749208766273,-0.000381865501403809,-4.41922081839685E-05,,
2.86721144850512,-0.000313000679016113,-9.67449612065963E-06,,
2.87693080934751,-0.000244274139404297,-4.38107384574948E-05,,
2.8866501701899,-0.000174727439880371,-3.99589538573331E-05,,
2.89636953103229,-0.000105432271957397,-3.9635764228052E-05,,
2.90608889187468,-3.64768505096436E-05,1.2762016718959E-06,,
2.91580825271707,3.30591201782226E-05,-2.39001380073489E-05,,
2.92552761355946,0.000102672576904297,-2.74870130749783E-05,,
2.93524697440185,0.000172672271728516,-1.19686126707208E-05,,
2.94496633524424,0.000241580605506897,-1.70972612170139E-05,,
2.95468569608663,0.000310397148132324,-7.9896714950678E-06,,
2.96440505692902,0.000379328727722168,-3.38554382306455E-06,,
2.97412441777141,0.000448436737060547,8.94864400224904E-06,,
2.9838437786138,0.000517773628234863,1.1274549696072E-05,,
2.99356313945619,0.000586161613464355,-1.77754296197818E-05,,
3.00328250029858,0.000654597282409668,1.45481692421789E-05,,
3.01300186114097,0.000723071098327637,1.23447842068636E-05,,
3.02272122198336,0.000790610313415527,2.03980339907872E-06,,
3.03244058282575,0.000859503149986267,4.64538733164765E-05,,
3.04215994366814,0.000926761627197266,5.5472056073036E-06,,
3.05187930451053,0.000994424819946289,6.31014506025096E-06,,
3.06159866535292,0.00106169760227203,3.06129455567294E-05,,
3.07131802619531,0.00112927436828613,3.05169158512086E-05,,
3.0810373870377,0.00119551181793213,2.09483835433844E-05,,
3.09075674788009,0.00126319885253906,8.79433419953557E-06,,
3.10047610872248,0.00132914066314697,9.90761650943028E-06,,
3.11019546956487,0.001395583152771,1.99788146550972E-05,,
3.11991483040726,0.00146110057830811,3.61336602106022E-05,,
3.12963419124965,0.00152617514133453,2.22735934789497E-05,,
3.13935355209204,0.00159150540828705,5.04281785751459E-05,,
