Time domain (s),Current (AC) (A),Potential (AC) (V),Frequency (Hz),Column 5
0,-0.399579882621765,-0.0156856119606359,0.25119,0.45
0.00971936084239022,-0.398084998130798,-0.0156289521083308,,
0.0194387216847804,-0.396524310112,-0.0155969229154236,,
0.0291580825271707,-0.395077109336853,-0.0155879788067415,,
0.0388774433695609,-0.393494486808777,-0.015520951153186,,
0.0485968042119511,-0.391589045524597,-0.0155339173878661,,
0.0583161650543413,-0.389774084091187,-0.0154686298030047,,
0.0680355258967316,-0.387829661369324,-0.0153507304243052,,
0.0777548867391218,-0.385831713676453,-0.0153016661922756,,
0.087474247581512,-0.38368546962738,-0.0152462977769443,,
0.0971936084239022,-0.381528258323669,-0.015192480123281,,
0.106912969266292,-0.379030108451843,-0.0151212410367014,,
0.116632330108683,-0.376855731010437,-0.015012941858159,,
0.126351690951073,-0.374381899833679,-0.0149367652294132,,
0.136071051793463,-0.371764540672302,-0.0148778674050023,,
0.145790412635853,-0.369162917137146,-0.0147845520072565,,
0.155509773478244,-0.366355895996094,-0.0147179574259391,,
0.165229134320634,-0.363624453544617,-0.0146276112959347,,
0.174948495163024,-0.360764861106873,-0.0145342310670156,,
0.184667856005414,-0.357578635215759,-0.0144225554809623,,
0.194387216847804,-0.354657888412476,-0.0143388869618186,,
0.204106577690195,-0.351333975791931,-0.0142460487215086,,
0.213825938532585,-0.348103880882263,-0.0141348710388671,,
0.223545299374975,-0.344631552696228,-0.0140071795597372,,
0.233264660217365,-0.341419577598572,-0.0138681633712379,,
0.242984021059756,-0.33790385723114,-0.0137948263478869,,
0.252703381902146,-0.334428191184998,-0.0136477762803797,,
0.262422742744536,-0.330733180046082,-0.0135087160066822,,
0.272142103586926,-0.326948404312134,-0.0134122472206619,,
0.281861464429316,-0.32312285900116,-0.0132671083761462,,
0.291580825271707,-0.319225192070007,-0.013127840642694,,
0.301300186114097,-0.315359473228455,-0.0129919519099992,,
0.311019546956487,-0.311436176300049,-0.0128678935698265,,
0.320738907798877,-0.3072270154953,-0.0126896856403826,,
0.330458268641268,-0.303022742271423,-0.0125677822884138,,
0.340177629483658,-0.298799991607666,-0.0124386593369752,,
0.349896990326048,-0.294385313987732,-0.012263729271659,,
0.359616351168438,-0.29007887840271,-0.0121070141728206,,
0.369335712010828,-0.285621881484985,-0.0119698832748436,,
0.379055072853219,-0.281135439872742,-0.0118016749055854,,
0.388774433695609,-0.276672720909119,-0.0116316823824349,,
0.398493794537999,-0.271964430809021,-0.0114844481943948,,
0.408213155380389,-0.267110347747803,-0.0113057034628352,,
0.41793251622278,-0.262415766716003,-0.0111231985232187,,
0.42765187706517,-0.257481455802917,-0.0109742190799906,,
0.43737123790756,-0.252671122550964,-0.0107497087265043,,
0.44709059874995,-0.247730612754822,-0.0106006514858685,,
0.45680995959234,-0.242686629295349,-0.0104171740786505,,
0.466529320434731,-0.237574577331543,-0.010237010841017,,
0.476248681277121,-0.232511401176453,-0.0100553824188649,,
0.485968042119511,-0.227337598800659,-0.00985429427170459,,
0.495687402961901,-0.222117781639099,-0.00968087606935164,,
0.505406763804292,-0.216783881187439,-0.0094490605392461,,
0.515126124646682,-0.211487650871277,-0.00928514658691393,,
0.524845485489072,-0.206029415130615,-0.00906540780778942,,
0.534564846331462,-0.20051896572113,-0.00890342063793081,,
0.544284207173852,-0.195148825645447,-0.00867417501553902,,
0.554003568016243,-0.189604163169861,-0.00847920693114768,,
0.563722928858633,-0.184126734733582,-0.00829043930018036,,
0.573442289701023,-0.178447127342224,-0.00805125894877667,,
0.583161650543413,-0.172709345817566,-0.00784435933523264,,
0.592881011385804,-0.167076945304871,-0.0076381676781021,,
0.602600372228194,-0.161265730857849,-0.00742373468220903,,
0.612319733070584,-0.155460715293884,-0.00721285184137166,,
0.622039093912974,-0.149606108665466,-0.00701016625409867,,
0.631758454755364,-0.143896460533142,-0.00679411247887041,,
0.641477815597755,-0.137970805168152,-0.00656927018977616,,
0.651197176440145,-0.132019877433777,-0.00635461158139927,,
0.660916537282535,-0.126052260398865,-0.00613335575281759,,
0.670635898124925,-0.120072245597839,-0.00588564880548859,,
0.680355258967316,-0.11408793926239,-0.005652176190591,,
0.690074619809706,-0.107988238334656,-0.00545357237399546,,
0.699793980652096,-0.101907014846802,-0.00522642468837509,,
0.709513341494486,-0.09580397605896,-0.00497089910153337,,
0.719232702336876,-0.0897802114486694,-0.00474957584853142,,
0.728952063179267,-0.0835641622543335,-0.00451193329256094,,
0.738671424021657,-0.0774239301681519,-0.00427744153161758,,
0.748390784864047,-0.0711567401885986,-0.00404475467054155,,
0.758110145706437,-0.0650190114974976,-0.00382283497074409,,
0.767829506548828,-0.0588654279708862,-0.00359568728512372,,
0.777548867391218,-0.0525760650634766,-0.00334298055770166,,
0.787268228233608,-0.0463451147079468,-0.00309643538499982,,
0.796987589075998,-0.0400618314743042,-0.00286304316075725,,
0.806706949918388,-0.033769965171814,-0.00263456773270576,,
0.816426310760779,-0.0275534391403198,-0.00238551229696959,,
0.826145671603169,-0.0213054418563843,-0.00215788486066604,,
0.835865032445559,-0.0149682760238647,-0.00190565788392716,,
0.845584393287949,-0.00870072841644287,-0.00164378143533961,,
0.85530375413034,-0.00236880779266357,-0.00143750420106015,,
0.86502311497273,0.0039135217666626,-0.00120543971924914,,
0.87474247581512,0.0101658701896667,-0.000931343891098724,,
0.88446183665751,0.0165678262710571,-0.000701872656223568,,
0.8941811974999,0.022769570350647,-0.000453709297433491,,
0.903900558342291,0.0290437936782837,-0.000211417049706508,,
0.913619919184681,0.0352870225906372,3.37796345886154E-05,,
0.923339280027071,0.0415436029434204,0.00027478563183525,,
0.933058640869461,0.0477749109268188,0.0004933600430852,,
0.942778001711851,0.0539904832839966,0.000748245097933253,,
0.952497362554242,0.0602589845657349,0.00095917461721573,,
0.962216723396632,0.0664111375808716,0.00125534934977933,,
0.971936084239022,0.0725628137588501,0.00149487719627261,,
0.981655445081412,0.0788141489028931,0.00170127890640481,,
0.991374805923803,0.0849447846412659,0.00198580477373156,,
1.00109416676619,0.0911313891410828,0.00217992486637497,,
1.01081352760858,0.0970789194107056,0.0024365629561518,,
1.02053288845097,0.103306472301483,0.00267706586349314,,
1.03025224929336,0.109387993812561,0.00289317669015388,,
1.03997161013575,0.115359425544739,0.00314295823503175,,
1.04969097097814,0.121447682380676,0.00338923371005251,,
1.05941033182053,0.1274653673172,0.00364468409273266,,
1.06912969266292,0.133340954780579,0.00385992358842291,,
1.07884905350531,0.139261841773987,0.00410760460328286,,
1.0885684143477,0.145168423652649,0.00431763685912534,,
1.0982877751901,0.151023507118225,0.0045697782587153,,
1.10800713603249,0.156854271888733,0.00477525158644454,,
1.11772649687488,0.162581026554108,0.00501022569131804,,
1.12744585771727,0.168381810188293,0.00523046496710089,,
1.13716521855966,0.174087643623352,0.00548053176914198,,
1.14688457940205,0.179763913154602,0.00569010242702994,,
1.15660394024444,0.185358166694641,0.00590791442368088,,
1.16632330108683,0.190855145454407,0.00616647670268433,,
1.17604266192922,0.196434617042542,0.00638957892308456,,
1.18576202277161,0.20194685459137,0.00658961680523573,,
1.195481383614,0.207416653633118,0.00681514111827441,,
1.20520074445639,0.212765336036682,0.00702799482678351,,
1.21492010529878,0.218261361122131,0.00725852410640826,,
1.22463946614117,0.223443627357483,0.00742306043800545,,
1.23435882698356,0.228677868843079,0.00767499956433415,,
1.24407818782595,0.233737587928772,0.00787520341428971,,
1.25379754866834,0.238942742347717,0.00810672331424422,,
1.26351690951073,0.243998169898987,0.0083128345807193,,
1.27323627035312,0.249003052711487,0.00847631286756645,,
1.28295563119551,0.253934502601624,0.00871719438896035,,
1.2926749920379,0.258858859539032,0.00891676548666309,,
1.30239435288029,0.26368772983551,0.00910672601122098,,
1.31211371372268,0.268469452857971,0.00929947168298817,,
1.32183307456507,0.273178160190582,0.00950120554863565,,
1.33155243540746,0.277870357036591,0.00968976571984781,,
1.34127179624985,0.282392144203186,0.00986471134464617,,
1.35099115709224,0.286855816841125,0.0100980672634314,,
1.36071051793463,0.291378140449524,0.0102515044981422,,
1.37042987877702,0.295709729194641,0.0104015756983302,,
1.38014923961941,0.300102353096008,0.010628023207278,,
1.3898686004618,0.304385781288147,0.0107852362095278,,
1.39958796130419,0.308457016944885,0.0109650208331082,,
1.40930732214658,0.312394738197327,0.0111130433682169,,
1.41902668298897,0.316408276557922,0.0112855202219322,,
1.42874604383136,0.320347487926483,0.011482399529315,,
1.43846540467375,0.324308514595032,0.0116391353741285,,
1.44818476551614,0.328005433082581,0.0117872045876819,,
1.45790412635853,0.3317990899086,0.011961538206203,,
1.46762348720092,0.335459768772125,0.0121120035799254,,
1.47734284804331,0.338865876197815,0.0122778054160273,,
1.4870622088857,0.342391610145569,0.0124020115712753,,
1.49678156972809,0.34575617313385,0.0125342464190372,,
1.50650093057048,0.349042952060699,0.012706396523638,,
1.51622029141287,0.352230250835419,0.0128371998990913,,
1.52593965225526,0.355363965034485,0.0129803211974906,,
1.53565901309766,0.358615517616272,0.0131090136699381,,
1.54537837394005,0.361412644386292,0.0132360879562974,,
1.55509773478244,0.364267885684967,0.0133673218107417,,
1.56481709562483,0.367131352424622,0.0134881671179605,,
1.57453645646722,0.369898915290833,0.013628970053599,,
1.58425581730961,0.372464299201965,0.0137285507359426,,
1.593975178152,0.374955773353577,0.0138553293921508,,
1.60369453899439,0.377511143684387,0.0139541372869076,,
1.61341389983678,0.379734635353088,0.0140848213730016,,
1.62313326067917,0.382070124149323,0.0141995466174514,,
1.63285262152156,0.384271740913391,0.0142777381990666,,
1.64257198236395,0.3863565325737,0.0143716707895836,,
1.65229134320634,0.388247609138489,0.0144439342087028,,
1.66201070404873,0.390519261360168,0.0145464400735897,,
1.67173006489112,0.392038404941559,0.0146704024636257,,
1.68144942573351,0.393762707710266,0.014739507307977,,
1.6911687865759,0.39540684223175,0.0148063456545064,,
1.70088814741829,0.397050440311432,0.0149393481033613,,
1.71060750826068,0.398317456245422,0.0149848647735822,,
1.72032686910307,0.39983332157135,0.0150646537953101,,
1.73004622994546,0.401149392127991,0.0151301280939511,,
1.73976559078785,0.402435421943665,0.0151913494676168,,
1.74948495163024,0.403294265270233,0.0152559316893113,,
1.75920431247263,0.40433943271637,0.0153385421637053,,
1.76892367331502,0.405308842658997,0.0153816108088192,,
1.77864303415741,0.405867695808411,0.0153974192421411,,
1.7883623949998,0.406832337379456,0.0154625564186803,,
1.79808175584219,0.407289624214172,0.0155168123310756,,
1.80780111668458,0.407880425453186,0.0155427240544603,,
1.81752047752697,0.408169865608215,0.0155907302417404,,
1.82723983836936,0.408535122871399,0.0156057451414999,,
1.83695919921175,0.408813118934631,0.015618633578772,,
1.84667856005414,0.408885538578033,0.0156614480856856,,
1.85639792089653,0.408957123756409,0.0156781900879048,,
1.86611728173892,0.408915102481842,0.0157271765225264,,
1.87583664258131,0.408610880374908,0.0157120475199015,,
1.8855560034237,0.408542275428772,0.0157277574098398,,
1.89527536426609,0.407991528511047,0.0157670295414389,,
1.90499472510848,0.407590985298157,0.0157318236210355,,
1.91471408595087,0.407078385353088,0.0157243550698598,,
1.92443344679326,0.40650475025177,0.0157251019249776,,
1.93415280763565,0.405517220497131,0.0157129655293167,,
1.94387216847804,0.404788613319397,0.0157202006882682,,
1.95359152932043,0.404037117958069,0.0157005386899995,,
1.96331089016282,0.402850270271301,0.0156759339630703,,
1.97303025100521,0.401851773262024,0.0156773239434282,,
1.98274961184761,0.400679707527161,0.0156290065665159,,
1.99246897269,0.399317860603333,0.0156239652944725,,
2.00218833353239,0.397799134254456,0.0155554568969163,,
2.01190769437478,0.3963862657547,0.0155321228609862,,
2.02162705521717,0.394850313663483,0.015476502900702,,
2.03134641605956,0.393141329288483,0.0154545277261664,,
2.04106577690195,0.391469120979309,0.0154005726304152,,
2.05078513774434,0.389515042304993,0.0153476703929205,,
2.06050449858673,0.387666344642639,0.0153127756621489,,
2.07022385942912,0.3854119181633,0.0152399157962346,,
2.07994322027151,0.383290410041809,0.0152011000760961,,
2.0896625811139,0.380962431430817,0.0150998182237627,,
2.09938194195629,0.378865838050842,0.0150549239328059,,
2.10910130279868,0.376477837562561,0.0149749274513233,,
2.11882066364107,0.373928189277649,0.0148670120733279,,
2.12854002448346,0.37125837802887,0.0147732143316515,,
2.13825938532585,0.368588626384735,0.0147525980185104,,
2.14797874616824,0.365882515907288,0.0146292994996897,,
2.15769810701063,0.363079130649567,0.0145493445101583,,
2.16741746785302,0.360073208808899,0.0144758207730282,,
2.17713682869541,0.357073903083801,0.0143418588228066,,
2.1868561895378,0.354047417640686,0.0142542278223448,,
2.19657555038019,0.350853025913239,0.0141331180039384,,
2.20629491122258,0.34741747379303,0.014049734741957,,
2.21601427206497,0.344230771064758,0.0139019870910242,,
2.22573363290736,0.340717434883118,0.0138189409511447,,
2.23545299374975,0.337317645549774,0.0136990914507491,,
2.24517235459214,0.333584904670715,0.0135872758293618,,
2.25489171543453,0.329962372779846,0.0134173247981622,,
2.26461107627692,0.326167702674866,0.0133443560158764,,
2.27433043711931,0.322365462779999,0.0132208811562644,,
2.2840497979617,0.318646013736725,0.013086063434554,,
2.29376915880409,0.314571499824524,0.0129393115904444,,
2.30348851964648,0.310565590858459,0.0127836337903808,,
2.31320788048887,0.306504845619202,0.012641627588164,,
2.32292724133126,0.302336812019348,0.012488314829306,,
2.33264660217365,0.298075258731842,0.0123385081403056,,
2.34236596301604,0.293667912483215,0.0121989084712455,,
2.35208532385843,0.28925484418869,0.0120412027520778,,
2.36180468470082,0.284947037696838,0.0119000004564112,,
2.37152404554321,0.280349850654602,0.0117133852204008,,
2.3812434063856,0.275866150856018,0.0115473603650624,,
2.39096276722799,0.271119236946106,0.0114333612297548,,
2.40068212807038,0.266298413276672,0.0112422285575819,,
2.41040148891277,0.2614786028862,0.0110789577304895,,
2.42012084975517,0.256694853305817,0.0108741327144943,,
2.42984021059756,0.251808285713196,0.0106853028456007,,
2.43955957143995,0.246859192848206,0.0105357295488249,,
2.44927893228234,0.241883397102356,0.010364129212574,,
2.45899829312473,0.236655354499817,0.0101808177731599,,
2.46871765396712,0.231552720069885,0.0100034448692297,,
2.47843701480951,0.22631847858429,0.00978911819646111,,
2.4881563756519,0.221146702766418,0.00961360724383065,,
2.49787573649429,0.215831875801086,0.00941509419087794,,
2.50759509733668,0.210316240787506,0.00925833760008876,,
2.51731445817907,0.205072999000549,0.00899805340511994,,
2.52703381902146,0.199487328529358,0.00885554411299738,,
2.53675317986385,0.193983614444733,0.00865319305457923,,
2.54647254070624,0.188496232032776,0.00842432345299304,,
2.55619190154863,0.182961642742157,0.00822321715310448,,
2.56591126239102,0.177309155464172,0.00801817949086026,,
2.57563062323341,0.1717129945755,0.00780192344237118,,
2.5853499840758,0.165913701057434,0.00758282519524034,,
2.59506934491819,0.160049974918365,0.00737897005359933,,
2.60478870576058,0.154382824897766,0.00720072581869813,,
2.61450806660297,0.148479580879211,0.00696011399498575,,
2.62422742744536,0.142562985420227,0.00673786235958085,,
2.63394678828775,0.136689305305481,0.00651240028446853,,
2.64366614913014,0.130720674991608,0.00629468683120127,,
2.65338550997253,0.124720692634583,0.0060546766407783,,
2.66310487081492,0.118779361248016,0.00584030847605854,,
2.67282423165731,0.112696290016174,0.00563805596102407,,
2.6825435924997,0.106686234474182,0.00538022497765622,,
2.69226295334209,0.10065233707428,0.00516677482235206,,
2.70198231418448,0.0944734811782837,0.00493455993221836,,
2.71170167502687,0.0883190035820007,0.00472017102152344,,
2.72142103586926,0.0822497606277466,0.0044599542509749,,
2.73114039671165,0.0760747194290161,0.00425031616866622,,
2.74085975755404,0.0698772072792053,0.00398937328897553,,
2.75057911839643,0.063663125038147,0.00377589720120186,,
2.76029847923882,0.0575010180473328,0.00355493181627686,,
2.77001784008121,0.0512582063674927,0.00332000438984803,,
2.7797372009236,0.0450083017349243,0.00305341860482455,,
2.78945656176599,0.0387898683547974,0.00283303410721336,,
2.79917592260838,0.0324636697769165,0.00257269286081163,,
2.80889528345077,0.0262933969497681,0.00237561128016761,,
2.81861464429316,0.0199905633926392,0.00210092937820994,,
2.82833400513555,0.0137473344802856,0.00188794600735376,,
2.83805336597794,0.00743013620376587,0.00165913864369438,,
2.84777272682034,0.00113356113433838,0.00137650066013695,,
2.85749208766273,-0.0051959753036499,0.00114566019087947,,
2.86721144850512,-0.0115493535995483,0.000893845540403504,,
2.87693080934751,-0.0177302360534668,0.000678377838982946,,
2.8866501701899,-0.024166464805603,0.000420463871713572,,
2.89636953103229,-0.0303691625595093,0.000178358337765694,,
2.90608889187468,-0.0366032123565674,-7.94933915773122E-05,,
2.91580825271707,-0.0428537130355835,-0.000283177378920474,,
2.92552761355946,-0.0491538047790527,-0.000544428854996504,,
2.93524697440185,-0.0554198026657104,-0.000784275670862922,,
2.94496633524424,-0.0615924596786499,-0.00102453481299181,,
2.95468569608663,-0.0677708387374878,-0.00125155802275945,,
2.96440505692902,-0.0739163160324097,-0.00148445234359018,,
2.97412441777141,-0.0800637006759644,-0.00174933695862345,,
2.9838437786138,-0.086277961730957,-0.0019603650212896,,
2.99356313945619,-0.0924415588378906,-0.00223423523695665,,
3.00328250029858,-0.098530650138855,-0.00247094422403027,,
3.01300186114097,-0.104557871818542,-0.00270375556095903,,
3.02272122198336,-0.110659956932068,-0.00295052893939118,,
3.03244058282575,-0.116712927818298,-0.0031702703117622,,
3.04215994366814,-0.12272584438324,-0.00339555085958887,,
3.05187930451053,-0.128592371940613,-0.00364035596359669,,
3.06159866535292,-0.134611964225769,-0.00388175354113063,,
3.07131802619531,-0.140580534934998,-0.0041114529817361,,
3.0810373870377,-0.146489500999451,-0.00436084035308015,,
3.09075674788009,-0.152378559112549,-0.00456879541812683,,
3.10047610872248,-0.158115267753601,-0.00481370425201222,,
3.11019546956487,-0.163945078849792,-0.00504537715353637,,
3.11991483040726,-0.169590830802917,-0.00527849708685046,,
3.12963419124965,-0.175219416618347,-0.00551512568326906,,
3.13935355209204,-0.181018710136414,-0.00572509829443213,,
3.14907291293443,-0.186546683311462,-0.00596601871452984,,
3.15879227377682,-0.192103266716003,-0.00619822582492224,,
3.16851163461921,-0.197565793991089,-0.00638413310451913,,
3.1782309954616,-0.20300555229187,-0.00663741812600804,,
3.18795035630399,-0.208498358726501,-0.00686850754697099,,
3.19766971714638,-0.213871359825134,-0.00704034905518691,,
3.20738907798877,-0.21910035610199,-0.00727044266932664,,
3.21710843883116,-0.224504828453064,-0.00746661661354331,,
3.22682779967355,-0.229582190513611,-0.00768590416770065,,
3.23654716051594,-0.23470401763916,-0.00790118256209515,,
3.24626652135833,-0.239850401878357,-0.00813415986682742,,
3.25598588220072,-0.244914412498474,-0.00832369509888808,,
3.26570524304311,-0.249930262565613,-0.00856698315343829,,
3.2754246038855,-0.25482451915741,-0.00875661952212914,,
3.2851439647279,-0.259704947471619,-0.00895584312474229,,
3.29486332557029,-0.264554858207703,-0.00913990660576758,,
3.30458268641268,-0.269320011138916,-0.00932168024974844,,
3.31430204725507,-0.273940443992615,-0.00952326889356758,,
3.32402140809746,-0.278587222099304,-0.00972295150088831,,
3.33374076893985,-0.283162474632263,-0.00989001624824803,,
3.34346012978224,-0.287489295005798,-0.0100901319278073,,
3.35317949062463,-0.292107820510864,-0.0102820918457529,,
