Time domain (s),Current (AC) (A),Potential (AC) (V),Frequency (Hz),Column 5
0,0.289910381623314,0.0103903060797483,0.63096,0.325
0.00386935186065678,0.29099713235036,0.0104697487857877,,
0.00773870372131355,0.292064949965668,0.0105130660803341,,
0.0116080555819703,0.29320311175331,0.0105524728125972,,
0.0154774074426271,0.294068794919796,0.0106252023223781,,
0.0193467593032839,0.29493769127757,0.010670195020706,,
0.0232161111639407,0.295880441601237,0.0107075210095635,,
0.0270854630245974,0.296676917570768,0.0107634849003961,,
0.0309548148852542,0.297299782343366,0.0107826439533181,,
0.034824166745911,0.297853884822417,0.0108347937913025,,
0.0386935186065678,0.298496869115843,0.0108414452215229,,
0.0425628704672245,0.29887849737334,0.0108758797877249,,
0.0464322223278813,0.299389048752021,0.010914854157722,,
0.0503015741885381,0.299822088070113,0.0109733504561143,,
0.0541709260491949,0.299865194267074,0.0109873095807091,,
0.0580402779098517,0.300089030115512,0.0110170190450019,,
0.0619096297705084,0.30048568622149,0.0110084914713764,,
0.0657789816311652,0.300320379888191,0.0110346223658406,,
0.069648333491822,0.300358344979092,0.0110541674564999,,
0.0735176853524788,0.300234908999951,0.0110675706867522,,
0.0773870372131355,0.30018829300943,0.0110545419131052,,
0.0812563890737923,0.299801523645875,0.0110708442867682,,
0.0851257409344491,0.299516785464116,0.0111156555473593,,
0.0889950927951059,0.299367693388389,0.0110886946717588,,
0.0928644446557626,0.298767370388514,0.0110730369811183,,
0.0967337965164194,0.298298343328006,0.0110733458113081,,
0.100603148377076,0.297796887752353,0.0110825026264463,,
0.104472500237733,0.297030862949482,0.0111057575397648,,
0.10834185209839,0.296237155267829,0.0110777003169895,,
0.112211203959047,0.295574002019862,0.0110507857659177,,
0.116080555819703,0.294760520853364,0.0110398222941672,,
0.11994990768036,0.293894392783469,0.0110233925280512,,
0.123819259541017,0.292749903480677,0.0109817158938901,,
0.127688611401674,0.291721336232785,0.0109745664749878,,
0.13155796326233,0.290388899956548,0.0109326118936557,,
0.135427315122987,0.28948688301166,0.0109238604181425,,
0.139296666983644,0.288134772118002,0.0109013582784123,,
0.143166018844301,0.286866500800085,0.0108782770820759,,
0.147035370704958,0.285296486103442,0.010795448825077,,
0.150904722565614,0.283980758421898,0.0107696460626898,,
0.154774074426271,0.282246623801047,0.0107294016285358,,
0.158643426286928,0.280819423098693,0.010688794318908,,
0.162512778147585,0.279229585483494,0.0106418444092502,,
0.166382130008241,0.277483537338024,0.0106210485563207,,
0.170251481868898,0.275679849484233,0.0105525654616545,,
0.174120833729555,0.273670072484652,0.0104946752425104,,
0.177990185590212,0.27195136118198,0.0104315040271148,,
0.181859537450869,0.269756949267664,0.0103646577324561,,
0.185728889311525,0.267882027434722,0.0103157197284491,,
0.189598241172182,0.265693003795026,0.0102365395280715,,
0.193467593032839,0.263525483820099,0.0101889758184108,,
0.197336944893496,0.261274074835719,0.010115153821832,,
0.201206296754152,0.25903413447255,0.0100567540328744,,
0.205075648614809,0.256700072321521,0.0099643365984714,,
0.208945000475466,0.254186911831514,0.00986697788102564,,
0.212814352336123,0.251674838883174,0.0098176731411681,,
0.21668370419678,0.249016096111,0.00976279401637781,,
0.220553056057436,0.246562206641815,0.00964309143467501,,
0.224422407918093,0.243975439354475,0.00956225513240261,,
0.22829175977875,0.241109074991436,0.00946128310173222,,
0.232161111639407,0.238295308098082,0.00938980435422154,,
0.236030463500063,0.235530183977446,0.00931268945574049,,
0.23989981536072,0.232764664387113,0.00920868702882949,,
0.243769167221377,0.229722316008959,0.00913205467752043,,
0.247638519082034,0.226753920464123,0.00902450456379977,,
0.251507870942691,0.223597627379554,0.00892540095577976,,
0.255377222803347,0.220632791061989,0.00882220534774047,,
0.259246574664004,0.21751421589976,0.00869109149051139,,
0.263115926524661,0.214204085103101,0.0086087882448358,,
0.266985278385318,0.210986543649226,0.00851019420662968,,
0.270854630245974,0.207678044165067,0.00837318169276857,,
0.274723982106631,0.204424514968775,0.00829365405842708,,
0.278593333967288,0.201011265448653,0.00818689532206873,,
0.282462685827945,0.197567861364143,0.00806237498939932,,
0.286332037688601,0.193971064470953,0.00792590292837092,,
0.290201389549258,0.19044703400199,0.00782174994674234,,
0.294070741409915,0.186958991275444,0.0076855712743944,,
0.297940093270572,0.183344398245894,0.00758819325506188,,
0.301809445131229,0.17964517470121,0.00745031987704614,,
0.305678796991885,0.175931368211454,0.00733969690293357,,
0.309548148852542,0.172160910687618,0.00716559388323512,,
0.313417500713199,0.16837072911265,0.00705117229778374,,
0.317286852573856,0.16453506852254,0.00690984002163786,,
0.321156204434512,0.160712853902124,0.00681720254572404,,
0.325025556295169,0.15677358025143,0.00669572805080509,,
0.328894908155826,0.152873507534439,0.00653168903492851,,
0.332764260016483,0.148838826819371,0.00639390444559185,,
0.33663361187714,0.144773843238778,0.00622145366741078,,
0.340502963737796,0.140790672451729,0.00609376782529258,,
0.344372315598453,0.136680160422283,0.00596285470768709,,
0.34824166745911,0.132467221741342,0.00583550857877757,,
0.352111019319767,0.128380042424012,0.0056562828383,,
0.355980371180423,0.124276302813124,0.00553398222262258,,
0.35984972304108,0.1199581197591,0.0053522047726986,,
0.363719074901737,0.11574122638119,0.00523209685137127,,
0.367588426762394,0.111438170043072,0.00506616625057976,,
0.371457778623051,0.107069317434133,0.00492520457066226,,
0.375327130483707,0.102781684414193,0.00478238218884863,,
0.379196482344364,0.0985118475306131,0.0046178374635355,,
0.383065834205021,0.0940836744671417,0.0044345158626613,,
0.386935186065678,0.0896746322502572,0.00429611361294446,,
0.390804537926334,0.0852085929633088,0.00414693318959136,,
0.394673889786991,0.0808932276308745,0.00395916443397892,,
0.398543241647648,0.076448939177255,0.00384670392023478,,
0.402412593508305,0.0719382118145583,0.00368046062887561,,
0.406281945368962,0.0675026236942703,0.00349565664308882,,
0.410151297229618,0.0628653460285697,0.00333084555173668,,
0.414020649090275,0.0584214036109349,0.00320330254358092,,
0.417890000950932,0.0538418645209799,0.0030081411652918,,
0.421759352811589,0.0493881342283472,0.0028734101344603,,
0.425628704672245,0.0448334602955839,0.00265457306171824,,
0.429498056532902,0.0401883226696577,0.00253879262343037,,
0.433367408393559,0.0356412615285596,0.00237548321887759,,
0.437236760254216,0.0310838193079181,0.00218705047835632,,
0.441106112114873,0.0265264265209888,0.00201753358698165,,
0.444975463975529,0.0219698741071654,0.00185522788054726,,
0.448844815836186,0.0173535069016877,0.00170180490245686,,
0.452714167696843,0.0126802414935704,0.00154346380358827,,
0.4565835195575,0.00808883831270877,0.00135794564798664,,
0.460452871418156,0.00352309122843269,0.00119375993776938,,
0.464322223278813,-0.00112006904900908,0.00101859145391492,,
0.46819157513947,-0.00577079268440381,0.000857181355031766,,
0.472060927000127,-0.0104064884713168,0.0006969756938906,,
0.475930278860784,-0.0149951233643003,0.000509052523182785,,
0.47979963072144,-0.0196732332762044,0.000341620235591478,,
0.483668982582097,-0.0242087763623807,0.000162514166812677,,
0.487538334442754,-0.0288092753462708,1.59819623402058E-06,,
0.491407686303411,-0.0333729956483503,-0.000215077065176761,,
0.495277038164067,-0.037985358723147,-0.000355641126224882,,
0.499146390024724,-0.0425589657676487,-0.00051331437980684,,
0.503015741885381,-0.0471610466303263,-0.000695724931620401,,
0.506885093746038,-0.0517314899172529,-0.000855160447475356,,
0.510754445606695,-0.0562129525223799,-0.00104755972575132,,
0.514623797467351,-0.0607086520365948,-0.0011903917585081,,
0.518493149328008,-0.0652569490204957,-0.00134558085924841,,
0.522362501188665,-0.0697502757165293,-0.0015378894186564,,
0.526231853049322,-0.074138901810312,-0.00170022600811004,,
0.530101204909978,-0.0786586261086128,-0.00185725264848147,,
0.533970556770635,-0.083167376122825,-0.00204829307392096,,
0.537839908631292,-0.0876488387279519,-0.00219501829726232,,
0.541709260491949,-0.0920219426361318,-0.00233813020737905,,
0.545578612352606,-0.0963544120329565,-0.00253139421018744,,
0.549447964213262,-0.100731767240378,-0.00268939366565801,,
0.553317316073919,-0.1050613694819,-0.00286672396084375,,
0.557186667934576,-0.109351029284037,-0.00304062624091817,,
0.561056019795233,-0.113611819798301,-0.00319514942656118,,
0.564925371655889,-0.117882497054987,-0.00335002776692228,,
0.568794723516546,-0.122137355523797,-0.00349740153366307,,
0.572664075377203,-0.126358203598675,-0.00369516094592726,,
0.57653342723786,-0.130427586779646,-0.00385464278631042,,
0.580402779098517,-0.134595837384838,-0.00400760444930448,,
0.584272130959173,-0.138700812838528,-0.00415272375565667,,
0.58814148281983,-0.14274844518617,-0.00429186719782981,,
0.592010834680487,-0.146764538825485,-0.00446357678355458,,
0.595880186541144,-0.150822453385245,-0.00461280160124744,,
0.5997495384018,-0.154760837229122,-0.00476497960763389,,
0.603618890262457,-0.158560114607118,-0.00491621375175155,,
0.607488242123114,-0.162473583860091,-0.00509562865072022,,
0.611357593983771,-0.166370937722915,-0.00524256812500612,,
0.615226945844428,-0.170202445881208,-0.00538332134454533,,
0.619096297705084,-0.173923321391796,-0.00555394809441578,,
0.622965649565741,-0.177704901500857,-0.0056602763986966,,
0.626835001426398,-0.18138583457206,-0.00580683369562207,,
0.630704353287055,-0.185083871707653,-0.00595652368878907,,
0.634573705147711,-0.188659708706908,-0.00610425261024838,,
0.638443057008368,-0.192242565293283,-0.00625212050529322,,
0.642312408869025,-0.195817809087993,-0.00637395401530849,,
0.646181760729682,-0.199269864072122,-0.00654090761610471,,
0.650051112590339,-0.202696510128226,-0.00666723267519753,,
0.653920464450995,-0.206001450385113,-0.00680749176643269,,
0.657789816311652,-0.209365711096534,-0.00693336902175012,,
0.661659168172309,-0.212504158611031,-0.00705551136195526,,
0.665528520032966,-0.215787249167166,-0.00720053801925102,,
0.669397871893622,-0.218965243651352,-0.00730995655562205,,
0.673267223754279,-0.222096374976457,-0.00743759607321204,,
0.677136575614936,-0.225272688714432,-0.00756398482853182,,
0.681005927475593,-0.228286167804713,-0.00771992670286048,,
0.684875279336249,-0.231232021576827,-0.0078317869279223,,
0.688744631196906,-0.234191321318634,-0.00794713500394417,,
0.692613983057563,-0.236989170556688,-0.00807533041587627,,
0.69648333491822,-0.239868684287149,-0.00818752842395876,,
0.700352686778877,-0.242521396146444,-0.0083015041358232,,
0.704222038639533,-0.245211875361793,-0.00840221173064304,,
0.70809139050019,-0.247862807607453,-0.008502535217914,,
0.711960742360847,-0.250435733455402,-0.00864258970914822,,
0.715830094221504,-0.253019633587439,-0.00871491580949302,,
0.719699446082161,-0.255280533844544,-0.0088353480025205,,
0.723568797942817,-0.257869278480368,-0.0089460945087092,,
0.727438149803474,-0.260094190995056,-0.00904371380162727,,
0.731307501664131,-0.262332944949135,-0.00911620975857685,,
0.735176853524788,-0.264441589372938,-0.00926103760643748,,
0.739046205385444,-0.266684298023986,-0.00933040279733444,,
0.742915557246101,-0.268764073159917,-0.00940862948450016,,
0.746784909106758,-0.270817252958731,-0.00951142361329227,,
0.750654260967415,-0.272781254340898,-0.00959103810612483,,
0.754523612828071,-0.274780452526087,-0.0096896784688596,,
0.758392964688728,-0.276445676552256,-0.00973512090115181,,
0.762262316549385,-0.278325739491258,-0.00986171232628408,,
0.766131668410042,-0.279896149657597,-0.00991554335861622,,
0.770001020270699,-0.281578972085277,-0.010007217670374,,
0.773870372131355,-0.283219281520541,-0.0100524149687029,,
0.777739723992012,-0.284686078626296,-0.0101435353163075,,
0.781609075852669,-0.28615050291387,-0.01020679918076,,
0.785478427713326,-0.287436965837845,-0.0102674669414267,,
0.789347779573983,-0.288747552413329,-0.0103362936096798,,
0.793217131434639,-0.289987646515343,-0.0103864765853907,,
0.797086483295296,-0.291131839215863,-0.0104263948176566,,
0.800955835155953,-0.292264365560324,-0.0105005121331043,,
0.80482518701661,-0.293307713488137,-0.0105642392428424,,
0.808694538877266,-0.29422203942734,-0.0106050202694519,,
0.812563890737923,-0.294953954968854,-0.0106661840886115,,
0.81643324259858,-0.295966357392886,-0.0107064536152186,,
0.820302594459237,-0.296692934093492,-0.0107485491003252,,
0.824171946319893,-0.297333891604722,-0.010782657464639,,
0.82804129818055,-0.297861151578097,-0.0108351142026248,,
0.831910650041207,-0.298403736002226,-0.0108909217481741,,
0.835780001901864,-0.298889471657428,-0.010909714065245,,
0.839649353762521,-0.299388949884597,-0.0109550503371594,,
0.843518705623177,-0.299715113517105,-0.0109788611448201,,
0.847388057483834,-0.300061149501881,-0.011009973856289,,
0.851257409344491,-0.300215778153364,-0.0110042141732429,,
0.855126761205148,-0.300357850641971,-0.0110345104148966,,
0.858996113065804,-0.300362892880606,-0.0110615021735159,,
0.862865464926461,-0.300234365229118,-0.0110683427622278,,
0.866734816787118,-0.30012482012308,-0.0110870424302418,,
0.870604168647775,-0.300069058895819,-0.011107579637887,,
0.874473520508432,-0.299937070884483,-0.0110952573132996,,
0.878342872369088,-0.299522915244418,-0.0110997816755853,,
0.882212224229745,-0.299047165199062,-0.0111165511549105,,
0.886081576090402,-0.298624902430211,-0.0111022059925783,,
0.889950927951059,-0.29817643979394,-0.0111027618869204,,
0.893820279811715,-0.297595297074365,-0.011092863879326,,
0.897689631672372,-0.296961458017678,-0.0110997816755853,,
0.901558983533029,-0.296111099301947,-0.0110839386868307,,
0.905428335393686,-0.295379579230129,-0.0110504460527086,,
0.909297687254343,-0.294505096862887,-0.0110604675923791,,
0.913167039114999,-0.293503075518399,-0.0110332596526268,,
0.917036390975656,-0.292582026594348,-0.0109921389128078,,
0.920905742836313,-0.291488948352152,-0.0109691928296796,,
0.92477509469697,-0.290236891291807,-0.0109564381428262,,
0.928644446557626,-0.289092401989015,-0.010915473748291,,
0.932513798418283,-0.287945144398345,-0.0108922941123315,,
0.93638315027894,-0.286608456822866,-0.0108800972500092,,
0.940252502139597,-0.285119117944388,-0.0108363360120647,,
0.944121854000254,-0.283621078732579,-0.0107990891609435,,
0.94799120586091,-0.282113152778348,-0.0107686211324967,,
0.951860557721567,-0.280496868127169,-0.0107172009058361,,
0.955729909582224,-0.278724768415417,-0.0106619357433084,,
0.959599261442881,-0.277103342658179,-0.0106305914091966,,
0.963468613303537,-0.275198463995697,-0.0105783836655515,,
0.967337965164194,-0.273304856219577,-0.0104827408858497,,
0.971207317024851,-0.271438634719965,-0.0104691349857848,,
0.975076668885508,-0.269388420943877,-0.0103863221702958,,
0.978946020746165,-0.26725298344811,-0.0103534935210825,,
0.982815372606821,-0.265211964342475,-0.0102550538979713,,
0.986684724467478,-0.262990215585362,-0.0102014544882816,,
0.990554076328135,-0.260759371025221,-0.0101235231199857,,
0.994423428188792,-0.25863134858627,-0.0100333755874802,,
0.998292780049448,-0.256077009814075,-0.0100255930666884,,
1.00216213191011,-0.25372080136002,-0.00991464582087609,,
1.00603148377076,-0.251322277648399,-0.00980934823735469,,
1.00990083563142,-0.248584836406545,-0.0097458218672406,,
1.01377018749208,-0.245985809558601,-0.00967621347256875,,
1.01763953935273,-0.243295824680374,-0.00960034933635789,,
1.02150889121339,-0.240616912953659,-0.0095015700000376,,
1.02537824307405,-0.237740661848198,-0.00942406906381921,,
1.0292475949347,-0.234929663242723,-0.00931073031422169,,
1.03311694679536,-0.232234537258436,-0.00921383291187272,,
1.03698629865602,-0.229144337046959,-0.00913810774924739,,
1.04085565051667,-0.226192254627119,-0.00901056088071472,,
1.04472500237733,-0.223132406714878,-0.00890074086509651,,
1.04859435423799,-0.22002322395795,-0.00880659591181709,,
1.05246370609864,-0.216823478640435,-0.00870244099999962,,
1.0563330579593,-0.213577463368383,-0.00859686739949606,,
1.06020240981996,-0.210409751096316,-0.00850021899148778,,
1.06407176168061,-0.207130516369727,-0.00839995727025489,,
1.06794111354127,-0.203617954521974,-0.00828845219991159,,
1.07181046540193,-0.200353352174169,-0.00815354166153259,,
1.07567981726258,-0.19679452037188,-0.00806790304980298,,
1.07954916912324,-0.193303215020335,-0.00793024199254289,,
1.0834185209839,-0.189791147509703,-0.00779843519757462,,
1.08728787284455,-0.186157967404399,-0.00768391903287746,,
1.09115722470521,-0.18250382740516,-0.00753702395293132,,
1.09502657656587,-0.178926013057421,-0.00744256823927314,,
1.09889592842652,-0.175134249603665,-0.00732018076510466,,
1.10276528028718,-0.171353163831726,-0.00717742014932954,,
1.10663463214784,-0.167534112968885,-0.00705665210347028,,
1.11050398400849,-0.163743041587099,-0.00691771133110963,,
1.11437333586915,-0.159885729031084,-0.00678127015310004,,
1.11824268772981,-0.156043740925824,-0.0066513761751219,,
1.12211203959047,-0.152028537093327,-0.00650526861216116,,
1.12598139145112,-0.148040324067643,-0.00635196723595799,,
1.12985074331178,-0.143997733958637,-0.00625156268076221,,
1.13372009517244,-0.139935864701907,-0.0060958678705858,,
1.13758944703309,-0.135823375323976,-0.00596231425485438,,
1.14145879889375,-0.131727891143011,-0.00579187087290922,,
1.14532815075441,-0.127585346068117,-0.00565530423263505,,
1.14919750261506,-0.123359752356876,-0.00549284604129419,,
1.15306685447572,-0.119126743588818,-0.00533800051414035,,
1.15693620633638,-0.114907279657879,-0.00519842277951277,,
1.16080555819703,-0.110691177219364,-0.00509244769976158,,
1.16467491005769,-0.106344668648299,-0.0049216491630979,,
1.16854426191835,-0.102142803118872,-0.00476448740951829,,
1.172413613779,-0.0977733573053881,-0.00461431679936819,,
1.17628296563966,-0.0933285745146474,-0.0044172831380509,,
1.18015231750032,-0.089003322439791,-0.00426154200334583,,
1.18402166936097,-0.0844886403801255,-0.00413508955179909,,
1.18789102122163,-0.0800949720477075,-0.00397733909066922,,
1.19176037308229,-0.0756684797304479,-0.00380445595022216,,
1.19562972494294,-0.0711170189889718,-0.00362820656070229,,
1.1994990768036,-0.0666483102815695,-0.00345671315611051,,
1.20336842866426,-0.0621228516726638,-0.00332552209133397,,
1.20723778052491,-0.0576291295069333,-0.00316272225659509,,
1.21110713238557,-0.0530606635684912,-0.00297932344817298,,
1.21497648424623,-0.0484713366035382,-0.00282829004367935,,
1.21884583610688,-0.0440455363582481,-0.00263625750125396,,
1.22271518796754,-0.0394308004652701,-0.00248270906089854,,
1.2265845398282,-0.0348817125419754,-0.00232725938468548,,
1.23045389168886,-0.0302511578611219,-0.00218992259912465,,
1.23432324354951,-0.0256815055135891,-0.00196433758672798,,
1.23819259541017,-0.0210794246509115,-0.00182464018040118,,
1.24206194727083,-0.0163488161367455,-0.00163519988138461,,
1.24593129913148,-0.011780646800576,-0.00151820149403425,,
1.24980065099214,-0.00713110957427193,-0.00130311670810235,,
1.2536700028528,-0.00253624603356253,-0.00114794304887189,,
1.25753935471345,0.00204092023821117,-0.000990611438687505,,
1.26140870657411,0.00665649650429505,-0.000771897898021567,,
1.26527805843477,0.0113107299332497,-0.0006388384105942,,
1.26914741029542,0.0159285801500906,-0.000474417217357193,,
1.27301676215608,0.0205050543498948,-0.000293612582532798,,
1.27688611401674,0.0250936398091661,-0.000111757925061351,,
1.28075546587739,0.0296553827627612,3.29135775154477E-05,,
1.28462481773805,0.0343120384436092,0.000223566035028711,,
1.28849416959871,0.0388334434881218,0.000384238801832471,,
1.29236352145936,0.0434469929720091,0.000591216795272853,,
1.29623287332002,0.0479513928195556,0.000741246501648529,,
1.30010222518068,0.0525305364398137,0.000914083317567371,,
1.30397157704133,0.0569814984445682,0.00106650645791717,,
1.30784092890199,0.0615287078868027,0.00124388307763112,,
