Time domain (s),Current (AC) (A),Potential (AC) (V),Frequency (Hz),Column 5
0,0.416981399059296,0.0159287116840345,0.50119,0.475
0.0048712189987829,0.415323913097382,0.0158713296082569,,
0.00974243799756579,0.413334012031555,0.0158438116468118,,
0.0146136569963487,0.411639392375946,0.0158139036791538,,
0.0194848759951316,0.409700572490692,0.0157352088874201,,
0.0243560949939145,0.407654941082001,0.0156674993536021,,
0.0292273139926974,0.405509173870087,0.0156142833437003,,
0.0340985329914803,0.403234660625458,0.0155516827222462,,
0.0389697519902632,0.400908708572388,0.0154891917341047,,
0.0438409709890461,0.398506820201874,0.015447509148681,,
0.048712189987829,0.395945191383362,0.0153305084775495,,
0.0535834089866119,0.393342196941376,0.015280340273736,,
0.0584546279853947,0.390611827373505,0.0152081193291074,,
0.0633258469841776,0.38764351606369,0.0151252310631698,,
0.0681970659829605,0.384840667247772,0.0149865449228201,,
0.0730682849817434,0.381965279579163,0.0149125643635255,,
0.0779395039805263,0.378791928291321,0.014820582014313,,
0.0828107229793092,0.375716388225555,0.0147221312996617,,
0.0876819419780921,0.372457206249237,0.0146258951779235,,
0.092553160976875,0.369092166423798,0.0145161083787566,,
0.0974243799756579,0.36553829908371,0.0144074617660404,,
0.102295598974441,0.36221045255661,0.014294100920885,,
0.107166817973224,0.358740985393524,0.0141516872479093,,
0.112038036972007,0.354847133159637,0.0140512192803075,,
0.116909255970789,0.351027607917786,0.013946124786917,,
0.121780474969572,0.347204327583313,0.0138224145570587,,
0.126651693968355,0.343361556529999,0.0136914466019111,,
0.131522912967138,0.339399039745331,0.013574561045758,,
0.136394131965921,0.335281491279602,0.0133892971925804,,
0.141265350964704,0.331133544445038,0.0133088427861807,,
0.146136569963487,0.326814889907837,0.0131491563848161,,
0.15100778896227,0.322543382644653,0.0129871841288853,,
0.155879007961053,0.318209826946259,0.0128726392439549,,
0.160750226959836,0.313579738140106,0.0127168722335131,,
0.165621445958618,0.309155166149139,0.0125377971808276,,
0.170492664957401,0.304668605327606,0.0123720754656085,,
0.175363883956184,0.299903988838196,0.012223834782072,,
0.180235102954967,0.295150935649872,0.0120656010220985,,
0.18510632195375,0.290229976177216,0.0118970726940781,,
0.189977540952533,0.285243690013886,0.0117595048135164,,
0.194848759951316,0.280492007732391,0.0115667310784304,,
0.199719978950099,0.27537077665329,0.0113885111655829,,
0.204591197948882,0.27029150724411,0.0111951180022811,,
0.209462416947665,0.265042006969452,0.0110446353175035,,
0.214333635946447,0.25984925031662,0.010869507064069,,
0.21920485494523,0.254486262798309,0.0106674912407372,,
0.224076073944013,0.249189555644989,0.0104692358400245,,
0.228947292942796,0.243762671947479,0.0102997591838512,,
0.233818511941579,0.238296687602997,0.0101051874624396,,
0.238689730940362,0.232781589031219,0.00992297689701616,,
0.243560949939145,0.227352857589722,0.00973370594626566,,
0.248432168937928,0.221674144268036,0.00950698425595498,,
0.253303387936711,0.215960681438446,0.00929247571666014,,
0.258174606935493,0.210260570049286,0.00910447103066891,,
0.263045825934276,0.204382598400116,0.00892307723342389,,
0.267917044933059,0.198535144329071,0.00868795763137342,,
0.272788263931842,0.192665219306946,0.00848924177074828,,
0.277659482930625,0.186664283275604,0.00828047253536424,,
0.282530701929408,0.180806815624237,0.00806964767537055,,
0.287401920928191,0.174737632274628,0.0078668918271787,,
0.292273139926974,0.168636977672577,0.00763519278447955,,
0.297144358925757,0.162578225135803,0.00743316051615039,,
0.30201557792454,0.156463325023651,0.00719295392839836,,
0.306886796923322,0.150191962718964,0.00696932389750149,,
0.311758015922105,0.144030749797821,0.00677097530847304,,
0.316629234920888,0.137718379497528,0.00653237484875024,,
0.321500453919671,0.131490409374237,0.00633281481161863,,
0.326371672918454,0.12503308057785,0.00607653598025015,,
0.331242891917237,0.118769407272339,0.00585788330174175,,
0.33611411091602,0.112396895885468,0.00563186326463105,,
0.340985329914803,0.105976283550262,0.00541551288568565,,
0.345856548913586,0.0996204614639282,0.00514802952977655,,
0.350727767912368,0.0931913256645203,0.00489946888361015,,
0.355598986911151,0.0867621898651123,0.00467256629833379,,
0.360470205909934,0.0802885890007019,0.00443894319099947,,
0.365341424908717,0.0736929774284363,0.00420956837452602,,
0.3702126439075,0.0672727823257446,0.00394657998443071,,
0.375083862906283,0.0607663989067078,0.00372466023320861,,
0.379955081905066,0.054146409034729,0.00350145229056453,,
0.384826300903849,0.0475580096244812,0.0032538509358826,,
0.389697519902632,0.0410191416740417,0.00298880143951186,,
0.394568738901415,0.034437358379364,0.002739824186758,,
0.399439957900197,0.0278298854827881,0.0024960216263552,,
0.40431117689898,0.0212527513504028,0.00226300698390514,,
0.409182395897763,0.0146281123161316,0.00201705561057697,,
0.414053614896546,0.00804156064987183,0.00180183993641636,,
0.418924833895329,0.00134247541427612,0.0015263314220304,,
0.423796052894112,-0.0052611231803894,0.00126959761241485,,
0.428667271892895,-0.0118595957756042,0.00101466178912446,,
0.433538490891678,-0.0184682011604309,0.000803677960827365,,
0.438409709890461,-0.0250218510627747,0.000549175189122231,,
0.443280928889244,-0.0316870808601379,0.000286669185602051,,
0.448152147888026,-0.0382816195487976,4.81509508629685E-05,,
0.453023366886809,-0.0448487401008606,-0.000197054915939798,,
0.457894585885592,-0.0514219403266907,-0.000437831596916904,,
0.462765804884375,-0.0580032467842102,-0.000679836170994097,,
0.467637023883158,-0.0644558072090149,-0.000948763945795683,,
0.472508242881941,-0.0710800290107727,-0.00117796608980214,,
0.477379461880724,-0.0776073336601257,-0.00144880422507487,,
0.482250680879507,-0.0841102004051209,-0.00168907659281414,,
0.48712189987829,-0.0905621647834778,-0.00194851286358322,,
0.491993118877072,-0.0969908833503723,-0.00218970615114777,,
0.496864337875855,-0.103423297405243,-0.00243909726965663,,
0.501735556874638,-0.109820187091827,-0.00267906540495355,,
0.506606775873421,-0.116348564624786,-0.00291161958749075,,
0.511477994872204,-0.122611820697784,-0.00317938799001238,,
0.516349213870987,-0.128866493701935,-0.00339589459642831,,
0.52122043286977,-0.135202705860138,-0.00363690972985964,,
0.526091651868553,-0.141376793384552,-0.00388454671536831,,
0.530962870867336,-0.147592961788177,-0.00411252096627468,,
0.535834089866119,-0.15391331911087,-0.00438778828737307,,
0.540705308864901,-0.1599400639534,-0.00459767030087921,,
0.545576527863684,-0.166045844554901,-0.00484838250080388,,
0.550447746862467,-0.172254860401154,-0.00505876608671496,,
0.55531896586125,-0.178215324878693,-0.00527987455142398,,
0.560190184860033,-0.1841681599617,-0.00555347544617213,,
0.565061403858816,-0.19015246629715,-0.00576883912530501,,
0.569932622857599,-0.196071326732636,-0.00600623635942288,,
0.574803841856382,-0.201904118061066,-0.00623835474954282,,
0.579675060855165,-0.207667171955109,-0.00645691972140128,,
0.584546279853947,-0.213438332080841,-0.00671214333213666,,
0.58941749885273,-0.219186127185822,-0.00690426748984585,,
0.594288717851513,-0.224823296070099,-0.00713642699245831,,
0.599159936850296,-0.230306804180145,-0.00735200719738272,,
0.604031155849079,-0.235977947711945,-0.00756956354276594,,
0.608902374847862,-0.241380512714386,-0.00778501766938167,,
0.613773593846645,-0.246866524219513,-0.00801665093209358,,
0.618644812845428,-0.252206146717072,-0.00819809406432936,,
0.623516031844211,-0.257391273975372,-0.00842876255389102,,
0.628387250842994,-0.262828171253204,-0.00863607914788389,,
0.633258469841776,-0.267875611782074,-0.00882309165239681,,
0.638129688840559,-0.273115932941437,-0.00907715589085223,,
0.643000907839342,-0.278067886829376,-0.00927828916601836,,
0.647872126838125,-0.283201038837433,-0.00946907305648192,,
0.652743345836908,-0.288098514080048,-0.00964086571638267,,
0.657614564835691,-0.292981326580048,-0.00988149165155461,,
0.662485783834474,-0.297718942165375,-0.0100378534227166,,
0.667357002833257,-0.302587330341339,-0.0102440270894264,,
0.67222822183204,-0.307255685329437,-0.0104544134161704,,
0.677099440830823,-0.311763107776642,-0.0106264938635166,,
0.681970659829605,-0.316189110279083,-0.0108148438944418,,
0.686841878828388,-0.320651829242706,-0.0110084563243684,,
0.691713097827171,-0.325031459331512,-0.0111625130551345,,
0.696584316825954,-0.329336583614349,-0.0113492624396971,,
0.701455535824737,-0.333552300930023,-0.0115489266284756,,
0.70632675482352,-0.337652623653412,-0.0116926120478764,,
0.711197973822303,-0.341625154018402,-0.0118911360502043,,
0.716069192821086,-0.345568954944611,-0.0120363344093182,,
0.720940411819869,-0.349424660205841,-0.0122167469884165,,
0.725811630818652,-0.353222191333771,-0.0123822713636734,,
0.730682849817434,-0.356951415538788,-0.0125207601640605,,
0.735554068816217,-0.360753357410431,-0.0126787883615731,,
0.740425287815,-0.364392578601837,-0.0128375785106076,,
0.745296506813783,-0.367618501186371,-0.0129806307976286,,
0.750167725812566,-0.371149837970734,-0.0131295731343655,,
0.755038944811349,-0.374365150928497,-0.013287820598503,,
0.759910163810132,-0.377551376819611,-0.0134451444019827,,
0.764781382808915,-0.380653202533722,-0.0135668839730481,,
0.769652601807698,-0.383699238300323,-0.0136729185720936,,
0.77452382080648,-0.386634171009064,-0.0138087542463174,,
0.779395039805263,-0.389598667621613,-0.0139446557005285,,
0.784266258804046,-0.392228424549103,-0.0140124282735012,,
0.789137477802829,-0.394838750362396,-0.0141815541030748,,
0.794008696801612,-0.397483646869659,-0.0143068622384628,,
0.798879915800395,-0.400006115436554,-0.0144200257436555,,
0.803751134799178,-0.40242463350296,-0.0145261946435089,,
0.808622353797961,-0.4045689702034,-0.0146446644010285,,
0.813493572796744,-0.406714260578156,-0.0147443868621049,,
0.818364791795526,-0.408737003803253,-0.0148298816600483,,
0.823236010794309,-0.410759747028351,-0.0149286804604669,,
0.828107229793092,-0.4127476811409,-0.0150426991054973,,
0.832978448791875,-0.414570033550262,-0.0151187407710678,,
0.837849667790658,-0.416264355182648,-0.0152139901929931,,
0.842720886789441,-0.417762577533722,-0.0152711968554708,,
0.847592105788224,-0.419430553913116,-0.0153733723619154,,
0.852463324787007,-0.420801818370819,-0.0154259990927623,,
0.85733454378579,-0.422282040119171,-0.0154784257428138,,
0.862205762784573,-0.423341691493988,-0.0155808040708862,,
0.867076981783355,-0.424531757831573,-0.0156598908017123,,
0.871948200782138,-0.425458252429962,-0.0156982624610977,,
0.876819419780921,-0.426523149013519,-0.0157493954380614,,
0.881690638779704,-0.427236378192902,-0.0158356549283591,,
0.886561857778487,-0.427931606769562,-0.0158675143689804,,
0.89143307677727,-0.428404748439789,-0.0158905373646117,,
0.896304295776053,-0.429082810878754,-0.0159743191420465,,
0.901175514774836,-0.429317891597748,-0.0160142256678069,,
0.906046733773619,-0.4298956990242,-0.0160112217150439,,
0.910917952772402,-0.430122792720795,-0.0160403622495142,,
0.915789171771184,-0.430045902729034,-0.0160899384334399,,
0.920660390769967,-0.430295884609222,-0.0160957709256664,,
0.92553160976875,-0.429906666278839,-0.0161130683215505,,
0.930402828767533,-0.429724037647247,-0.0161083129766197,,
0.935274047766316,-0.429533779621124,-0.0161499736353807,,
0.940145266765099,-0.429100334644318,-0.016140830217116,,
0.945016485763882,-0.428544342517853,-0.0161772942568632,,
0.949887704762665,-0.428121387958527,-0.0161655415657598,,
0.954758923761448,-0.42738276720047,-0.0161446016030671,,
0.959630142760231,-0.426603615283966,-0.0161302615657881,,
0.964501361759013,-0.425632774829865,-0.0161182238280722,,
0.969372580757796,-0.424723446369171,-0.0161292967926379,,
0.974243799756579,-0.423604786396027,-0.0160667811370008,,
0.979115018755362,-0.422319233417511,-0.0160915390798029,,
0.983986237754145,-0.421152412891388,-0.016058868352669,,
0.988857456752928,-0.419769942760468,-0.0160315669170163,,
0.993728675751711,-0.418217480182648,-0.0160142037411446,,
0.998599894750494,-0.416681110858917,-0.0159744287753587,,
1.00347111374928,-0.414831459522247,-0.0159145251333928,,
1.00834233274806,-0.413044154644012,-0.0158744431943321,,
1.01321355174684,-0.411168396472931,-0.0158150000122785,,
1.01808477074563,-0.409211933612823,-0.015769809160854,,
1.02295598974441,-0.40723067522049,-0.0156851941702438,,
1.02782720874319,-0.405132114887238,-0.0156657232939388,,
1.03269842774197,-0.402721703052521,-0.0155930391485648,,
1.03756964674076,-0.400514543056488,-0.0155246252207135,,
1.04244086573954,-0.39793187379837,-0.0154580778000084,,
1.04731208473832,-0.395305454730988,-0.0153864872469267,,
1.05218330373711,-0.392860233783722,-0.0152834100064867,,
1.05705452273589,-0.389978587627411,-0.0152146041395431,,
1.06192574173467,-0.387319386005402,-0.0151537357244269,,
1.06679696073345,-0.38424414396286,-0.0150647134746533,,
1.07166817973224,-0.381163895130157,-0.0149766340713673,,
1.07653939873102,-0.378300487995148,-0.0148481246432528,,
1.0814106177298,-0.374998867511749,-0.0147696683039742,,
1.08628183672859,-0.371803104877472,-0.0146563924246363,,
1.09115305572737,-0.368354737758636,-0.0145359520083241,,
1.09602427472615,-0.365107953548431,-0.0144514027977016,,
1.10089549372493,-0.361399590969086,-0.01436082375489,,
1.10576671272372,-0.357720196247101,-0.0141974920458838,,
1.1106379317225,-0.354155719280243,-0.0140882725991092,,
1.11550915072128,-0.350465595722198,-0.0139683584226975,,
1.12038036972007,-0.346597492694855,-0.0138321061418862,,
1.12525158871885,-0.342539727687836,-0.0137046245260768,,
1.13012280771763,-0.338569104671478,-0.0135791163098933,,
1.13499402671641,-0.334387123584747,-0.0134474275157159,,
1.1398652457152,-0.330190122127533,-0.0132569917110197,,
1.14473646471398,-0.325921833515167,-0.0131699867141966,,
1.14960768371276,-0.321596443653107,-0.0130184296229561,,
1.15447890271155,-0.317144215106964,-0.0128616101327141,,
1.15935012171033,-0.312729179859161,-0.0126982153845532,,
1.16422134070911,-0.308137238025665,-0.0125600500024379,,
1.16909255970789,-0.30354243516922,-0.0124266947819103,,
1.17396377870668,-0.298705995082855,-0.012241436410398,,
1.17883499770546,-0.294151484966278,-0.0120810017616755,,
1.18370621670424,-0.289220631122589,-0.0119096860066845,,
1.18857743570303,-0.284193217754364,-0.0117034657458168,,
1.19344865470181,-0.27935391664505,-0.0115580261934154,,
1.19831987370059,-0.274349987506866,-0.0114016479772565,,
1.20319109269938,-0.269000351428986,-0.011219782756767,,
1.20806231169816,-0.263927280902863,-0.011002536125492,,
1.21293353069694,-0.258626163005829,-0.0108869140932657,,
1.21780474969572,-0.253420650959015,-0.0106744255477542,,
1.22267596869451,-0.248079597949982,-0.0105037703334712,,
1.22754718769329,-0.242590725421906,-0.0102505831615156,,
1.23241840669207,-0.237178266048431,-0.0100924042181987,,
1.23728962569086,-0.231588542461395,-0.00990991134699515,,
1.24216084468964,-0.225978672504425,-0.00968937023467831,,
1.24703206368842,-0.220417320728302,-0.00948021180103487,,
1.2519032826872,-0.214725315570831,-0.00927916623251868,,
1.25677450168599,-0.208960831165314,-0.00907366955151367,,
1.26164572068477,-0.203175485134125,-0.00889836588477921,,
1.26651693968355,-0.197338759899139,-0.00868067797942107,,
1.27138815868234,-0.191462814807892,-0.00846187455510794,,
1.27625937768112,-0.185605823993683,-0.00826034111835083,,
1.2811305966799,-0.179552376270294,-0.00801737451195628,,
1.28600181567868,-0.173562347888947,-0.00782113088252867,,
1.29087303467747,-0.167616546154022,-0.00762032376646715,,
1.29574425367625,-0.161403000354767,-0.00738255377908636,,
1.30061547267503,-0.155260860919952,-0.00719170410863557,,
1.30548669167382,-0.149065792560577,-0.00695487422690944,,
1.3103579106726,-0.142822682857513,-0.00674196633397761,,
1.31522912967138,-0.136538326740265,-0.00649879964678757,,
1.32010034867016,-0.13034850358963,-0.00627988384832889,,
1.32497156766895,-0.124053776264191,-0.00603391054833846,,
1.32984278666773,-0.117601215839386,-0.00579826470638789,,
1.33471400566651,-0.111271321773529,-0.00556411261832057,,
1.3395852246653,-0.104948222637177,-0.0053575168633575,,
1.34445644366408,-0.0984694361686707,-0.00509964012645892,,
1.34932766266286,-0.0919330716133118,-0.00486721476306373,,
1.35419888166165,-0.0854491591453552,-0.00463455094721432,,
1.35907010066043,-0.079113781452179,-0.00439048526686125,,
1.36394131965921,-0.0725143551826477,-0.00414624417320875,,
1.36881253865799,-0.0660079121589661,-0.0039002023523973,,
1.37368375765678,-0.0595424771308899,-0.00365089894053838,,
1.37855497665556,-0.0529902577400208,-0.00342196265731465,,
1.38342619565434,-0.0463563799858093,-0.00317684449716182,,
1.38829741465313,-0.0397327542304993,-0.00293904984228588,,
1.39316863365191,-0.0331819653511047,-0.00267468281328531,,
1.39803985265069,-0.0266092419624329,-0.00243942891042703,,
1.40291107164947,-0.0199493765830994,-0.00218916072541786,,
1.40778229064826,-0.0134474635124207,-0.00192816766161075,,
1.41265350964704,-0.0067179799079895,-0.00169264789796975,,
1.41752472864582,-0.000109493732452393,-0.00144433118592335,,
1.42239594764461,0.00648224353790283,-0.00119037658078058,,
1.42726716664339,0.0131036639213562,-0.000948240446728477,,
1.43213838564217,0.0196911096572876,-0.00073035520140774,,
1.43700960464095,0.0262777805328369,-0.000477321516089813,,
1.44188082363974,0.032903790473938,-0.000208369073793069,,
1.44675204263852,0.0394341349601746,9.23112491513223E-06,,
1.4516232616373,0.0460307002067566,0.000271342448510126,,
1.45649448063609,0.0526110529899597,0.00051362658753451,,
1.46136569963487,0.0590969920158386,0.000781712926662514,,
1.46623691863365,0.065623939037323,0.00103772315641537,,
1.47110813763243,0.072239100933075,0.00128218351669318,,
1.47597935663122,0.078713595867157,0.00153629160847357,,
1.48085057563,0.0851933360099792,0.00180219624468192,,
1.48572179462878,0.0916988253593445,0.00201876589025263,,
1.49059301362757,0.0981837511062622,0.00224018132823689,,
1.49546423262635,0.104583978652954,0.00249606547968018,,
1.50033545162513,0.110917747020721,0.00274094244654544,,
1.50520667062391,0.117311239242554,0.0029705803829696,,
1.5100778896227,0.123731315135956,0.00326143207944396,,
1.51494910862148,0.130014061927795,0.00347504162557621,,
1.51982032762026,0.13630884885788,0.00371571415490646,,
1.52469154661905,0.142622649669647,0.00396620434737338,,
1.52956276561783,0.148874938488007,0.00419873660324788,,
1.53443398461661,0.154928863048553,0.00446036554026774,,
1.5393052036154,0.16110622882843,0.00465154411065649,,
1.54417642261418,0.167315185070038,0.00491619892710249,,
1.54904764161296,0.173379600048065,0.00516353168016837,,
1.55391886061174,0.179412066936493,0.00539076316538223,,
1.55879007961053,0.185415923595428,0.00564137943615872,,
1.56366129860931,0.191142201423645,0.00585174383623999,,
1.56853251760809,0.197204351425171,0.00608703336992455,,
1.57340373660688,0.203114688396454,0.00627580000743766,,
1.57827495560566,0.208732306957245,0.00655221847831777,,
1.58314617460444,0.214576423168182,0.0067732118280488,,
1.58801739360322,0.22013396024704,0.00695939111938593,,
1.59288861260201,0.225822627544403,0.00721597692402964,,
1.59775983160079,0.231477975845337,0.0074397768865615,,
1.60263105059957,0.23703396320343,0.00767183223752665,,
1.60750226959836,0.24255633354187,0.00785327536976244,,
1.61237348859714,0.247964560985565,0.00807418649450931,,
1.61724470759592,0.25333559513092,0.00828869503380414,,
1.6221159265947,0.258517503738403,0.00848824958926997,,
1.62698714559349,0.263852775096893,0.00868880728954524,,
1.63185836459227,0.268949687480927,0.0089321329450387,,
1.63672958359105,0.274146258831024,0.00913633595295593,,
1.64160080258984,0.279256999492645,0.00933383488381168,,
1.64647202158862,0.284208953380585,0.00952755694705099,,
1.6513432405874,0.289038360118866,0.00970963047083417,,
1.65621445958618,0.293910205364227,0.00992242873045335,,
