Time domain (s),Current (AC) (A),Potential (AC) (V),Frequency (Hz),Column 5
0,-0.0534849772228361,-0.00314393220051867,1,0.35
0.00244140625,-0.0485670380852529,-0.00301517443932919,,
0.0048828125,-0.0436687426720944,-0.00281951238127309,,
0.00732421875,-0.038776181102822,-0.00266866528533249,,
0.009765625,-0.0339635748010728,-0.00243467595455371,,
0.01220703125,-0.028909297597753,-0.00228624094825935,,
0.0146484375,-0.0240567667533893,-0.00214707169322637,,
0.01708984375,-0.0191061234691964,-0.00197020521992197,,
0.01953125,-0.014138172471051,-0.00179209527281676,,
0.02197265625,-0.0091708585666707,-0.0015817444205708,,
0.0244140625,-0.00423677972037105,-0.001411667147865,,
0.02685546875,0.00074656771043154,-0.00123575095470541,,
0.029296875,0.00570273247392216,-0.00106402680699969,,
0.03173828125,0.0106134512155006,-0.000879443726214735,,
0.0341796875,0.0155585730203957,-0.000729045778001591,,
0.03662109375,0.0205520608602932,-0.000506703097316041,,
0.0390625,0.0255104023608147,-0.000342812002797732,,
0.04150390625,0.0303867180390764,-0.000176510898020954,,
0.0439453125,0.0352974367806548,-1.8756076389792E-06,,
0.04638671875,0.0401941394594005,0.000185032228511961,,
0.048828125,0.0450551648872992,0.000360836134739806,,
0.05126953125,0.0500164264009108,0.000567348437428006,,
0.0537109375,0.0548366778278415,0.000715729379644259,,
0.05615234375,0.059682837734554,0.0009191309184442,,
0.05859375,0.0644831268901776,0.00107729330005313,,
0.06103515625,0.0693866252357512,0.00125315958790972,,
0.0634765625,0.0742803548102597,0.00144371051118108,,
0.06591796875,0.0790271280896128,0.00160022185901498,,
0.068359375,0.0838367612871248,0.00176482202471373,,
0.07080078125,0.0886281311300366,0.00195472833782118,,
0.0732421875,0.0933859473679851,0.00217243190471272,,
0.07568359375,0.0980851509795423,0.00228758007389018,,
0.078125,0.102693037818098,0.00251652481028808,,
0.08056640625,0.107442784201689,0.00266262258489069,,
0.0830078125,0.112058740894603,0.0028197702253383,,
0.08544921875,0.116660681524684,0.00302311770006014,,
0.087890625,0.121297449947259,0.00318619159524136,,
0.09033203125,0.12591383136935,0.0033421290320903,,
0.0927734375,0.130451160073419,0.00353166937297544,,
0.09521484375,0.134963535938353,0.00371986227067911,,
0.09765625,0.139445702940591,0.00386011280727772,,
0.10009765625,0.143893891608689,0.00401623323023781,,
0.1025390625,0.148223633927621,0.00422939541455403,,
0.10498046875,0.152624624565953,0.00436136167085088,,
0.107421875,0.157050302587684,0.0044991169422981,,
0.10986328125,0.161239034819935,0.00470605759883735,,
0.1123046875,0.165514358713096,0.00485596065279559,,
0.11474609375,0.169698312742109,0.00502355513667618,,
0.1171875,0.173841492770154,0.00518677874776685,,
0.11962890625,0.178039569044294,0.00536071536390637,,
0.1220703125,0.182161565704648,0.00550141088945688,,
0.12451171875,0.186235514876883,0.00567460308482648,,
0.126953125,0.190270123509121,0.00583355147495768,,
0.12939453125,0.19421410555327,0.00597778195947241,,
0.1318359375,0.198235866127912,0.00610478679689308,,
0.13427734375,0.202018132538014,0.00626042480192401,,
0.13671875,0.205804540057589,0.00641574674003564,,
0.13916015625,0.20956636637606,0.00657015374759196,,
0.1416015625,0.213295913277098,0.00671572751651306,,
0.14404296875,0.21694518636373,0.00685970431573724,,
0.146484375,0.220605502408958,0.00701965081192935,,
0.14892578125,0.224140523347044,0.00713466590029865,,
0.1513671875,0.227691206173524,0.00730394468815598,,
0.15380859375,0.231183860376229,0.00743527881061423,,
0.15625,0.234622414700047,0.00755032716918524,,
0.15869140625,0.237928081882689,0.00771348423987206,,
0.1611328125,0.241256684440875,0.00781380637527596,,
0.16357421875,0.244277783075094,0.00798368818554485,,
0.166015625,0.247563912715606,0.00807243229064714,,
0.16845703125,0.250857262752122,0.0082213372385449,,
0.1708984375,0.253826969155955,0.00836476507943607,,
0.17333984375,0.256774961280626,0.008470214984726,,
0.17578125,0.259792290443402,0.00856854506678406,,
0.17822265625,0.262582814225794,0.00873161480319018,,
0.1806640625,0.265487908703614,0.00882866814124617,,
0.18310546875,0.268170922913141,0.00896861924602632,,
0.185546875,0.27093373311675,0.00904733238522093,,
0.18798828125,0.273519962165125,0.00917516066014201,,
0.1904296875,0.276171121686396,0.00929062489623833,,
0.19287109375,0.278505857970988,0.00939331753353612,,
0.1953125,0.281066550177611,0.00950305513611038,,
0.19775390625,0.283371130690654,0.00962094809695424,,
0.2001953125,0.285702044412656,0.00969785216891417,,
0.20263671875,0.287901716819042,0.00978766092048122,,
0.205078125,0.290119280941998,0.00987754453000278,,
0.20751953125,0.292246271568013,0.00997614077367714,,
0.2099609375,0.294281095962673,0.0100776440012527,,
0.21240234375,0.296350801240974,0.0101526891006749,,
0.21484375,0.298203045180779,0.0102349787865865,,
0.21728515625,0.299987013905421,0.0103268087029256,,
0.2197265625,0.301795032919697,0.0103842497067062,,
0.22216796875,0.303561481565798,0.0104871544415417,,
0.224609375,0.305059501372194,0.0105498230258143,,
0.22705078125,0.306707025848805,0.0106230133114744,,
0.2294921875,0.308033455067794,0.0107162364175228,,
0.23193359375,0.309456297809905,0.0107666407735771,,
0.234375,0.310721990756619,0.010830120319024,,
0.23681640625,0.311989807349216,0.0108990894478032,,
0.2392578125,0.313324784242887,0.0109732154578945,,
0.24169921875,0.314443096165269,0.0110301906788468,,
0.244140625,0.315412275055464,0.011094535249546,,
0.24658203125,0.316297835388987,0.0111476677621654,,
0.2490234375,0.317217851876974,0.0111760763559121,,
0.25146484375,0.318074902264507,0.0112240228757923,,
0.25390625,0.318804162260986,0.0112834101863908,,
0.25634765625,0.319271364355411,0.0113238293230649,,
0.2587890625,0.320065183186756,0.0113505369777331,,
0.26123046875,0.320483116696677,0.0114123155841019,,
0.263671875,0.320757491744858,0.011418042217624,,
0.26611328125,0.321339370717004,0.0114843497302419,,
0.2685546875,0.321496945241579,0.0115090653315644,,
0.27099609375,0.321884722979951,0.0115134237280285,,
0.2734375,0.321938238856221,0.0115356024764472,,
0.27587890625,0.322035024017373,0.0115636118277695,,
0.2783203125,0.32195177709873,0.0115575899212046,,
0.28076171875,0.321811244832373,0.0115865890610367,,
0.283203125,0.321673632579106,0.0116261930777615,,
0.28564453125,0.321528375200658,0.0116149477494805,,
0.2880859375,0.321155462983472,0.0116103398265008,,
0.29052734375,0.320594395740986,0.0116246626484688,,
0.29296875,0.320246967274405,0.0116241968656405,,
0.29541015625,0.319699491365574,0.011643892825234,,
0.2978515625,0.319124408060255,0.0116290418388094,,
0.30029296875,0.318387980758919,0.0116099946481549,,
0.302734375,0.317704113693205,0.0116184286443661,,
0.30517578125,0.316752720337286,0.0116067799148851,,
0.3076171875,0.315818740877614,0.01161907325453,,
0.31005859375,0.314822379320106,0.0115754227494853,,
0.3125,0.313775793537448,0.0115273805777742,,
0.31494140625,0.312658277982273,0.0115254010007542,,
0.3173828125,0.311273236136893,0.0114848945297998,,
0.31982421875,0.310195326577449,0.0114783236649014,,
0.322265625,0.308586452455922,0.0114304644793015,,
0.32470703125,0.307372151739595,0.0114400962027852,,
0.3271484375,0.305764551805598,0.0113981591131438,,
0.32958984375,0.304226660547735,0.0113424273659919,,
0.33203125,0.302562518542083,0.0113199575033054,,
0.33447265625,0.300922639190653,0.0112822623644213,,
0.3369140625,0.299194893990783,0.0112069552621579,,
0.33935546875,0.297292478916975,0.0111666151422138,,
0.341796875,0.295241461722451,0.01109905999702,,
0.34423828125,0.293280487113398,0.0110511010008141,,
0.3466796875,0.291315743032902,0.0109903329768319,,
0.34912109375,0.289064625304982,0.01090333139856,,
0.3515625,0.286811437022326,0.0108624090500804,,
0.35400390625,0.2846134104415,0.0108191245172575,,
0.3564453125,0.282244271093591,0.0107443164680245,,
0.35888671875,0.279889200899661,0.0106635031473279,,
0.361328125,0.277288159421247,0.0105758361650157,,
0.36376953125,0.274947954748504,0.0105404200349697,,
0.3662109375,0.272262763801946,0.0104387005510809,,
0.36865234375,0.269488432819418,0.0103772338528563,,
0.37109375,0.266760822046332,0.0102809831584239,,
0.37353515625,0.264025566148065,0.0102063539365269,,
0.3759765625,0.261133160454401,0.010123527768608,,
0.37841796875,0.258313436541108,0.0100309991780261,,
0.380859375,0.255344951233658,0.00991953152494673,,
0.38330078125,0.252216820846897,0.00984592120298666,,
0.3857421875,0.249168539545366,0.00976166441638116,,
0.38818359375,0.24615338711962,0.00964049434063874,,
0.390625,0.242846021020272,0.00954001833055029,,
0.39306640625,0.239618026185828,0.00942103161181551,,
0.3955078125,0.236268664989128,0.00932962173177643,,
0.39794921875,0.232935815139174,0.00921568376619719,,
0.400390625,0.229302681761258,0.00911213026242264,,
0.40283203125,0.225769359739879,0.00902118200643676,,
0.4052734375,0.222312064241137,0.00889539153138941,,
0.40771484375,0.218735472934877,0.00879017451751363,,
0.41015625,0.21501394279705,0.00866755718798373,,
0.41259765625,0.211413088836567,0.00851210632783905,,
0.4150390625,0.207752772791339,0.00839913735689368,,
0.41748046875,0.203792597947326,0.00828543228272904,,
0.419921875,0.199953895647864,0.00817257975749053,,
0.42236328125,0.196083763389322,0.00803350615428844,,
0.4248046875,0.192133782045551,0.00787979782097459,,
0.42724609375,0.188135381575631,0.00779171911991261,,
0.4296875,0.184231695712125,0.00764975516791022,,
0.43212890625,0.180044290758551,0.00749326877272782,,
0.4345703125,0.175932912327616,0.00736413048360296,,
0.43701171875,0.171834700501159,0.00724622088765825,,
0.439453125,0.167643897714171,0.0070921964874251,,
0.44189453125,0.16336565380792,0.00696077503068659,,
0.4443359375,0.159068190906421,0.006821426948318,,
0.44677734375,0.154891828911442,0.0066652566200549,,
0.44921875,0.150472521827363,0.00653270813522289,,
0.45166015625,0.146055710027198,0.00634170390544897,,
0.4541015625,0.141598177317211,0.00619426700521508,,
0.45654296875,0.137214653666273,0.00606364819210059,,
0.458984375,0.132692509030273,0.0059102559257056,,
0.46142578125,0.128082073816657,0.00578339664541838,,
0.4638671875,0.1236075519396,0.005605467605037,,
0.46630859375,0.119052384610108,0.00543768597627015,,
0.46875,0.114398998658493,0.00528371148134044,,
0.47119140625,0.109707917992441,0.00510942968685457,,
0.4736328125,0.105057133507033,0.00497218594476356,,
0.47607421875,0.100415162152043,0.00479567088796751,,
0.478515625,0.0956370120047578,0.00464981016355415,,
0.48095703125,0.090942533505292,0.00445854393093947,,
0.4833984375,0.0861948576764383,0.00430668209383756,,
0.48583984375,0.0813856492081031,0.00412266460648691,,
0.48828125,0.0766503967076693,0.00398198155726215,,
0.49072265625,0.0718708130994123,0.00381235759105891,,
0.4931640625,0.0669151261562456,0.00362898471387263,,
0.49560546875,0.0621288530634548,0.00348392663308283,,
0.498046875,0.0572733491148538,0.00329012770633952,,
0.50048828125,0.0524140226036621,0.00314009573034824,,
0.5029296875,0.0475415294879911,0.0029647118604208,,
0.50537109375,0.0426728589349109,0.0028029729320953,,
0.5078125,0.0376589310033823,0.00260517742233501,,
0.51025390625,0.0327681745331112,0.00240159289742392,,
0.5126953125,0.0278175312489183,0.00227334042742733,,
0.51513671875,0.0229441886748938,0.00206427047795898,,
0.517578125,0.0179956159454376,0.0019139889754527,,
0.52001953125,0.0130216656476706,0.00167389456260425,,
0.5224609375,0.00812793607316215,0.00147678525076023,,
0.52490234375,0.00321594314405348,0.00137322758821012,,
0.52734375,-0.00175721078650712,0.00117956590105051,,
0.52978515625,-0.00671464973752799,0.00104966239727888,,
0.5322265625,-0.0117174285281669,0.000845716058921031,,
0.53466796875,-0.0166287843635104,0.000686451601870086,,
0.537109375,-0.0215797461945859,0.000506476444064763,,
0.53955078125,-0.0265495022917325,0.000323269917888336,,
0.5419921875,-0.0314262426991709,0.000123602959264613,,
0.54443359375,-0.0363552247953496,-6.60039220248265E-05,,
0.546875,-0.0413088411837797,-0.000216449696153198,,
0.54931640625,-0.0461885546954554,-0.000411001361217078,,
0.5517578125,-0.0511013970829175,-0.00055582655059272,,
0.55419921875,-0.0559263205307926,-0.000714340348710429,,
0.556640625,-0.0607529428953746,-0.000940862598524106,,
0.55908203125,-0.0656802260748462,-0.00107860123487047,,
0.5615234375,-0.0705090782676061,-0.0012716827728827,,
0.56396484375,-0.0753470621376662,-0.0014743336527494,,
0.56640625,-0.0801647651895365,-0.00162980322738271,,
0.56884765625,-0.0848720386554518,-0.00180503738140114,,
0.5712890625,-0.0896332527268144,-0.00199364407724234,,
0.57373046875,-0.0943535866149148,-0.00215723573994264,,
0.576171875,-0.0990932456805574,-0.00234260067047476,,
0.57861328125,-0.103813261021775,-0.00251176093323746,,
0.5810546875,-0.108461497132122,-0.0026631757019997,,
0.58349609375,-0.113057066824553,-0.00287184640904403,,
0.5859375,-0.117691286872067,-0.00303380575245793,,
0.58837890625,-0.12219766343738,-0.00322496177752862,,
0.5908203125,-0.126826892917068,-0.00338908160468598,,
0.59326171875,-0.131342082612798,-0.00354199145315137,,
0.595703125,-0.135914292200507,-0.00372190214994061,,
0.59814453125,-0.140261820053716,-0.0039068823937618,,
0.6005859375,-0.144639078949296,-0.0040637347611665,,
0.60302734375,-0.149064756971027,-0.00421074122816156,,
0.60546875,-0.153372041734738,-0.00438515818284291,,
0.60791015625,-0.157831698090609,-0.00455209142145829,,
0.6103515625,-0.162133249010434,-0.00471869195805352,,
0.61279296875,-0.166256519858319,-0.00490841528504982,,
0.615234375,-0.170620612149421,-0.0050215672421059,,
0.61767578125,-0.174727318559412,-0.00518685360572135,,
0.6201171875,-0.178828822036988,-0.00538300016109439,,
0.62255859375,-0.182895816268954,-0.00553169924961727,,
0.625,-0.187046163601856,-0.00565581373823809,,
0.62744140625,-0.190966413903255,-0.00583276130766031,,
0.6298828125,-0.194948674664459,-0.00596418068501103,,
0.63232421875,-0.198778351468915,-0.00613041316999619,,
0.634765625,-0.20272716480745,-0.00627176162326126,,
0.63720703125,-0.206627452837541,-0.00643616632652355,,
0.6396484375,-0.210099613857469,-0.00659817557524045,,
0.64208984375,-0.213945961282113,-0.00672701443254731,,
0.64453125,-0.21761816974429,-0.00689058530137121,,
0.64697265625,-0.221394012125593,-0.00700119624674889,,
0.6494140625,-0.224817223107901,-0.00717431566355131,,
0.65185546875,-0.228267404392931,-0.00730795998566203,,
0.654296875,-0.231724593709379,-0.0074363185044275,,
0.65673828125,-0.235138673014386,-0.00758265748799491,,
0.6591796875,-0.238477469072814,-0.00770856856752422,,
0.66162109375,-0.241756378317321,-0.00782862201211154,,
0.6640625,-0.245057373479018,-0.00797782223305221,,
0.66650390625,-0.248168939427886,-0.00810907525939308,,
0.6689453125,-0.251398898634772,-0.00822866500053943,,
0.67138671875,-0.254295657802498,-0.00833875609901025,,
0.673828125,-0.257443219549095,-0.00843029698046971,,
0.67626953125,-0.260400290259919,-0.00855870748392595,,
0.6787109375,-0.263138943991601,-0.00870584287295406,,
0.68115234375,-0.266053966513927,-0.00885973419237907,,
0.68359375,-0.268866416940068,-0.00896137258015006,,
0.68603515625,-0.271478926106255,-0.00905699322013165,,
0.6884765625,-0.274071048271958,-0.00916084615572466,,
0.69091796875,-0.276579923519017,-0.00929236534368183,,
0.693359375,-0.279251045311595,-0.00936494220999196,,
0.69580078125,-0.281595125638076,-0.00949534476679359,,
0.6982421875,-0.283908200734654,-0.00958520550305142,,
0.70068359375,-0.286285834666098,-0.00968891080212275,,
0.703125,-0.288554313199118,-0.00977509726044534,,
0.70556640625,-0.290587491768218,-0.00989284258476753,,
0.7080078125,-0.292603362623365,-0.00999291727304419,,
0.71044921875,-0.294668820609898,-0.010094757361415,,
0.712890625,-0.296671418678273,-0.0101683843184763,,
0.71533203125,-0.298536723040262,-0.010270509282952,,
0.7177734375,-0.300409778709728,-0.0103310756063348,,
0.72021484375,-0.302014405539488,-0.0104171456189501,,
0.72265625,-0.303769386497817,-0.010481523459851,,
0.72509765625,-0.305304782471767,-0.0105647301557052,,
0.7275390625,-0.306982887449104,-0.010645562190891,,
0.72998046875,-0.30838024644061,-0.0107050992173985,,
0.732421875,-0.309686288659115,-0.0107856131062771,,
0.73486328125,-0.311016115711518,-0.0108481111807643,,
0.7373046875,-0.312324706305083,-0.0109205237754519,,
0.73974609375,-0.313461281582065,-0.0110015533524619,,
0.7421875,-0.31454519044113,-0.0110502442931124,,
0.74462890625,-0.31553438469378,-0.0110656317615447,,
0.7470703125,-0.316560530384807,-0.0111462787312315,,
0.74951171875,-0.317418801868723,-0.0111871678095095,,
0.751953125,-0.318239060091321,-0.011246605025411,,
0.75439453125,-0.318804799354751,-0.0112857640531838,,
0.7568359375,-0.319480862021843,-0.0113141456148909,,
0.75927734375,-0.320128574016386,-0.0113626015847399,,
0.76171875,-0.320604483058934,-0.0114305393372565,,
0.76416015625,-0.320865691502635,-0.0114603328031619,,
0.7666015625,-0.321406371744637,-0.0114595343183135,,
0.76904296875,-0.321507032559526,-0.0115101549306806,,
0.771484375,-0.321876016031828,-0.01155866288522,,
0.77392578125,-0.321894810297899,-0.0115879905682972,,
0.7763671875,-0.321970305909066,-0.0115840147791562,,
0.77880859375,-0.322010761363151,-0.0116033114963257,,
0.78125,-0.321791176378772,-0.011633071692029,,
0.78369140625,-0.321698903965123,-0.0115999678410228,,
0.7861328125,-0.321364748285315,-0.0116005500695584,,
0.78857421875,-0.321059261824938,-0.0116502391162689,,
0.791015625,-0.320584520787626,-0.0116655579649096,,
0.79345703125,-0.32020906019538,-0.0116266838132417,,
0.7958984375,-0.319634613983826,-0.0116296115910193,,
0.79833984375,-0.319013341380536,-0.0116467956503605,,
0.80078125,-0.318095926358756,-0.0116219740002688,,
0.80322265625,-0.317372187841575,-0.0116568266162682,,
0.8056640625,-0.316562229301514,-0.0116042929672848,,
0.80810546875,-0.315561461178798,-0.0115871588132466,,
0.810546875,-0.314611023463526,-0.0115807210291567,,
0.81298828125,-0.313484960233669,-0.0115549199874931,,
0.8154296875,-0.312266518407869,-0.0115550863385034,,
0.81787109375,-0.311073029421202,-0.011497878226137,,
0.8203125,-0.309850658850517,-0.0114896105809357,,
0.82275390625,-0.308412525858043,-0.011435962380185,,
0.8251953125,-0.307042349533849,-0.0114267798044287,,
0.82763671875,-0.30550950193496,-0.0114041061617547,,
0.830078125,-0.303825875478325,-0.0113719837817081,,
0.83251953125,-0.30226499575377,-0.011299057578277,,
0.8349609375,-0.300527853420864,-0.0112544401579857,,
0.83740234375,-0.298716383482028,-0.0112224009534443,,
0.83984375,-0.29688410181353,-0.0111589026935093,,
0.84228515625,-0.294949885142612,-0.0111143726074983,,
0.8447265625,-0.292948561261768,-0.0110624710923535,,
0.84716796875,-0.290838931440853,-0.011028053068368,,
0.849609375,-0.288560684136769,-0.0109560230810031,,
0.85205078125,-0.286376301980746,-0.0108942902211626,,
0.8544921875,-0.283964158803691,-0.0108051946995511,,
0.85693359375,-0.281765442037953,-0.0107772144596558,,
0.859375,-0.279365297460141,-0.0106776658564489,,
0.86181640625,-0.27696897544492,-0.0106129573929152,,
0.8642578125,-0.274347971695198,-0.0105485462818122,,
0.86669921875,-0.271739709820779,-0.0104611620962172,,
0.869140625,-0.269044803194303,-0.0103463819786498,,
0.87158203125,-0.266166095016589,-0.0103026150278978,,
0.8740234375,-0.263367342106398,-0.0102004755077085,,
0.87646484375,-0.260577827055801,-0.0100871218500522,,
0.87890625,-0.257633179673396,-0.010017653668243,,
0.88134765625,-0.254611550127705,-0.00997328785385454,,
0.8837890625,-0.251684422823842,-0.00989462046118783,,
0.88623046875,-0.248482814289503,-0.00977860726675805,,
0.888671875,-0.245315184089305,-0.00963128473284325,,
0.89111328125,-0.242176860202303,-0.00954200622512102,,
0.8935546875,-0.238818208054861,-0.00943400906998937,,
0.89599609375,-0.235517956169223,-0.00933174062776754,,
0.8984375,-0.232014365190216,-0.00920972008248633,,
0.90087890625,-0.228627043823344,-0.00913283264562725,,
0.9033203125,-0.22513672563111,-0.00901558845372286,,
