Time domain (s),Current (AC) (A),Potential (AC) (V),Frequency (Hz),Column 5
0,0.0166794512906155,0.000262257002571875,0.79433,0.1
0.00307354153815165,0.0180930570100642,0.000316136022112889,,
0.0061470830763033,0.0195400558923995,0.000361387764322707,,
0.00922062461445495,0.0209363678474332,0.000417323106238321,,
0.0122941661526066,0.0223875388299821,0.0004740568016115,,
0.0153677076907583,0.0237942074102521,0.00053252213687971,,
0.0184412492289099,0.0251901430582077,0.000553256837953597,,
0.0215147907670615,0.02662244960332,0.000615875578974912,,
0.0245883323052132,0.0280297889918596,0.000674128675911767,,
0.0276618738433649,0.0294568763214105,0.000710651941056017,,
0.0307354153815165,0.0307888070437355,0.000803917334884829,,
0.0338089569196681,0.0321944285086577,0.000845471070144654,,
0.0368824984578198,0.03360175153602,0.000869500384784061,,
0.0399560399959715,0.0349216404318461,0.000916485172439696,,
0.0430295815341231,0.0362739735422747,0.000981753378721972,,
0.0461031230722748,0.0376163917792545,0.00101354696184908,,
0.0491766646104264,0.0389625894481925,0.00107291747251637,,
0.052250206148578,0.0403497555051108,0.00113956452517527,,
0.0553237476867297,0.0416009274562414,0.00116317076870409,,
0.0583972892248813,0.0429717323358513,0.00117178961272435,,
0.061470830763033,0.0441977571574588,0.00125221529029051,,
0.0645443723011846,0.045570541739523,0.0013047210856616,,
0.0676179138393363,0.0468319230652941,0.00135439328847875,,
0.0706914553774879,0.0480832095446658,0.00139725137586666,,
0.0737649969156396,0.0494303561618877,0.00145278191884612,,
0.0768385384537913,0.050600883870065,0.00149366098921178,,
0.0799120799919429,0.051757815439899,0.00152892909654279,,
0.0829856215300945,0.0530360651394751,0.00158348137542585,,
0.0860591630682462,0.0542630552705438,0.00162493391095131,,
0.0891327046063978,0.0554481117041711,0.00168672056527042,,
0.0922062461445495,0.0565992841395925,0.00172504855900568,,
0.0952797876827012,0.0578270105236401,0.00177737444373882,,
0.0983533292208528,0.0589978490941863,0.0018034277530603,,
0.101426870759004,0.060058167912014,0.00186378777223872,,
0.104500412297156,0.061207507895577,0.0018880644640058,,
0.107573953835308,0.0623384088323132,0.00192578947599253,,
0.110647495373459,0.0634576278884513,0.00193764671150332,,
0.113721036911611,0.0646004234010909,0.00200875639132558,,
0.116794578449763,0.0656344334458066,0.00206788514707235,,
0.119868119987914,0.0666153351089792,0.00209107534725028,,
0.122941661526066,0.0677051204071394,0.002138511317054,,
0.126015203064218,0.0687112673668989,0.00216683599818479,,
0.129088744602369,0.0696765768280965,0.00222196174222766,,
0.132162286140521,0.0706890064799424,0.00227282023081621,,
0.135235827678673,0.0716603368543896,0.00231940021953614,,
0.138309369216824,0.0726564053289271,0.00233608693124632,,
0.141382910754976,0.0735854584212092,0.00236064473338615,,
0.144456452293128,0.0744681766593539,0.0024323728560276,,
0.147529993831279,0.075344873984249,0.00244801243160042,,
0.150603535369431,0.0761908122958043,0.00250952781440983,,
0.153677076907583,0.077099577528224,0.00253338284061799,,
0.156750618445734,0.0780254892744629,0.00254057364394633,,
0.159824159983886,0.0787989148481873,0.00259554056062861,,
0.162897701522037,0.0795846603884248,0.00263412014814746,,
0.165971243060189,0.0803840020670057,0.00265976303632476,,
0.169044784598341,0.0811948456532344,0.00267957569537725,,
0.172118326136492,0.0820115956244715,0.00272613319526682,,
0.175191867674644,0.0827165660323373,0.00272784094077982,,
0.178265409212796,0.0833074008672995,0.00278445797534888,,
0.181338950750947,0.0840643343742969,0.00281205598616685,,
0.184412492289099,0.0847462682445124,0.00284413770742598,,
0.187486033827251,0.0853244068058833,0.00289136987220973,,
0.190559575365402,0.0860876230049671,0.00288336947100865,,
0.193633116903554,0.0866432322251842,0.00289631741476537,,
0.196706658441706,0.0872548784776828,0.00293417314307476,,
0.199780199979857,0.0878054157329343,0.00299706175005365,,
0.202853741518009,0.0884152458947516,0.00299624793552544,,
0.205927283056161,0.0888719027146073,0.00300661388051049,,
0.209000824594312,0.0894451983674948,0.00304719497388151,,
0.212074366132464,0.0900310594045552,0.00306080633811678,,
0.215147907670616,0.0904593295817808,0.00307716133958769,,
0.218221449208767,0.0908341968762717,0.00309738441978391,,
0.221294990746919,0.0912366818380592,0.00311192344824818,,
0.22436853228507,0.0916731980486482,0.0031286101599588,,
0.227442073823222,0.0920634939333409,0.00315657501981281,,
0.230515615361374,0.0924626084926028,0.00318709095629721,,
0.233589156899525,0.0927954439225883,0.00319294929645952,,
0.236662698437677,0.0930619347785881,0.0032424823496422,,
0.239736239975829,0.0933869332046429,0.00323791852274491,,
0.24280978151398,0.0936220106002104,0.00325863073498889,,
0.245883323052132,0.0939273756134951,0.00326018246424509,,
0.248956864590284,0.0941099663522572,0.00327004241055961,,
0.252030406128435,0.0942996251196166,0.00329225575219283,,
0.255103947666587,0.0945578535810756,0.00327286475869926,,
0.258177489204739,0.0947696490213333,0.00333232663023786,,
0.26125103074289,0.0948458266628813,0.00332806921364659,,
0.264324572281042,0.0950362544055742,0.00331586902348091,,
0.267398113819194,0.0951251446818909,0.00334564985634156,,
0.270471655357345,0.0950053808639932,0.00335070984304586,,
0.273545196895497,0.095275798402547,0.00336866155143234,,
0.276618738433648,0.0951799873482288,0.00335895340471914,,
0.2796922799718,0.0952268457600402,0.00338331302404615,,
0.282765821509952,0.0952706773540495,0.00338362224545596,,
0.285839363048103,0.0952286618507214,0.00336250663982707,,
0.288912904586255,0.0951907202805432,0.00338934003043212,,
0.291986446124407,0.0950553806218478,0.00337196178720545,,
0.295059987662558,0.0949237058668695,0.00341077329078132,,
0.29813352920071,0.0948438633216043,0.00337734786194188,,
0.301207070738862,0.0946590474627283,0.00337155136606171,,
0.304280612277013,0.0945439956638953,0.00340059568974604,,
0.307354153815165,0.0943881063665006,0.00337101725635369,,
0.310427695353317,0.0941365369042061,0.00339161140224142,,
0.313501236891468,0.0938606220100767,0.00338392584465819,,
0.31657477842962,0.0936822197327055,0.00336515329398379,,
0.319648319967772,0.0933419236058674,0.00338136211806095,,
0.322721861505923,0.0930510709568553,0.00338105851885873,,
0.325795403044075,0.0926895707442255,0.00336146512589686,,
0.328868944582227,0.0924415189350523,0.00335433054464351,,
0.331942486120378,0.0920508140209269,0.00334580165594245,,
0.33501602765853,0.0916568368713398,0.00334311564633349,,
0.338089569196681,0.0912292211412065,0.00335459619394562,,
0.341163110734833,0.090763238450285,0.00332638255141182,,
0.344236652272985,0.0902770006218556,0.0032985976021962,,
0.347310193811136,0.0897976835714277,0.00330984904485465,,
0.350383735349288,0.089353968442823,0.00330025615339347,,
0.35345727688744,0.0888217720673342,0.0032753568021513,,
0.356530818425591,0.0883547586222423,0.00323830504950706,,
0.359604359963743,0.0877496404794898,0.0032650498903446,,
0.362677901501895,0.0872013610667069,0.00320939425324962,,
0.365751443040046,0.0866630128885501,0.00318364032647489,,
0.368824984578198,0.0859647178410262,0.00317804623006257,,
0.37189852611635,0.0853135429841505,0.00315400426545631,,
0.374972067654501,0.0846816088717895,0.00314954585494887,,
0.378045609192653,0.0838964032504031,0.00313835344546876,,
0.381119150730805,0.083329390289602,0.00310884810077328,,
0.384192692268956,0.0826240272134808,0.00309191401193543,,
0.387266233807108,0.081802303444342,0.00306610245753447,,
0.39033977534526,0.0810693227009241,0.00299807374739469,,
0.393413316883411,0.0802473371529484,0.00302050635511852,,
0.396486858421563,0.0794554561712201,0.00297794624472525,,
0.399560399959714,0.0786783656937787,0.00297406129937761,,
0.402633941497866,0.0778396263002391,0.0029346777361936,,
0.405707483036018,0.0769573007303499,0.0029229217004163,,
0.408781024574169,0.0761076975150775,0.00291572527488082,,
0.411854566112321,0.075174063293149,0.00289444521968463,,
0.414928107650473,0.0743333605583324,0.00283600096769421,,
0.418001649188624,0.0733256429255513,0.00281574415425379,,
0.421075190726776,0.0725095637625839,0.00275664350954408,,
0.424148732264928,0.0715916199096942,0.00275009504341694,,
0.427222273803079,0.0705507708928635,0.00268756485216315,,
0.430295815341231,0.0695918913743481,0.00269099439870724,,
0.433369356879383,0.0685803779484314,0.00265954377023458,,
0.436442898417534,0.0675641525034499,0.00263281720157105,,
0.439516439955686,0.0665213565065195,0.00259833479773119,,
0.442589981493838,0.0654141629157032,0.00255405429185851,,
0.445663523031989,0.0643402152371775,0.00253070526432042,,
0.448737064570141,0.0632932471400335,0.00249996303398614,,
0.451810606108293,0.0621802944148045,0.0024604276712008,,
0.454884147646444,0.0610560688384101,0.0023976318306449,,
0.457957689184596,0.0599373569787686,0.00238330222940775,,
0.461031230722747,0.0587992734851939,0.00234077585225911,,
0.464104772260899,0.0576812160726447,0.00232836201821041,,
0.467178313799051,0.056446536188241,0.00228299642630025,,
0.470251855337202,0.0553329290159197,0.00222995089901357,,
0.473325396875354,0.0540672283393392,0.00219663510321944,,
0.476398938413506,0.0528702446074541,0.00216456462637504,,
0.479472479951657,0.051671559313129,0.00210231554549356,,
0.482546021489809,0.05047405202357,0.00206706992699246,,
0.485619563027961,0.0491902722460637,0.00205118156873985,,
0.488693104566112,0.0478929126913914,0.0019727011749513,,
0.491766646104264,0.046677080883247,0.00193621445415548,,
0.494840187642416,0.0453691029245015,0.00192590192014119,,
0.497913729180567,0.0440878100459461,0.00186037509231651,,
0.500987270718719,0.0428394031337806,0.00182763135613051,,
0.504060812256871,0.0414513208509331,0.00177623454117848,,
0.507134353795022,0.0401700443335549,0.00169651585619945,,
0.510207895333174,0.0387887683004677,0.00168423695512931,,
0.513281436871326,0.0374598643959447,0.0016442855489931,,
0.516354978409477,0.0361566966233279,0.00160088070193032,,
0.519428519947629,0.0347482119523767,0.00153664276516352,,
0.52250206148578,0.0334195534655133,0.00147232471194059,,
0.525575603023932,0.0319971781550273,0.00144894335670998,,
0.528649144562084,0.030653990942714,0.00138738861844834,,
0.531722686100235,0.0292199664739844,0.00133137034897279,,
0.534796227638387,0.0278304280463563,0.00128928109845328,,
0.537869769176539,0.0264612102009454,0.00125468906156812,,
0.54094331071469,0.0250702647120688,0.00120952586912582,,
0.544016852252842,0.0236281250993942,0.00115735178399401,,
0.547090393790994,0.0222103145573771,0.00110588047479343,,
0.550163935329145,0.0207431750657752,0.0010645755222134,,
0.553237476867297,0.0193713394319949,0.00101464750895719,,
0.556311018405449,0.0179473770873099,0.000991687819285048,,
0.5593845599436,0.016532331584258,0.000905437534801656,,
0.562458101481752,0.0150450351222121,0.000853831292622065,,
0.565531643019904,0.0136365340900836,0.000818641896195071,,
0.568605184558055,0.0121283116822602,0.00077748874321637,,
0.571678726096207,0.0107093394966543,0.000704274952256334,,
0.574752267634358,0.0092712410947748,0.000664482373480269,,
0.57782580917251,0.00781432733899064,0.000620086612354687,,
0.580899350710662,0.00633814011633713,0.000563747877054599,,
0.583972892248813,0.00486262370195328,0.000523790848710348,,
0.587046433786965,0.00342899190147901,0.000461283146286462,,
0.590119975325117,0.001972192673936,0.000407383043467213,,
0.593193516863268,0.000500210273850769,0.000348788397428024,,
0.59626705840142,-0.000972819241582207,0.000303070011999917,,
0.599340599939572,-0.00244964455015074,0.000242296760573968,,
0.602414141477723,-0.00388628680724976,0.000204039044431781,,
0.605487683015875,-0.00533641067445092,0.000147541481771096,,
0.608561224554027,-0.00682658670370314,0.000118935690267552,,
0.611634766092178,-0.0082658467491715,4.19009065697473E-05,,
0.61470830763033,-0.00973167734658877,-1.4276893042009E-05,,
0.617781849168482,-0.0111828156067831,-5.63253825576204E-05,,
0.620855390706633,-0.0126662181086296,-9.56021238001092E-05,,
0.623928932244785,-0.0140913748192581,-0.000176516933414028,,
0.627002473782937,-0.0155722249774445,-0.000242352982648519,,
0.630076015321088,-0.0169926369466535,-0.000255863147149871,,
0.63314955685924,-0.0183961641808803,-0.000338290330567759,,
0.636223098397392,-0.0198385655723919,-0.000371810634157921,,
0.639296639935543,-0.0213143437656127,-0.000429010269973773,,
0.642370181473695,-0.0227032441073257,-0.000475292281698625,,
0.645443723011846,-0.024113806647795,-0.000511999674136732,,
0.648517264549998,-0.0255732236637074,-0.000576475851944203,,
0.65159080608815,-0.026928419980165,-0.000638330675528209,,
0.654664347626301,-0.0283369210122935,-0.000678574436452362,,
0.657737889164453,-0.0297126996898052,-0.000713105331831443,,
0.660811430702605,-0.0311246365691684,-0.000783845351513879,,
0.663884972240756,-0.0325056835457734,-0.000818156980802787,,
0.666958513778908,-0.0338873195247615,-0.000858192720051054,,
0.67003205531706,-0.0352430721212476,-0.000927723262355684,,
0.673105596855211,-0.0366048456309832,-0.000968129364519399,,
0.676179138393363,-0.0379059846176138,-0.00102811269579872,,
0.679252679931515,-0.0392260371252129,-0.00108928793505747,,
0.682326221469666,-0.0405774703708896,-0.0011432899403867,,
0.685399763007818,-0.0418768096280162,-0.00117223236156105,,
0.68847330454597,-0.0431836095819955,-0.00124951452238653,,
0.691546846084121,-0.0445462993176604,-0.00125980386479529,,
0.694620387622273,-0.0457458681155602,-0.00134241095885157,,
0.697693929160425,-0.0470299260330807,-0.00136681133918293,,
0.700767470698576,-0.0482973282721013,-0.00141553901114788,,
0.703841012236728,-0.0495363275073144,-0.00147778879480542,,
0.706914553774879,-0.0508312165242132,-0.00152192242050875,,
0.709988095313031,-0.0519975721321768,-0.00156916582970723,,
0.713061636851183,-0.0532324810730629,-0.00162302587429819,,
0.716135178389334,-0.0545064277830068,-0.00164392924159573,,
0.719208719927486,-0.0556654535835363,-0.00172186006460606,,
0.722282261465638,-0.0568473195875884,-0.00172860038856193,,
0.725355803003789,-0.0579489831004745,-0.00180507295151511,,
0.728429344541941,-0.0591097104634441,-0.00181318087743332,,
0.731502886080093,-0.0602642860237457,-0.00187319231974969,,
0.734576427618244,-0.0613945161522124,-0.00191543196431843,,
0.737649969156396,-0.0625284111843961,-0.00198233623296806,,
0.740723510694548,-0.0635998719639709,-0.0020211020561085,,
0.743797052232699,-0.0646816730076045,-0.00205181055319814,,
0.746870593770851,-0.0657571913591518,-0.00210555815364,,
0.749944135309003,-0.0667546996172924,-0.00213385472373373,,
0.753017676847154,-0.067784668451213,-0.00216162210355098,,
0.756091218385306,-0.0688244539915186,-0.00219594568003068,,
0.759164759923458,-0.0698405485470816,-0.00226256391887647,,
0.762238301461609,-0.0708328212284836,-0.0022928732392371,,
0.765311842999761,-0.0718033662664199,-0.00230288639070464,,
0.768385384537913,-0.0727444611852011,-0.00235725875894932,,
0.771458926076064,-0.073699070436439,-0.00240542491294571,,
0.774532467614216,-0.0746774361171288,-0.0024218354337151,,
0.777606009152367,-0.0754804754217813,-0.00244941868623849,,
0.780679550690519,-0.076286328848931,-0.00248387087071356,,
0.783753092228671,-0.0772361933587494,-0.00253425709387622,,
0.786826633766822,-0.0780360585950042,-0.00256432395654072,,
0.789900175304974,-0.078901335818138,-0.00260774567022537,,
0.792973716843126,-0.0797177258434743,-0.00265992467478915,,
0.796047258381277,-0.0805470084765296,-0.00265667503888301,,
0.799120799919429,-0.0812337852552285,-0.00270231611895877,,
0.802194341457581,-0.0820859080918064,-0.00274752920849197,,
0.805267882995732,-0.0827868209276997,-0.00279988460981428,,
0.808341424533884,-0.0835141734261235,-0.00277649622682397,,
0.811414966072036,-0.0841217621066495,-0.00284241028418686,,
0.814488507610187,-0.0848089315536037,-0.00284158944189894,,
0.817562049148339,-0.0854665199919843,-0.00289155962171073,,
0.820635590686491,-0.0860477998993984,-0.00290690824804818,,
0.823709132224642,-0.0866485823301641,-0.00295532177917224,,
0.826782673762794,-0.0873523747332637,-0.00296333834421958,,
0.829856215300945,-0.0878344404614794,-0.00297691667798583,,
0.832929756839097,-0.0883764535433533,-0.00299718965527296,,
0.836003298377249,-0.0889732765692103,-0.00302477782722832,,
0.8390768399154,-0.0894523645631559,-0.00304428126487055,,
0.842150381453552,-0.089965058415293,-0.00307233537726814,,
0.845223922991704,-0.0904140091206365,-0.0030910460836604,,
0.848297464529855,-0.0908937515616744,-0.00310538903764002,,
0.851371006068007,-0.0912382197887261,-0.00314511555547847,,
0.854444547606159,-0.0917803964823731,-0.00314980447649127,,
0.85751808914431,-0.0919537922394878,-0.00318266627903396,,
0.860591630682462,-0.0925256481087722,-0.00318480271786514,,
0.863665172220614,-0.0928281335548506,-0.00318752386627041,,
0.866738713758765,-0.0931578439999702,-0.00322161131003718,,
0.869812255296917,-0.093498549156241,-0.00325771712627843,,
0.872885796835069,-0.093657318020842,-0.00326630153427798,,
0.87595933837322,-0.0938858509454863,-0.00326965869490126,,
0.879032879911372,-0.094154305142763,-0.00326760658918213,,
0.882106421449524,-0.0944249844601538,-0.00331484999838061,,
0.885179962987675,-0.0944349320559573,-0.00331484999838061,,
0.888253504525827,-0.0946884648595288,-0.00332796098615296,,
0.891327046063979,-0.0948817885306053,-0.0033385982026477,,
0.89440058760213,-0.0949338825191553,-0.00334082459679763,,
0.897474129140282,-0.0950014214590846,-0.00335287931234562,,
0.900547670678433,-0.0950896409271316,-0.00335991199108898,,
0.903621212216585,-0.0952169963313005,-0.00335606640119357,,
0.906694753754737,-0.0952192214514144,-0.00337921373203942,,
0.909768295292888,-0.095241210873717,-0.00338832100533137,,
0.91284183683104,-0.0951556091940392,-0.00337183669308949,,
0.915915378369192,-0.0951843721437475,-0.00339578729682444,,
0.918988919907343,-0.0951142481378035,-0.00336952596582751,,
0.922062461445495,-0.0949850602817761,-0.00340673935693614,,
0.925136002983647,-0.0949790393685266,-0.00339763138086813,,
0.928209544521798,-0.0946933077680121,-0.0033999758413743,,
0.93128308605995,-0.0946308407930485,-0.00339313361490845,,
0.934356627598102,-0.094420010662252,-0.00335931041489168,,
0.937430169136253,-0.094229043000708,-0.0033790724740772,,
0.940503710674405,-0.0940446198100873,-0.00338709536410775,,
0.943577252212557,-0.0937553541952742,-0.00337946040639103,,
0.946650793750708,-0.0935893864126574,-0.00340013326318322,,
0.94972433528886,-0.0932825816157697,-0.00337241578045688,,
0.952797876827011,-0.092915044128713,-0.00336086284692394,,
0.955871418365163,-0.0926578464214244,-0.00335978900530121,,
0.958944959903315,-0.0922603352575387,-0.00335336774161776,,
0.962018501441466,-0.091886907746651,-0.00335917548191311,,
0.965092042979618,-0.0914651820403488,-0.00333191902019747,,
0.96816558451777,-0.0910906092470495,-0.00332664047017861,,
0.971239126055921,-0.0906310237764555,-0.00331609812843459,,
0.974312667594073,-0.090188912043227,-0.00330046768894876,,
0.977386209132225,-0.089656650223029,-0.00329346312124246,,
0.980459750670376,-0.0891586159857603,-0.00329687509838861,,
0.983533292208528,-0.0887229178340367,-0.00328087499876295,,
0.98660683374668,-0.0882264542697895,-0.00325402263320784,,
0.989680375284831,-0.0874884997284699,-0.00326035394157209,,
0.992753916822983,-0.087053685080321,-0.0032214538882287,,
0.995827458361135,-0.0863625889508127,-0.00322850413637044,,
0.998900999899286,-0.0857924346439684,-0.0031536170359181,,
1.00197454143744,-0.0851183541388608,-0.0031728105493749,,
1.00504808297559,-0.0844285669035372,-0.00317241699485349,,
1.00812162451374,-0.0837945385604808,-0.00314638687713797,,
1.01119516605189,-0.0830568457979981,-0.00312633176038934,,
1.01426870759004,-0.0824155203698621,-0.00310086245786723,,
1.0173422491282,-0.0816012245752213,-0.00306730912380804,,
1.02041579066635,-0.0808936036566315,-0.00305854480517009,,
