Time domain (s),Current (AC) (A),Potential (AC) (V),Frequency (Hz),Column 5
0,-0.0269373519081738,-0.00105891823768589,0.39811,0.033
0.00613249164803697,-0.0267086935627965,-0.0010280350844063,,
0.0122649832960739,-0.0264919864215857,-0.00102269450823478,,
0.0183974749441109,-0.026260387939499,-0.00102739930152884,,
0.0245299665921479,-0.0260238925744289,-0.00103831887245187,,
0.0306624582401849,-0.0257748037910303,-0.00101093252499895,,
0.0367949498882218,-0.0255164631098639,-0.000986381371816059,,
0.0429274415362588,-0.0252711473346657,-0.00102372765541059,,
0.0490599331842958,-0.0249979153126233,-0.00102830529212961,,
0.0551924248323328,-0.024732349722137,-0.000979710287517754,,
0.0613249164803697,-0.0244449990231321,-0.000999610953860586,,
0.0674574081284067,-0.0241701012581076,-0.000973675648371142,,
0.0735898997764437,-0.0238807436398471,-0.00095754861831665,,
0.0797223914244807,-0.023585686370901,-0.000944509108861347,,
0.0858548830725176,-0.0232886623210844,-0.000937600268257732,,
0.0919873747205546,-0.0229751815333726,-0.000924243529637714,,
0.0981198663685916,-0.0226778765148603,-0.000911135143703667,,
0.104252358016629,-0.0223589268721772,-0.000912269618776218,,
0.110384849664666,-0.022036575501356,-0.000895718071195706,,
0.116517341312703,-0.0217182881420273,-0.000873651107152096,,
0.122649832960739,-0.0213826007927532,-0.000877693626615716,,
0.128782324608776,-0.0210495023693187,-0.000864935583538617,,
0.134914816256813,-0.0207075233281786,-0.000843069950739572,,
0.14104730790485,-0.0203669491305173,-0.00084579322073175,,
0.147179799552887,-0.0200119251142163,-0.000796678993436828,,
0.153312291200924,-0.0196666446909008,-0.000797829363081259,,
0.159444782848961,-0.0193004722381354,-0.000788710514704416,,
0.165577274496998,-0.0189285901000881,-0.000787772734959891,,
0.171709766145035,-0.0185652975764543,-0.000778045256932369,,
0.177842257793072,-0.0181946998667305,-0.000772021876441098,,
0.183974749441109,-0.0178210616743346,-0.000731950998306363,,
0.190107241089146,-0.0174367266023068,-0.000728077358669754,,
0.196239732737183,-0.0170564154033863,-0.000728496578004556,,
0.20237222438522,-0.0166592862211045,-0.000694980223973296,,
0.208504716033257,-0.0162636020206867,-0.000655911366144846,,
0.214637207681294,-0.0158735371941844,-0.000672272178861899,,
0.220769699329331,-0.0154709491915276,-0.000642485751046085,,
0.226902190977368,-0.0150593701906062,-0.000663858652114602,,
0.233034682625405,-0.0146603244004354,-0.000640155209435278,,
0.239167174273442,-0.0142444405577108,-0.000616016652848828,,
0.245299665921479,-0.0138362632849274,-0.000592996014488811,,
0.251432157569516,-0.0134044244341215,-0.000598039891984481,,
0.257564649217553,-0.0129936482009023,-0.00056528515285903,,
0.26369714086559,-0.0125591100436977,-0.000550122393502051,,
0.269829632513627,-0.0121399448879903,-0.000532452927695104,,
0.275962124161664,-0.0117151101853862,-0.000541236665513534,,
0.282094615809701,-0.01128499728514,-0.000492017136679568,,
0.288227107457738,-0.0108393407952598,-0.000508436229493814,,
0.294359599105775,-0.0104033576561913,-0.00047587354977896,,
0.300492090753812,-0.00996018974618793,-0.000467067956924527,,
0.306624582401849,-0.00951759380817244,-0.000440327988730616,,
0.312757074049886,-0.00907276015518704,-0.000416766934924429,,
0.318889565697923,-0.00862156456816165,-0.000402361154556274,,
0.32502205734596,-0.00817415202393291,-0.000397047069337741,,
0.331154548993997,-0.00772271560659686,-0.000399346484078134,,
0.337287040642034,-0.00726868022882492,-0.000382074382569986,,
0.343419532290071,-0.00681466492024553,-0.000338708692126932,,
0.349552023938108,-0.00635539148321669,-0.000333935022354126,,
0.355684515586145,-0.00589275645643485,-0.000306162569257751,,
0.361817007234181,-0.00543454668661143,-0.000337670246759902,,
0.367949498882218,-0.00497588535995552,-0.000283983680936739,,
0.374081990530255,-0.00451276867255236,-0.000262473026911181,,
0.380214482178292,-0.00404649108732176,-0.000253338946236248,,
0.386346973826329,-0.00358384602594365,-0.000246081087324157,,
0.392479465474366,-0.00311655494648901,-0.000198137097888296,,
0.398611957122403,-0.00265070884889835,-0.000187662574979708,,
0.40474444877044,-0.00218193264919463,-0.000157770183351058,,
0.410876940418477,-0.00171171146762694,-0.000179052352905273,,
0.417009432066514,-0.0012416909779848,-0.000163979662789249,,
0.423141923714551,-0.000781534496483526,-0.000143973694907373,,
0.429274415362588,-0.000308834769635272,-0.00010276436805734,,
0.435406907010625,0.000159981568453557,-0.000103167030546469,,
0.441539398658662,0.000629956902412447,-7.83297750683865E-05,,
0.447671890306699,0.00110078517705493,-4.68201107448607E-05,,
0.453804381954736,0.00156366103414743,-4.28577264148799E-05,,
0.459936873602773,0.0020363758128901,-2.43829356296743E-05,,
0.46606936525081,0.00250161481740597,2.17272175682126E-05,,
0.472201856898847,0.0029638484603367,-8.32941797046516E-06,,
0.478334348546884,0.00343451116414061,3.76217895086128E-05,,
0.484466840194921,0.00389875172632686,5.14553652868344E-05,,
0.490599331842958,0.00436114592279803,8.20471180809079E-05,,
0.496731823490995,0.00481796590103701,8.01967249977054E-05,,
0.502864315139032,0.00527834816095452,0.000108368529213809,,
0.508996806787069,0.0057395783442575,0.000145779053370099,,
0.515129298435106,0.0061986009163794,0.000156337022781283,,
0.521261790083143,0.00666091483608035,0.000168720218870266,,
0.52739428173118,0.00711587841400797,0.000166445970535278,,
0.533526773379217,0.00756338628690135,0.000194294585122101,,
0.539659265027254,0.00802521854598098,0.000217389398151191,,
0.545791756675291,0.00846962572862458,0.000227710273530857,,
0.551924248323328,0.00891247754884515,0.000252305799060437,,
0.558056739971365,0.00936511811773451,0.000246790382597339,,
0.564189231619402,0.00980965073283159,0.000266355276107966,,
0.570321723267439,0.0102569930348864,0.000293700562583155,,
0.576454214915476,0.0106922135446378,0.000308422909842676,,
0.582586706563513,0.0111326119060686,0.000342267751693992,,
0.58871919821155,0.0115734919281206,0.000329462024900806,,
0.594851689859586,0.0120039710911309,0.000363741318385014,,
0.600984181507623,0.0124352580391415,0.000378247764375672,,
0.60711667315566,0.0128520199090404,0.000423594978120612,,
0.613249164803697,0.0132719476940648,0.000418058368894858,,
0.619381656451734,0.0137014284147455,0.000436776876449496,,
0.625514148099771,0.0141120039560392,0.00043005347251901,,
0.631646639747808,0.0145335372764681,0.000467856062783323,,
0.637779131395845,0.0149439522642214,0.000479962428411085,,
0.643911623043882,0.0153393554959434,0.000496745771831897,,
0.650044114691919,0.0157496500685413,0.000517473618189435,,
0.656176606339956,0.0161452088365056,0.000528089867697812,,
0.662309097987993,0.0165410987461471,0.000566513670815283,,
0.66844158963603,0.0169380272365033,0.000572321812311927,,
0.674574081284067,0.0173174553909514,0.000581046607759372,,
0.680706572932104,0.017704384406117,0.000556851095623312,,
0.686839064580141,0.0180861506214977,0.000636233886083026,,
0.692971556228178,0.0184519267077102,0.00061905052926825,,
0.699104047876215,0.0188229659396702,0.000636746486028184,,
0.705236539524252,0.0191907991181195,0.000633821884790997,,
0.711369031172289,0.0195536451022189,0.000664323568344116,,
0.717501522820326,0.0199093514710668,0.000686439540651396,,
0.723634014468363,0.0202581088819924,0.000689537657631689,,
0.7297665061164,0.0206112564287895,0.000700573788749104,,
0.735898997764437,0.0209496179979716,0.000704075892766554,,
0.742031489412474,0.0212779499881742,0.000720007552041046,,
0.748163981060511,0.0216163516957414,0.000764537519879038,,
0.754296472708548,0.0219441669042357,0.000758085648218998,,
0.760428964356585,0.0222642705254907,0.00075946317778719,,
0.766561456004622,0.0225855381599139,0.000762785143322287,,
0.772693947652659,0.0229007047598004,0.000811639759275895,,
0.778826439300696,0.0231995350369469,0.000801393058564859,,
0.784958930948733,0.0235024594293747,0.000842411650551878,,
0.79109142259677,0.0237815014826618,0.000824498467975054,,
0.797223914244807,0.0241039331302532,0.000853744480345142,,
0.803356405892844,0.0243673663690305,0.000866613785425852,,
0.809488897540881,0.0246490926768219,0.000877379708819959,,
0.815621389188918,0.0249205887137082,0.000911617941326437,,
0.821753880836955,0.0251749857985376,0.000892829232745918,,
0.827886372484992,0.0254476859869773,0.000892781549029831,,
0.834018864133029,0.0257026500264964,0.000939448012246213,,
0.840151355781065,0.0259451611320349,0.000937567154566388,,
0.846283847429102,0.0261867540720141,0.000941699743270963,,
0.852416339077139,0.0264157034206835,0.000957398282157129,,
0.858548830725176,0.0266456160905955,0.000966395934423048,,
0.864681322373213,0.0268766927736758,0.000983995199203669,,
0.87081381402125,0.0270972531998572,0.000985579358206756,,
0.876946305669287,0.0272911215999401,0.00102921525637312,,
0.883078797317324,0.0275158564181729,0.00100730193985843,,
0.889211288965361,0.027708319974777,0.000990792777803229,,
0.895343780613398,0.0279015461606982,0.00103723671701239,,
0.901476272261435,0.028081526679533,0.00102383759286662,,
0.907608763909472,0.0282667703441154,0.00103947255346526,,
0.913741255557509,0.0284364352979768,0.00103011594878311,,
0.919873747205546,0.0285918059694408,0.00105985999107361,,
0.926006238853583,0.0287532024159695,0.00106002953317441,,
0.93213873050162,0.0289144433262559,0.00105796853701268,,
0.938271222149657,0.0290499856354754,0.00106900996632042,,
0.944403713797694,0.0291862955913102,0.00107654399341994,,
0.950536205445731,0.0293079500192815,0.00110061897171887,,
0.956668697093768,0.0294467485549931,0.00109059479501505,,
0.962801188741805,0.0295564919171829,0.00111123124758405,,
0.968933680389842,0.0296676752439385,0.00110520190662822,,
0.975066172037879,0.0297753263928045,0.00108408861690101,,
0.981198663685916,0.0298880751165794,0.00109055240949019,,
0.987331155333953,0.0299801575893207,0.00110429459147987,,
0.99346364698199,0.0300590646371495,0.00113805598682815,,
0.999596138630027,0.0301244099281091,0.001094224055608,,
1.00572863027806,0.0301839752916129,0.00114434891276893,,
1.0118611219261,0.0302461897885339,0.00111696388986404,,
1.01799361357414,0.0303041496166333,0.00113867587513417,,
1.02412610522217,0.0303483018402546,0.00113446911176052,,
1.03025859687021,0.0303982339913319,0.00115255713462847,,
1.03639108851825,0.0304272540437667,0.00114616751670837,,
1.04252358016629,0.0304525010880011,0.00115810434023533,,
1.04865607181432,0.030475018722048,0.0011402852005431,,
1.05478856346236,0.0304714012500899,0.00117025309138841,,
1.0609210551104,0.0304848927647851,0.00115267899301319,,
1.06705354675843,0.0304730920795627,0.00115270018577585,,
1.07318603840647,0.0304789874048758,0.00113570888837167,,
1.07931853005451,0.0304533791151754,0.00116132431560079,,
1.08545102170254,0.0304332346631481,0.00116538802782706,,
1.09158351335058,0.03039389904574,0.00118843515714007,,
1.09771600499862,0.0303623502750433,0.00116630593935652,,
1.10384849664666,0.0303112139724127,0.00114540457725543,,
1.10998098829469,0.0302617634819567,0.00115060210227957,,
1.11611347994273,0.0301865842866451,0.00114709337552377,,
1.12224597159077,0.0301335614799143,0.00116877357165013,,
1.1283784632388,0.0300462604922993,0.00114941000938407,,
1.13451095488684,0.0299638162492827,0.00116433501243618,,
1.14064344653488,0.0298866702731006,0.00116079052289342,,
1.14677593818291,0.0297787381555389,0.00114913317892285,,
1.15290842983095,0.0296930828417134,0.00115306973457363,,
1.15904092147899,0.029573631007625,0.00116335882080953,,
1.16517341312703,0.0294661002739144,0.00113439493709144,,
1.17130590477506,0.0293462019002916,0.00114448269208278,,
1.1774383964231,0.029213509416415,0.00114134086502915,,
1.18357088807114,0.0290684894310113,0.00112578007910003,,
1.18970337971917,0.0289354708227556,0.00112622512711447,,
1.19583587136721,0.0287794127814466,0.00113917390505502,,
1.20196836301525,0.0286128384832387,0.00111507243580311,,
1.20810085466328,0.02844667058618,0.00111714270379837,,
1.21423334631132,0.0282986352045949,0.00112794174088382,,
1.22036583795936,0.0281073757995441,0.00109227432145032,,
1.22649832960739,0.0279403599790999,0.00108026332325428,,
1.23263082125543,0.0277431952141398,0.00110559264818821,,
1.23876331290347,0.0275440737029055,0.00106043749385432,,
1.24489580455151,0.0273406122287812,0.00109023451805124,,
1.25102829619954,0.027121577061234,0.00108103685908834,,
1.25716078784758,0.026903741027942,0.00106636087099732,,
1.26329327949562,0.026681058284648,0.00106283227602644,,
1.26942577114365,0.0264531525339914,0.00105739633242319,,
1.27555826279169,0.0262160952315297,0.00101982156435643,,
1.28169075443973,0.0259783555765212,0.00103620886802691,,
1.28782324608776,0.0257205116078705,0.00103442337777881,,
1.2939557377358,0.0254658686754323,0.00102288921674099,,
1.30008822938384,0.0252215061868805,0.00102108253373068,,
1.30622072103188,0.0249643395534785,0.000986035002602748,,
1.31235321267991,0.0246925224095113,0.00100159578853187,,
1.31848570432795,0.0243954632386078,0.000981331533855823,,
1.32461819597599,0.0241103151334857,0.000956847270329853,,
1.33075068762402,0.0238211180687657,0.000981097088919913,,
1.33688317927206,0.0235429991983361,0.000948550303776941,,
1.3430156709201,0.0232282741206859,0.00090031027793902,,
1.34914816256813,0.0229288016293776,0.000929598675833976,,
1.35528065421617,0.0226271215268883,0.000945409801271335,,
1.36141314586421,0.0223017999155689,0.000910224517186364,,
1.36754563751225,0.021972951143658,0.000873337189356782,,
1.37367812916028,0.0216413629269633,0.000880472527609921,,
1.37981062080832,0.0213205769531614,0.000855185588200857,,
1.38594311245636,0.0209882311244478,0.000832127862506304,,
1.39207560410439,0.020646011252997,0.000855159097247871,,
1.39820809575243,0.0202970431155495,0.000814267661836343,,
1.40434058740047,0.0199454760176661,0.000822522242863943,,
1.4104730790485,0.01959221809031,0.000841373205184848,,
1.41660557069654,0.0192305712404658,0.000796979665756314,,
1.42273806234458,0.018863987369253,0.000793403387069791,,
1.42887055399262,0.0185024609345641,0.000814647807015234,,
1.43500304564065,0.0181298613228829,0.000758361154132636,,
1.44113553728869,0.0177431179477485,0.00075255963537435,,
1.44726802893673,0.0173630927348218,0.000747023026148597,,
1.45340052058476,0.0169714625113002,0.000725210375255969,,
1.4595330122328,0.0165869367819431,0.000714640484916096,,
1.46566550388084,0.0161913679793825,0.000700949960284802,,
1.47179799552887,0.0157869386283088,0.000685834222369675,,
1.47793048717691,0.0153937430077679,0.000675620635350427,,
1.48406297882495,0.01499075362126,0.000645467307832437,,
1.49019547047298,0.0145718292958633,0.000646696488062481,,
1.49632796212102,0.0141693617083619,0.000622553957833283,,
1.50246045376906,0.0137428863492664,0.000613015890121638,,
1.5085929454171,0.0133306701514813,0.000591637690861901,,
1.51472543706513,0.0129141139908061,0.000596168968412858,,
1.52085792871317,0.0124822600881058,0.000554615259170443,,
1.52699042036121,0.0120588051424898,0.000567537546158015,,
1.53312291200924,0.0116200524548486,0.000563292370902246,,
1.53925540365728,0.0111806224319587,0.000510760810640054,,
1.54538789530532,0.0107432695704982,0.000527332226435639,,
1.55152038695335,0.0103079738012747,0.000501397583219987,,
1.55765287860139,0.00986720917707982,0.000491104523340891,,
1.56378537024943,0.009415130545582,0.000441259145736783,,
1.56991786189747,0.00896430122132075,0.000464802980423062,,
1.5760503535455,0.0085223324455726,0.000429910421371638,,
1.58218284519354,0.00807442820612626,0.00040861169497175,,
1.58831533684158,0.00761801462903653,0.000433232386907179,,
1.59444782848961,0.00716348755604698,0.000380059745576755,,
1.60058032013765,0.00670863937597655,0.00035851200421666,,
1.60671281178569,0.00624833237553112,0.000351279973983765,,
1.61284530343372,0.00579295737915612,0.000332021050982956,,
1.61897779508176,0.00533731144868162,0.000305673148897068,,
1.6251102867298,0.00487704960391943,0.000300535228517251,,
1.63124277837784,0.00441532772539886,0.00027706291940488,,
1.63737527002587,0.00394812194001258,0.000258233149846632,,
1.64350776167391,0.00347959158791766,0.000259140464994534,,
1.64964025332195,0.00301241590632022,0.000227026806937314,,
1.65577274496998,0.00255696565047314,0.000215211841795071,,
1.66190523661802,0.00208650363859478,0.000194172726737385,,
1.66803772826606,0.00162194196932765,0.000166706906424619,,
1.67417021991409,0.00115408895248147,0.000129867262310679,,
1.68030271156213,0.000685914828554407,6.56492180293178E-05,,
1.68643520321017,0.000209913719530826,9.58263874055731E-05,,
1.6925676948582,-0.000254447257810754,9.27759541404782E-05,,
1.69870018650624,-0.000723303734284693,8.31491417354613E-05,,
1.70483267815428,-0.00118995259957756,4.58604759638881E-05,,
1.71096516980232,-0.0016595717053686,5.69230980342894E-05,,
1.71709766145035,-0.00213296381936001,1.89562638599483E-05,,
1.72323015309839,-0.00259495663198008,-1.13970703550237E-05,,
1.72936264474643,-0.00306525809031799,-2.13629669612025E-05,,
1.73549513639446,-0.00352849519287648,-2.66452630359737E-05,,
1.7416276280425,-0.00399277589344784,-4.39862410228642E-05,,
1.74776011969054,-0.00446086974060468,-0.000100656350453754,,
1.75389261133857,-0.00492193937036722,-6.59843285877315E-05,,
1.76002510298661,-0.00537722907267386,-9.63800483280153E-05,,
1.76615759463465,-0.00583741565796396,-0.00014049808184291,,
1.77229008628269,-0.00630149566660977,-0.000113705131742581,,
1.77842257793072,-0.00675774869015906,-0.000131803750991644,,
1.78455506957876,-0.00721789513706406,-0.000174576044082553,,
1.7906875612268,-0.00766415370272087,-0.000173574686050504,,
1.79682005287483,-0.00811683440999534,-0.000171508391697994,,
1.80295254452287,-0.00856867221118249,-0.000217539072036477,,
1.80908503617091,-0.00901966710628233,-0.000253185960981561,,
1.81521752781894,-0.00946014574448326,-0.000231595171822363,,
1.82135001946698,-0.0099072873546125,-0.000280168983671114,,
1.82748251111502,-0.0103521009384053,-0.000314824448691464,,
1.83361500276306,-0.0107858363279077,-0.000319905413521671,,
1.83974749441109,-0.0112211270798331,-0.000323661830690103,,
1.84587998605913,-0.011667746890956,-0.000334814522001459,,
1.85201247770717,-0.0120941469905794,-0.000363122754626577,,
1.8581449693552,-0.0125137235647341,-0.000372627708646878,,
1.86427746100324,-0.0129327582706899,-0.000403557883368322,,
1.87040995265128,-0.0133569808629211,-0.000399325291315478,,
1.87654244429931,-0.0137830498208674,-0.000435623857709899,,
1.88267493594735,-0.0141980405845233,-0.000427983204523752,,
1.88880742759539,-0.0146076929429594,-0.000470702515707799,,
1.89493991924343,-0.0150150172750592,-0.000466829538345426,,
1.90107241089146,-0.0154278907389005,-0.000489129622777362,,
1.9072049025395,-0.0158182666378874,-0.000519043207168668,,
1.91333739418754,-0.0162161985878714,-0.000520065757963373,,
1.91946988583557,-0.0166223187684179,-0.000541872448391434,,
1.92560237748361,-0.0170164275372201,-0.000554048352771286,,
1.93173486913165,-0.0173902162485602,-0.000549348195393762,,
1.93786736077968,-0.0177691125694055,-0.00057742926809512,,
1.94399985242772,-0.0181538791290733,-0.000594923893610488,,
1.95013234407576,-0.0185233931023991,-0.000606993171903714,,
1.95626483572379,-0.0188894150362204,-0.000607295831044574,,
1.96239732737183,-0.0192541525417181,-0.000631428427166458,,
1.96852981901987,-0.019611414272989,-0.000647466050253787,,
1.97466231066791,-0.0199809784192962,-0.000683536132176421,,
1.98079480231594,-0.0203278643780161,-0.000687059428956527,,
1.98692729396398,-0.0206841627880443,-0.000678222046957888,,
1.99305978561202,-0.0210113307650788,-0.000713953044679361,,
1.99919227726005,-0.0213395022017409,-0.000726573334799863,,
2.00532476890809,-0.0216802770913278,-0.000758218765258611,,
2.01145726055613,-0.021999808740595,-0.000756349166234127,,
2.01758975220416,-0.0223320441887496,-0.000743787156210818,,
2.0237222438522,-0.0226427152895036,-0.000777139928605841,,
