Time domain (s),Current (AC) (A),Potential (AC) (V),Frequency (Hz),Column 5
0,0.0848930185632762,0.00355508742297639,1,0.167
0.00244140625,0.0828669542245435,0.00346844014829006,,
0.0048828125,0.0808245557894773,0.00340597581014856,,
0.00732421875,0.0787267646153835,0.00333195996834768,,
0.009765625,0.0765526592704323,0.0032619053333427,,
0.01220703125,0.0744037710125156,0.00319205084815311,,
0.0146484375,0.0722837325870843,0.00311099677106874,,
0.01708984375,0.0701015397431368,0.0030479231856857,,
0.01953125,0.0679257108328257,0.00296859347624556,,
0.02197265625,0.0656892124218469,0.00287958619329087,,
0.0244140625,0.0634200458182009,0.00281325962353751,,
0.02685546875,0.0611708460563393,0.00273269822292299,,
0.029296875,0.0588961375271514,0.00264385809805656,,
0.03173828125,0.0566250352270243,0.00258418266064586,,
0.0341796875,0.0543605620244352,0.00252313696680373,,
0.03662109375,0.0520655154240008,0.0024121923842495,,
0.0390625,0.0498090501712375,0.00233132526028967,,
0.04150390625,0.047439996325889,0.00224508048468408,,
0.0439453125,0.0451316119812082,0.0021929007678505,,
0.04638671875,0.0427786270682917,0.00210405184518958,,
0.048828125,0.0404254830570343,0.00203183955118025,,
0.05126953125,0.038035189583174,0.00193801987485065,,
0.0537109375,0.0356752043432574,0.00188388484827717,,
0.05615234375,0.0332582088645141,0.00176503764716873,,
0.05859375,0.0309015912061468,0.00168485455170098,,
0.06103515625,0.0284606249107061,0.00163644908853788,,
0.0634765625,0.026100029793816,0.0015171861916583,,
0.06591796875,0.0236891330848076,0.00141905559621724,,
0.068359375,0.0212912294069737,0.00136047988306975,,
0.07080078125,0.0188496002017791,0.00128545229494703,,
0.0732421875,0.0164453060739186,0.00120983525461904,,
0.07568359375,0.0140057981799362,0.0011001179643424,,
0.078125,0.0115955643806816,0.0010138731887368,,
0.08056640625,0.00914902964330894,0.00093130589106627,,
0.0830078125,0.00669639613620133,0.000865456601643277,,
0.08544921875,0.00426134299576448,0.000752789850892999,,
0.087890625,0.00187550427544972,0.000673574512776387,,
0.09033203125,-0.000590095746442217,0.000584769579086153,,
0.0927734375,-0.00307202986466777,0.000511070457873242,,
0.09521484375,-0.00543856465295189,0.000408074682292536,,
0.09765625,-0.00794409835841271,0.000334753866225945,,
0.10009765625,-0.0103737951880389,0.000254203462854097,,
0.1025390625,-0.0127948476744755,0.000169036417025925,,
0.10498046875,-0.0151817470503963,6.78639842734974E-05,,
0.107421875,-0.0176390739585608,-9.62698619888513E-06,,
0.10986328125,-0.0200377996444895,-0.000101933441942759,,
0.1123046875,-0.022484148767131,-0.000192383563130338,,
0.11474609375,-0.0249145350229011,-0.000280563853439553,,
0.1171875,-0.0273109802992767,-0.000368990481983023,,
0.11962890625,-0.0296481879600527,-0.000450387673037511,,
0.1220703125,-0.0321085377366946,-0.000493593639884438,,
0.12451171875,-0.0344661099851073,-0.000613454786763334,,
0.126953125,-0.0368715178013543,-0.000684382602833544,,
0.12939453125,-0.039226809640214,-0.000784350837518044,,
0.1318359375,-0.0416586808138326,-0.000873526378285305,,
0.13427734375,-0.0439448179071759,-0.000940970267889973,,
0.13671875,-0.0462841999119444,-0.00102528832658688,,
0.13916015625,-0.0485898530684395,-0.00112984241144831,,
0.1416015625,-0.0509290759748671,-0.00120778976748959,,
0.14404296875,-0.0532457069168852,-0.0013019789511719,,
0.146484375,-0.0555687548253201,-0.0013826371275214,,
0.14892578125,-0.0577948588113593,-0.00147153883694706,,
0.1513671875,-0.0600453578763384,-0.00157599394662489,,
0.15380859375,-0.0622661055515669,-0.00163595201317079,,
0.15625,-0.0645128392891444,-0.00171925832554587,,
0.15869140625,-0.0667410645863958,-0.00180406026291902,,
0.1611328125,-0.0689412885756466,-0.00186734279591194,,
0.16357421875,-0.0711603922346857,-0.00195914777739192,,
0.166015625,-0.0733046136079357,-0.00203093887700856,,
0.16845703125,-0.0754518048168826,-0.00211774561171296,,
0.1708984375,-0.0776266261043679,-0.00222155958214554,,
0.17333984375,-0.0796973970768968,-0.00227796333987351,,
0.17578125,-0.0817892220632064,-0.00235740632091241,,
0.17822265625,-0.0838175668114921,-0.00245449877664905,,
0.1806640625,-0.0859452949900675,-0.00252736210742199,,
0.18310546875,-0.0879560858880726,-0.00261489136096715,,
0.185546875,-0.0899320342494181,-0.00267800673587271,,
0.18798828125,-0.0919657883412948,-0.00273192841593861,,
0.1904296875,-0.0939709047318074,-0.00282240493050878,,
0.19287109375,-0.0958564852355149,-0.00293593166563255,,
0.1953125,-0.0978002426992158,-0.00297059497440433,,
0.19775390625,-0.0997418788517045,-0.00304003486354665,,
0.2001953125,-0.101593571408798,-0.00310636253302432,,
0.20263671875,-0.103476818470172,-0.00318896502187105,,
0.205078125,-0.105288312179795,-0.00326495156955087,,
0.20751953125,-0.107206348745048,-0.00332205695135857,,
0.2099609375,-0.108903450747555,-0.00342496694844696,,
0.21240234375,-0.110714785358837,-0.00350415479345667,,
0.21484375,-0.112479504156232,-0.00352359901815191,,
0.21728515625,-0.114095678135995,-0.00361601764577069,,
0.2197265625,-0.11572420875357,-0.00368958589979629,,
0.22216796875,-0.117471108536782,-0.00372695892915198,,
0.224609375,-0.119153573491925,-0.00381198081137768,,
0.22705078125,-0.120723555920044,-0.00383485507604897,,
0.2294921875,-0.122265961302404,-0.00389360564535446,,
0.23193359375,-0.123776759147704,-0.00396490406850125,,
0.234375,-0.125381955341944,-0.00403160014560688,,
0.23681640625,-0.12687472204194,-0.00411460733298252,,
0.2392578125,-0.128267309819942,-0.00416505388437738,,
0.24169921875,-0.129614819734686,-0.00419760462283936,,
0.244140625,-0.1311317693825,-0.0042545703396657,,
0.24658203125,-0.132399889225128,-0.00434875182527827,,
0.2490234375,-0.133670766772333,-0.00439823941711559,,
0.25146484375,-0.135016950867569,-0.00445224907512287,,
0.25390625,-0.136284010054591,-0.00450318830298757,,
0.25634765625,-0.137588404318947,-0.00453120927721029,,
0.2587890625,-0.138769550401877,-0.00459765901608122,,
0.26123046875,-0.139932665339504,-0.00467870429537154,,
0.263671875,-0.141051869135039,-0.00470514166665525,,
0.26611328125,-0.142252902510582,-0.00474119502689563,,
0.2685546875,-0.143236607552441,-0.00480229570695068,,
0.27099609375,-0.144159749159192,-0.00482307609662547,,
0.2734375,-0.145245648368696,-0.00485649011863432,,
0.27587890625,-0.146255710702365,-0.00491989692046912,,
0.2783203125,-0.147153237476229,-0.00495070569569878,,
0.28076171875,-0.148131745305618,-0.00502094728382874,,
0.283203125,-0.14886656750951,-0.00505328797495652,,
0.28564453125,-0.149690272653191,-0.00508886625431515,,
0.2880859375,-0.150620467619722,-0.00512698709616988,,
0.29052734375,-0.15128655934034,-0.00514712524687466,,
0.29296875,-0.152127022842597,-0.00518851117006625,,
0.29541015625,-0.152618318519333,-0.00524054022467579,,
0.2978515625,-0.153319624006073,-0.0052755202540351,,
0.30029296875,-0.153907227211841,-0.00529356452974339,,
0.302734375,-0.154606146223467,-0.00532758559954516,,
0.30517578125,-0.155136314928166,-0.00536414923184347,,
0.3076171875,-0.155663460764387,-0.00538491202592972,,
0.31005859375,-0.156052933502939,-0.00539031277178559,,
0.3125,-0.156452747633651,-0.00542259297807934,,
0.31494140625,-0.157017069448865,-0.0054537470667273,,
0.3173828125,-0.157285415317203,-0.00548565556621972,,
0.31982421875,-0.157589187082784,-0.00550232738604794,,
0.322265625,-0.157932627368033,-0.00549456773164758,,
0.32470703125,-0.158266521752827,-0.00551924554411087,,
0.3271484375,-0.158297068634282,-0.00555517573523323,,
0.32958984375,-0.158517631967566,-0.00555749835287678,,
0.33203125,-0.158670843669864,-0.00556961291535885,,
0.33447265625,-0.158706004403206,-0.00559993891163657,,
0.3369140625,-0.158761370625843,-0.00559393881605752,,
0.33935546875,-0.15891606724599,-0.00562438688172895,,
0.341796875,-0.158810001685382,-0.00563636177922922,,
0.34423828125,-0.15872939185932,-0.00563535883070143,,
0.3466796875,-0.158667025309682,-0.00561070741162073,,
0.34912109375,-0.15868415489772,-0.00562039378292978,,
0.3515625,-0.158390406327617,-0.00563491894099588,,
0.35400390625,-0.158116279886226,-0.00565313807286216,,
0.3564453125,-0.157981629657034,-0.00565113327553046,,
0.35888671875,-0.157662160188483,-0.00563232249201118,,
0.361328125,-0.157346933342356,-0.00564941770568028,,
0.36376953125,-0.157051169526601,-0.00563304501085193,,
0.3662109375,-0.156696486291928,-0.00564889863582785,,
0.36865234375,-0.15620481938573,-0.00562913879026938,,
0.37109375,-0.155762738129116,-0.00562213464643779,,
0.37353515625,-0.155303049989441,-0.00560315890427887,,
0.3759765625,-0.154873272337858,-0.00557137247417971,,
0.37841796875,-0.154203574388179,-0.00558891527562366,,
0.380859375,-0.153493147263227,-0.00558902084915314,,
0.38330078125,-0.152959001100006,-0.00559814416163951,,
0.3857421875,-0.15218154054075,-0.00557593852931992,,
0.38818359375,-0.151638484870437,-0.00553393786026524,,
0.390625,-0.150802104892263,-0.00548863032035163,,
0.39306640625,-0.150051744083743,-0.00549458532723612,,
0.3955078125,-0.149336490975783,-0.00546954790493892,,
0.39794921875,-0.148328868150008,-0.00544743025056027,,
0.400390625,-0.147487768254387,-0.00544514282409336,,
0.40283203125,-0.146445727154194,-0.00540813820236563,,
0.4052734375,-0.145568087672944,-0.00539866187839078,,
0.40771484375,-0.144566192387441,-0.00534987041201163,,
0.41015625,-0.143537197351204,-0.00532473511425557,,
0.41259765625,-0.142464450271215,-0.00531321880177282,,
0.4150390625,-0.141326154674771,-0.00524369093468957,,
0.41748046875,-0.140209920714933,-0.0052492500408392,,
0.419921875,-0.139058260857852,-0.00521969825044222,,
0.42236328125,-0.137832355108345,-0.00519325208136445,,
0.4248046875,-0.136727576229053,-0.00516775607404973,,
0.42724609375,-0.135487934989448,-0.00509465410311138,,
0.4296875,-0.134078058525067,-0.00505873380950739,,
0.43212890625,-0.132885457361592,-0.00502370979117739,,
0.4345703125,-0.131521666383295,-0.00500563912208696,,
0.43701171875,-0.130128813441392,-0.00495506060378048,,
0.439453125,-0.128615682153759,-0.00492780613736921,,
0.44189453125,-0.127243830192856,-0.00485099149731916,,
0.4443359375,-0.125687848418738,-0.00482559116601511,,
0.44677734375,-0.124328777357888,-0.00478600989033939,,
0.44921875,-0.122649494369563,-0.00472447042030311,,
0.45166015625,-0.121103907020384,-0.00468635837624243,,
0.4541015625,-0.119519128446561,-0.00463509472972001,,
0.45654296875,-0.11799767101242,-0.00458365402759142,,
0.458984375,-0.116315046958936,-0.00450955680619503,,
0.46142578125,-0.114562631766572,-0.00448243430669537,,
0.4638671875,-0.112941737869361,-0.00445446611923739,,
0.46630859375,-0.111221778738543,-0.00438029191714273,,
0.46875,-0.109422694699511,-0.0043071382591644,,
0.47119140625,-0.107670279507147,-0.00426888545039805,,
0.4736328125,-0.10590853054545,-0.00421320421151083,,
0.47607421875,-0.104007199305992,-0.00416723463759094,,
0.478515625,-0.102188811334929,-0.0040872989800822,,
0.48095703125,-0.100415819423807,-0.00399960256844922,,
0.4833984375,-0.0984485154056514,-0.00393739336633647,,
0.48583984375,-0.0965151523668901,-0.00391797663474813,,
0.48828125,-0.0945764860500984,-0.00385211634808202,,
0.49072265625,-0.0926134776871471,-0.00377659608348946,,
0.4931640625,-0.0906149373613922,-0.00370197429361951,,
0.49560546875,-0.0886581868665168,-0.00363276094767562,,
0.498046875,-0.0864917447583195,-0.00357587441099616,,
0.50048828125,-0.0844654682884657,-0.00351089390374071,,
0.5029296875,-0.0824126754284598,-0.00345437687441397,,
0.50537109375,-0.0803389346202339,-0.00334467608000111,,
0.5078125,-0.0781715379219911,-0.00326806598866414,,
0.51025390625,-0.076050650972075,-0.00322897738945782,,
0.5126953125,-0.0739961080303191,-0.00315109051825102,,
0.51513671875,-0.0718120590390609,-0.00306246923851283,,
0.517578125,-0.0696582917653562,-0.00303590979783586,,
0.52001953125,-0.0673971861443164,-0.00294729841561558,,
0.5224609375,-0.0651937801882473,-0.00285708583486866,,
0.52490234375,-0.0629036656363812,-0.00280102629083512,,
0.52734375,-0.0607606640170783,-0.00272419515492084,,
0.52978515625,-0.0584567079095528,-0.00265188608517652,,
0.5322265625,-0.0561852078635734,-0.00255044861887654,,
0.53466796875,-0.0539134956864727,-0.00248444646778045,,
0.537109375,-0.0516494202297359,-0.00242814058551222,,
0.53955078125,-0.0493189477320585,-0.00231318860774321,,
0.5419921875,-0.0469897480211083,-0.0022339556740385,,
0.54443359375,-0.0446497296229762,-0.00216403960429057,,
0.546875,-0.0422441627083883,-0.00208234328823664,,
0.54931640625,-0.0399440249610448,-0.00202402381084266,,
0.5517578125,-0.0375622167320331,-0.00193049336199369,,
0.55419921875,-0.035195681943749,-0.00183437746140269,,
0.556640625,-0.0327960547005552,-0.00173665156449054,,
0.55908203125,-0.0304076704067858,-0.00167198777782263,,
0.5615234375,-0.0280248015221681,-0.00159661707572978,,
0.56396484375,-0.025601044363936,-0.00150343963836974,,
0.56640625,-0.0232567303105992,-0.00141616552085377,,
0.56884765625,-0.020814464712041,-0.00132468605775538,,
0.5712890625,-0.0183823283745209,-0.00124898983728094,,
0.57373046875,-0.0159090916322652,-0.00117223018344381,,
0.576171875,-0.0135326397140642,-0.00108186584074854,,
0.57861328125,-0.0110871921486878,-0.000994487249427412,,
0.5810546875,-0.00872341506497947,-0.000899884569422138,,
0.58349609375,-0.00625161020779198,-0.000829431834233674,,
0.5859375,-0.00380488985568826,-0.000753286926259644,,
0.58837890625,-0.00131558418100046,-0.000632317257323489,,
0.5908203125,0.00112031748392126,-0.00056433670227829,,
0.59326171875,0.0035747010727789,-0.000487178948258116,,
0.595703125,0.00594057295130922,-0.000414950158384997,,
0.59814453125,0.00839620281050401,-0.000333931272476828,,
0.6005859375,0.0108838909853925,-0.000219480768972158,,
0.60302734375,0.0132586723710139,-0.000135497026450881,,
0.60546875,0.0157145143613299,-4.8838754522329E-05,,
0.60791015625,0.0181429914370091,3.80460606046462E-05,,
0.6103515625,0.0204972226202627,0.000112633759022263,,
0.61279296875,0.0229615498554273,0.000193811005224198,,
0.615234375,0.0254082967239212,0.0003146948956676,,
0.61767578125,0.0277809567983304,0.000370472910289799,,
0.6201171875,0.0301165204429171,0.000471603553520605,,
0.62255859375,0.032518268997323,0.000534349421073443,,
0.625,0.0349516250887901,0.000630551100157195,,
0.62744140625,0.0373934664251059,0.000722989522812689,,
0.6298828125,0.0396986953193586,0.00080412497949256,,
0.63232421875,0.0420469868312182,0.000899284119974642,,
0.634765625,0.0443914334665057,0.000975083714529923,,
0.63720703125,0.0467435698549373,0.00105563631735039,,
0.6396484375,0.0490708603857965,0.00116060279881047,,
0.64208984375,0.0514030299324437,0.0012445777435377,,
0.64453125,0.0537237443985452,0.00132497198606396,,
0.64697265625,0.0560037296893732,0.00141352178372545,,
0.6494140625,0.0582737448175041,0.0014611024536908,,
0.65185546875,0.0605072733927859,0.00155340670998605,,
0.654296875,0.0627210737737946,0.00164410316940877,,
0.65673828125,0.0649690272653191,0.00175529848909495,,
0.6591796875,0.0672117039952033,0.00182444915075619,,
0.66162109375,0.0694076588456397,0.00189778756241088,,
0.6640625,0.0715947307053752,0.00198071556963919,,
0.66650390625,0.0737998337104141,0.00206787531583208,,
0.6689453125,0.0759531767218763,0.00213516964293703,,
0.67138671875,0.078097185964005,0.00223198936705638,,
0.673828125,0.0801544335775564,0.00229674113166523,,
0.67626953125,0.0823383234704736,0.00240110936312643,,
0.6787109375,0.0843382956812967,0.00246208687406435,,
0.68115234375,0.0863927855902723,0.00256505625626291,,
0.68359375,0.0884228804203081,0.00262629770102407,,
0.68603515625,0.0904073670592825,0.00270019037370739,,
0.6884765625,0.0924230369730756,0.00277492763462428,,
0.69091796875,0.0943392173910184,0.00284979686245324,,
0.693359375,0.0964113141830549,0.00294677494686679,,
0.69580078125,0.0982865532946031,0.00299701914899719,,
0.6982421875,0.10013357896703,0.00307677775089976,,
0.70068359375,0.101998847915881,0.00312879470854233,,
0.703125,0.103884481452368,0.00320335601357735,,
0.70556640625,0.105785574044315,0.00327193261917325,,
0.7080078125,0.107534011778156,0.0033336755381983,,
0.71044921875,0.109375495525041,0.00341326918146123,,
0.712890625,0.111091212033435,0.00344726385788086,,
0.71533203125,0.112792264978075,0.00354794581361206,,
0.7177734375,0.11446279755765,0.00362863038334371,,
0.72021484375,0.116164539928433,0.00368530797241329,,
0.72265625,0.117866467913948,0.0037460743362927,,
0.72509765625,0.119455939888828,0.0038338037396537,,
0.7275390625,0.120998159656458,0.00386058422490798,,
0.72998046875,0.122566020773364,0.0039379608240564,,
0.732421875,0.124122851071967,0.00402410002613296,,
0.73486328125,0.125594828922084,0.00405695978711318,,
0.7373046875,0.127069140214535,0.00410223983392033,,
0.73974609375,0.128634880020229,0.0041941877795546,,
0.7421875,0.130022005421859,0.00425293285023853,,
0.74462890625,0.131369250172701,0.00430266458086237,,
0.7470703125,0.13265667394736,0.00435164190064175,,
0.74951171875,0.134091502334874,0.00439962506968739,,
0.751953125,0.135368133938741,0.00446473094550903,,
0.75439453125,0.136534642974307,0.00451784102906894,,
0.7568359375,0.137837154574963,0.00456306169076592,,
0.75927734375,0.139030153484291,0.00461958751788671,,
0.76171875,0.140201515019255,0.0046303274250401,,
0.76416015625,0.141353837786089,0.00473795303976798,,
0.7666015625,0.142382912371498,0.00473771329987871,,
0.76904296875,0.143501241126157,0.00479331755806767,,
0.771484375,0.144367611141593,0.00483450003227048,,
0.77392578125,0.145418482199706,0.00487599042926723,,
0.7763671875,0.146295830000665,0.0049447979769579,,
0.77880859375,0.147313237374406,0.00498569892174938,,
0.78125,0.148214794639574,0.00501979037390443,,
0.78369140625,0.149074349942741,0.00504831282239104,,
0.7861328125,0.149868356729451,0.00507582352455538,,
0.78857421875,0.150696940888921,0.00515620017149354,,
0.791015625,0.151386791295115,0.00518299825233592,,
0.79345703125,0.152230648895311,0.00520619803538924,,
0.7958984375,0.152789614399715,0.00521749440301944,,
0.79833984375,0.153539922175456,0.00524979770352241,,
0.80078125,0.154113100464981,0.00531293067401606,,
0.80322265625,0.154666762691354,0.00534764896900075,,
0.8056640625,0.155181604922545,0.00534621492856147,,
0.80810546875,0.155640205890224,0.00538033057465004,,
0.810546875,0.156070010058197,0.00539401334393119,,
0.81298828125,0.156712130962118,0.00542595813432456,,
0.8154296875,0.156980901092698,0.00544190193669003,,
0.81787109375,0.157352554817068,0.00546070062324278,,
0.8203125,0.157774483617167,0.00550158397244616,,
0.82275390625,0.157830486233168,0.00553581618930687,,
0.8251953125,0.158141258325749,0.0055223555643269,,
0.82763671875,0.158379693705995,0.00556891349072774,,
0.830078125,0.158518003197028,0.00554522103120414,,
0.83251953125,0.158751771692608,0.00558099286203317,,
0.8349609375,0.158772162796635,0.0055838785384994,,
0.83740234375,0.158786561196487,0.00560967367081355,,
0.83984375,0.158785739188393,0.00561231300904508,,
0.84228515625,0.158851261188458,0.00562202577373627,,
0.8447265625,0.158816471684579,0.00561395819654242,,
0.84716796875,0.158522033688331,0.00564727544281585,,
0.849609375,0.15842063501239,0.00563200247225071,,
0.85205078125,0.15839623993345,0.00564454812664339,,
0.8544921875,0.158160376643048,0.00562989100166567,,
0.85693359375,0.157871851801805,0.00565397056412964,,
0.859375,0.157601199007523,0.00564998516340021,,
0.86181640625,0.157338342031947,0.0056292663582842,,
0.8642578125,0.156972203716728,0.00562727805681673,,
0.86669921875,0.156647643101268,0.00564702910458115,,
0.869140625,0.156154623859172,0.00563206405680949,,
0.87158203125,0.155655930109584,0.00562388210829212,,
0.8740234375,0.155203215780519,0.00561151240978131,,
0.87646484375,0.154659311585721,0.00561994949432743,,
0.87890625,0.154195195208891,0.00559126868554705,,
0.88134765625,0.153414552682817,0.00560298734729425,,
0.8837890625,0.152711338015986,0.0055744121120429,,
0.88623046875,0.151949787290821,0.00556810409366992,,
0.888671875,0.151352001791235,0.00553966082533019,,
