Time domain (s),Current (AC) (A),Potential (AC) (V),Frequency (Hz),Column 5
0,-0.203554657556978,-0.00698941250029961,0.63096,0.25
0.00386935186065678,-0.205477517545558,-0.00706977291756372,,
0.00773870372131355,-0.207124407239446,-0.00715754455078699,,
0.0116080555819703,-0.208659184001115,-0.00722982165282593,,
0.0154774074426271,-0.210346345029859,-0.0072789619264011,,
0.0193467593032839,-0.211846009499569,-0.00736500120488515,,
0.0232161111639407,-0.213318338741987,-0.00742972965044109,,
0.0270854630245974,-0.214921800074768,-0.00749008416458929,,
0.0309548148852542,-0.216160278372715,-0.00756094759266546,,
0.034824166745911,-0.217581402189359,-0.00764518806165126,,
0.0386935186065678,-0.218900269155738,-0.00766091971549798,,
0.0425628704672245,-0.220113876246881,-0.00772965810162285,,
0.0464322223278813,-0.221256180745143,-0.00780104108508661,,
0.0503015741885381,-0.222541475432368,-0.00785837341803841,,
0.0541709260491949,-0.223472875176957,-0.00789246017837497,,
0.0580402779098517,-0.224817306355902,-0.00798090542120011,,
0.0619096297705084,-0.225607332924973,-0.00801042341685898,,
0.0657789816311652,-0.226456495985764,-0.00803789943901512,,
0.069648333491822,-0.22734847140254,-0.00809434973607548,,
0.0735176853524788,-0.228216422619554,-0.00816459694729543,,
0.0773870372131355,-0.228944540673856,-0.00816823534534805,,
0.0812563890737923,-0.229700609960572,-0.00822785130547077,,
0.0851257409344491,-0.230410247861211,-0.00826544204400692,,
0.0889950927951059,-0.231079229423793,-0.00832654266385857,,
0.0928644446557626,-0.231573958537465,-0.00834465611667934,,
0.0967337965164194,-0.231989684994231,-0.00836274238346268,,
0.100603148377076,-0.232528535474772,-0.00836952076887609,,
0.104472500237733,-0.233000395398288,-0.00842247917042016,,
0.10834185209839,-0.233314866013111,-0.00846757174504065,,
0.112211203959047,-0.23355110397743,-0.00846604932692685,,
0.116080555819703,-0.233719504377679,-0.00846625473254514,,
0.11994990768036,-0.233950275296539,-0.00850669547403937,,
0.123819259541017,-0.233927098103821,-0.00854631459305866,,
0.127688611401674,-0.23425519783197,-0.00851529834465303,,
0.13155796326233,-0.234146780930483,-0.00854934734660384,,
0.135427315122987,-0.234185589253175,-0.00857369244341211,,
0.139296666983644,-0.234140620879263,-0.00854973248213886,,
0.143166018844301,-0.233891061804179,-0.00856829148391203,,
0.147035370704958,-0.233592068318048,-0.00858057957297653,,
0.150904722565614,-0.233452158154695,-0.0085719177992809,,
0.154774074426271,-0.232987382290084,-0.00855559409394546,,
0.158643426286928,-0.232546630625234,-0.00858355342343975,,
0.162512778147585,-0.232144687283075,-0.00855516968968928,,
0.166382130008241,-0.231768616156043,-0.00856054648382276,,
0.170251481868898,-0.231064522301503,-0.00855341921092512,,
0.174120833729555,-0.230478393427841,-0.00857468473379042,,
0.177990185590212,-0.230100397284803,-0.00853889431508748,,
0.181859537450869,-0.229295047588321,-0.00851935812629057,,
0.185728889311525,-0.228403919178588,-0.00851412632435844,,
0.189598241172182,-0.227673414104438,-0.00852483007155636,,
0.193467593032839,-0.22686359837082,-0.00847296062185787,,
0.197336944893496,-0.225894391311864,-0.00846584392130811,,
0.201206296754152,-0.224859502706765,-0.00841435960714421,,
0.205075648614809,-0.224002331579387,-0.00841194307045523,,
0.208945000475466,-0.222814981706573,-0.00836691241958709,,
0.212814352336123,-0.22171387255085,-0.00834471501976131,,
0.21668370419678,-0.220408249694596,-0.0083427455423597,,
0.220553056057436,-0.219278804303258,-0.00831403708649159,,
0.224422407918093,-0.218020382839483,-0.00825832232278634,,
0.22829175977875,-0.216665710575383,-0.00820207894168057,,
0.232161111639407,-0.215209782469341,-0.00815672054802397,,
0.236030463500063,-0.213734142199392,-0.00812423021223729,,
0.23989981536072,-0.212258886932645,-0.00809329854261565,,
0.243769167221377,-0.210849082210119,-0.0080368497558907,,
0.247638519082034,-0.209180324334397,-0.00803421422056427,,
0.251507870942691,-0.207661486705262,-0.00796937854119273,,
0.255377222803347,-0.206021450068357,-0.00791420900857798,,
0.259246574664004,-0.204114837214871,-0.00784106044299548,,
0.263115926524661,-0.202407040014538,-0.00779351357329983,,
0.266985278385318,-0.200587360883906,-0.00772900563671675,,
0.270854630245974,-0.198800022022183,-0.00769466665036278,,
0.274723982106631,-0.196850750813993,-0.00763385450457887,,
0.278593333967288,-0.194755409391229,-0.00753413762843369,,
0.282462685827945,-0.192724055500521,-0.00749542471067288,,
0.286332037688601,-0.190664134372277,-0.00742130802007912,,
0.290201389549258,-0.188636861515503,-0.00737083865132471,,
0.294070741409915,-0.186601888594704,-0.00730625670830554,,
0.297940093270572,-0.184335913753123,-0.00721487537340293,,
0.301809445131229,-0.182004950371162,-0.00715397864883505,,
0.305678796991885,-0.179795031995691,-0.00709827747814851,,
0.309548148852542,-0.177402776104083,-0.00700973557385565,,
0.313417500713199,-0.175047865523002,-0.00693259972273585,,
0.317286852573856,-0.172720598171774,-0.00685065647394012,,
0.321156204434512,-0.170254267664236,-0.00678102396924052,,
0.325025556295169,-0.167669895175178,-0.00668769581196749,,
0.328894908155826,-0.165218810794412,-0.00660862522116101,,
0.332764260016483,-0.162722142034611,-0.0065556804126361,,
0.33663361187714,-0.160117364375885,-0.00645211973281956,,
0.340502963737796,-0.157539998945091,-0.00633962994993675,,
0.344372315598453,-0.15467041608451,-0.00625749186787061,,
0.34824166745911,-0.151840103550461,-0.00617688828660201,,
0.352111019319767,-0.149264278132473,-0.00607683158498507,,
0.355980371180423,-0.14659258691736,-0.00601678064825784,,
0.35984972304108,-0.14369097179043,-0.00589225802299831,,
0.363719074901737,-0.140888456487516,-0.00580947804837395,,
0.367588426762394,-0.138011096562268,-0.00570663024688089,,
0.371457778623051,-0.13497111128479,-0.00559273887271816,,
0.375327130483707,-0.132084819285272,-0.00547354169018721,,
0.379196482344364,-0.129020732807393,-0.00540275075821217,,
0.383065834205021,-0.126170785110078,-0.00528662408761216,,
0.386935186065678,-0.123120404746165,-0.00517652667605173,,
0.390804537926334,-0.119985862682448,-0.00506715422549764,,
0.394673889786991,-0.11701679499465,-0.00496204696220071,,
0.398543241647648,-0.11381041133357,-0.00482924769878013,,
0.402412593508305,-0.110668477208388,-0.00476257545152503,,
0.406281945368962,-0.10747449065039,-0.00465114743444994,,
0.410151297229618,-0.104152683029559,-0.00455175377008699,,
0.414020649090275,-0.101029537060601,-0.00444344610601188,,
0.417890000950932,-0.0977628618981967,-0.00432696903759178,,
0.421759352811589,-0.0945322230354345,-0.00421884110343296,,
0.425628704672245,-0.0912751729530631,-0.00409112713940818,,
0.429498056532902,-0.0878864517758465,-0.003958303710621,,
0.433367408393559,-0.0845464720039147,-0.00386178572491813,,
0.437236760254216,-0.081125487558429,-0.00370211306317847,,
0.441106112114873,-0.0778612764165134,-0.00360111542258812,,
0.444975463975529,-0.0744128797430951,-0.00347140479512387,,
0.448844815836186,-0.071034091648472,-0.0033466767642456,,
0.452714167696843,-0.0676336663739359,-0.00323822259763373,,
0.4565835195575,-0.0640926379302844,-0.00314860684484941,,
0.460452871418156,-0.0606981417050483,-0.00299031009868722,,
0.464322223278813,-0.0571647363247825,-0.00286144827973489,,
0.46819157513947,-0.0536377989982987,-0.00275417821610091,,
0.472060927000127,-0.0501903263325635,-0.00263822070306885,,
0.475930278860784,-0.0466562279465354,-0.00248327237055657,,
0.47979963072144,-0.0430985673645876,-0.00239076734609345,,
0.483668982582097,-0.0396125943787223,-0.00224918246147254,,
0.487538334442754,-0.0360447697122602,-0.00213089299053548,,
0.491407686303411,-0.0325128273441594,-0.00197467597626133,,
0.495277038164067,-0.0288919492365579,-0.00186764605596057,,
0.499146390024724,-0.0253658589171169,-0.00172087921047659,,
0.503015741885381,-0.021822058450416,-0.00158481611219052,,
0.506885093746038,-0.0182039523658639,-0.00146761408276364,,
0.510754445606695,-0.0145605900713064,-0.00134653351195047,,
0.514623797467351,-0.010984988340178,-0.00121095523133752,,
0.518493149328008,-0.00738805743169754,-0.001059507856354,,
0.522362501188665,-0.00381191669608733,-0.000946995418439567,,
0.526231853049322,-0.00022584287788353,-0.000836547609059046,,
0.530101204909978,0.00338086711191004,-0.000675860001909889,,
0.533970556770635,0.00698080104536069,-0.000551613768033921,,
0.537839908631292,0.0106075312016219,-0.000406102011293097,,
0.541709260491949,0.0141763183760873,-0.000287811030020624,,
0.545578612352606,0.0178231071991364,-0.000184046454921205,,
0.549447964213262,0.0213414204539111,-4.10478963370764E-05,,
0.553317316073919,0.0249450504180942,8.81039070179668E-05,,
0.557186667934576,0.0284750677701885,0.000223985765052337,,
0.561056019795233,0.0320263372989946,0.000380794830815656,,
0.564925371655889,0.0356352418070356,0.000477528794484705,,
0.568794723516546,0.0391944809021087,0.000660641862110012,,
0.572664075377203,0.0427115621466393,0.000758052456052205,,
0.57653342723786,0.0462461995371491,0.000901413495139725,,
0.580402779098517,0.0497050682976429,0.00101532601399823,,
0.584272130959173,0.0532357016548593,0.00114889403815299,,
0.58814148281983,0.0567001144614517,0.00130936113632929,,
0.592010834680487,0.0601953275241484,0.0014186852561493,,
0.595880186541144,0.0637225728531933,0.00152709109202753,,
0.5997495384018,0.0670610126123199,0.00168067408131023,,
0.603618890262457,0.0705352815008657,0.0018205311421986,,
0.607488242123114,0.0739716660744034,0.00196101952329686,,
0.611357593983771,0.0774250292891185,0.00207877735616213,,
0.615226945844428,0.0807449503942625,0.00219445394680395,,
0.619096297705084,0.0841764069268236,0.00230334309001989,,
0.622965649565741,0.0874677222941109,0.00243239823190722,,
0.626835001426398,0.0907433295307851,0.00254958515797998,,
0.630704353287055,0.0940830013001558,0.00270185717610882,,
0.634573705147711,0.0973537189961735,0.0028147698529124,,
0.638443057008368,0.100670868078268,0.0029165634402748,,
0.642312408869025,0.103834978387845,0.00308320781036286,,
0.646181760729682,0.107074279822637,0.0031819595821676,,
0.650051112590339,0.110309192220933,0.00331154636212672,,
0.653920464450995,0.113442194271845,0.00345342425182116,,
0.657789816311652,0.116572154797467,0.00357178319818807,,
0.661659168172309,0.119608713546453,0.0036811224213622,,
0.665528520032966,0.122643154777832,0.00376603649995033,,
0.669397871893622,0.125759216687887,0.00390563982448633,,
0.673267223754279,0.128748381542793,0.0040383560194579,,
0.677136575614936,0.131834875206987,0.00415718921115005,,
0.681005927475593,0.134710079114308,0.00427249425927556,,
0.684875279336249,0.137594215095899,0.00440011458250389,,
0.688744631196906,0.140525205967088,0.00447453182984825,,
0.692613983057563,0.143465629416709,0.00457874195389962,,
0.69648333491822,0.146272456755478,0.00468215764151436,,
0.700352686778877,0.149048214335902,0.00482057686307247,,
0.704222038639533,0.151749704798795,0.00492989796222165,,
0.70809139050019,0.15457593629891,0.00505667249760888,,
0.711960742360847,0.157157344263318,0.00512848290599965,,
0.715830094221504,0.159775635534409,0.005267334083491,,
0.719699446082161,0.162450021771931,0.00533253224336594,,
0.723568797942817,0.164976220277272,0.00545873587196022,,
0.727438149803474,0.167459375424707,0.00557080276092226,,
0.731307501664131,0.17009587734722,0.00563325513098434,,
0.735176853524788,0.172398196491004,0.00577271346331854,,
0.739046205385444,0.174873305071532,0.00585529256333084,,
0.742915557246101,0.177271413011799,0.0059514586408782,,
0.746784909106758,0.179443755074823,0.00602442294553818,,
0.750654260967415,0.181863423194364,0.006134882837602,,
0.754523612828071,0.184012934567551,0.00621931662952324,,
0.758392964688728,0.186276483888964,0.00631062546832517,,
0.762262316549385,0.188323507409964,0.00640939838482568,,
0.766131668410042,0.190556795479754,0.00650110595218134,,
0.770001020270699,0.192497827619437,0.00654832809975936,,
0.773870372131355,0.194659967097626,0.0066780749752744,,
0.777739723992012,0.196604117763239,0.00674237599590333,,
0.781609075852669,0.198531905792797,0.00683153713772278,,
0.785478427713326,0.200327868726228,0.00689795564862594,,
0.789347779573983,0.202158635949058,0.00697855620922372,,
0.793217131434639,0.203965378972126,0.00704694419752849,,
0.797086483295296,0.205778243546095,0.00714854748262628,,
0.800955835155953,0.20740365006135,0.00720324579058662,,
0.80482518701661,0.208865430216052,0.00728580676657353,,
0.808694538877266,0.210685378848925,0.00735116200133357,,
0.812563890737923,0.212233399720719,0.00739225822840428,,
0.81643324259858,0.213661569095947,0.00749237232276734,,
0.820302594459237,0.21517390017098,0.00756101404742449,,
0.824171946319893,0.216416690504782,0.00761931299505214,,
0.82804129818055,0.217899106831073,0.00765226247280948,,
0.831910650041207,0.219275608776687,0.0077180043534395,,
0.835780001901864,0.220308302863538,0.00778014559440265,,
0.839649353762521,0.221474400559641,0.00776510265351238,,
0.843518705623177,0.222496045054615,0.00778491825436367,,
0.847388057483834,0.223823844095264,0.00791960392673685,,
0.851257409344491,0.224707811445452,0.00798842689164569,,
0.855126761205148,0.225735923994208,0.00803576684538765,,
0.858996113065804,0.226738780332958,0.00807517753811782,,
0.862865464926461,0.227529769410033,0.00812331494896679,,
0.866734816787118,0.228431870411002,0.00817145538048702,,
0.870604168647775,0.229012493738885,0.00818972439785748,,
0.874473520508432,0.229872398388993,0.00825856246612044,,
0.878342872369088,0.230453637721998,0.00827778299481219,,
0.882212224229745,0.231090856520472,0.00834292074126974,,
0.886081576090402,0.231608300823021,0.00834530405057965,,
0.889950927951059,0.23209001682849,0.00837270455596428,,
0.893820279811715,0.232585592949205,0.00839493971417626,,
0.897689631672372,0.232799038724007,0.00843387918225202,,
0.901558983533029,0.233129525472004,0.00849150149960609,,
0.905428335393686,0.233600153385275,0.00849171898790813,,
0.909297687254343,0.233683622079318,0.00850076891780915,,
0.913167039114999,0.233857951528867,0.00854340870769033,,
0.917036390975656,0.233992856650603,0.00853023858273438,,
0.920905742836313,0.234015032834998,0.00855515307600019,,
0.92477509469697,0.23406000120891,0.00856367136782943,,
0.928644446557626,0.234182855730445,0.00855986532254427,,
0.932513798418283,0.234002366229675,0.00858676137589498,,
0.93638315027894,0.233872119646675,0.00857676899668514,,
0.940252502139597,0.233602001400642,0.00858956455845439,,
0.944121854000254,0.233190201976529,0.008584538162141,,
0.94799120586091,0.233039280721619,0.00861717349012858,,
0.951860557721567,0.232516292372971,0.0086073019377535,,
0.955729909582224,0.232086628800318,0.00856930189831528,,
0.959599261442881,0.231462307609088,0.00856638997160486,,
0.963468613303537,0.230884186802013,0.00857846057236777,,
0.967337965164194,0.230441587121797,0.00858324531501209,,
0.971207317024851,0.229724249157132,0.00855110537704551,,
0.975076668885508,0.228858453958045,0.00853235305233735,,
0.978946020746165,0.228210108567053,0.00851756384779945,,
0.982815372606821,0.227326449219425,0.00849482423755399,,
0.986684724467478,0.226644839551841,0.0085047682860302,,
0.990554076328135,0.225835716823985,0.00847424742764513,,
0.994423428188792,0.22459785453116,0.008468520235692,,
0.998292780049448,0.223692288501379,0.00840623400252749,,
1.00216213191011,0.222656206386356,0.00841204879393587,,
1.00603148377076,0.221532613043677,0.00834077304428726,,
1.00990083563142,0.220190337882659,0.00830899256615325,,
1.01377018749208,0.219077563129937,0.0082882858673976,,
1.01763953935273,0.217754076125143,0.00826301795564133,,
1.02150889121339,0.216284518905775,0.00820873045891801,,
1.02537824307405,0.21500542277009,0.00820115763706797,,
1.0292475949347,0.213451241847076,0.00812900891354085,,
1.03311694679536,0.212081554458125,0.00809323208785706,,
1.03698629865602,0.210470393061318,0.00802243964554661,,
1.04085565051667,0.208836439474994,0.0079955556748792,,
1.04472500237733,0.207231784632289,0.00796143417682726,,
1.04859435423799,0.20557253633564,0.00788908306835223,,
1.05246370609864,0.203894538383087,0.00784670909750673,,
1.0563330579593,0.201942110148646,0.00779947788791624,,
1.06020240981996,0.200245940044991,0.0077405868888003,,
1.06407176168061,0.198363428391907,0.00767035024992824,,
1.06794111354127,0.196294228686512,0.00761304208234348,,
1.07181046540193,0.194355083062516,0.00756494091954485,,
1.07567981726258,0.192360766479773,0.00748720395492342,,
1.07954916912324,0.190368605914958,0.00740549782879052,,
1.0834185209839,0.188224330585309,0.00735324928489867,,
1.08728787284455,0.186058110073185,0.00727881995487101,,
1.09115722470521,0.183865131838571,0.00722459287156507,,
1.09502657656587,0.181632421273583,0.00716411904091752,,
1.09889592842652,0.179335992678779,0.00708769908879203,,
1.10276528028718,0.176992401191816,0.00698504461023397,,
1.10663463214784,0.174487685865108,0.00694952152090256,,
1.11050398400849,0.172310107758546,0.00683779294707687,,
1.11437333586915,0.169815941519554,0.00674526375724671,,
1.11824268772981,0.167238845591001,0.00669287324182477,,
1.12211203959047,0.164683964347164,0.00659006470905288,,
1.12598139145112,0.162117687008567,0.00652896862020791,,
1.12985074331178,0.159535701539358,0.00645429763651117,,
1.13372009517244,0.156786817182385,0.00635635842516846,,
1.13758944703309,0.154225737387006,0.00622628833787164,,
1.14145879889375,0.151533795003505,0.00615775535736551,,
1.14532815075441,0.148731279700591,0.00605639372593636,,
1.14919750261506,0.145949362068946,0.00597366359238105,,
1.15306685447572,0.143172757481478,0.0058825843245649,,
1.15693620633638,0.140329893843067,0.00577500011116072,,
1.16080555819703,0.137454381933186,0.00569398571865509,,
1.16467491005769,0.134439306362832,0.005601891505429,,
1.16854426191835,0.131428311826413,0.00545978404474923,,
1.172413613779,0.128515531606645,0.0053707135230554,,
1.17628296563966,0.125482322385511,0.00527164760148136,,
1.18015231750032,0.122472790861256,0.00518519600142442,,
1.18402166936097,0.119433806592102,0.00505478759899125,,
1.18789102122163,0.116296800507896,0.00495227811263499,,
1.19176037308229,0.113083987293354,0.00483170501452657,,
1.19562972494294,0.109931311578856,0.00475536662051423,,
1.1994990768036,0.106706486264433,0.00463559097951327,,
1.20336842866426,0.10361444855414,0.00452191709365302,,
1.20723778052491,0.100343461355881,0.00439044541507627,,
1.21110713238557,0.0970980768705092,0.00429822131300339,,
1.21497648424623,0.0938362912487617,0.00419940308643962,,
1.21884583610688,0.0905656120530642,0.0040523236015213,,
1.22271518796754,0.0871769678764879,0.00396572700926345,,
1.2265845398282,0.0838853445066396,0.00382334466753509,,
1.23045389168886,0.0804819162071333,0.00371072197513422,,
1.23432324354951,0.0771031281125103,0.00359503028113828,,
1.23819259541017,0.0736581194672634,0.00344827400800218,,
1.24206194727083,0.070239291039705,0.00332409724955607,,
1.24593129913148,0.0667579765925754,0.00323042322546963,,
1.24980065099214,0.0633270975648162,0.00310887143000205,,
1.2536700028528,0.0599175092140891,0.00296256221615376,,
1.25753935471345,0.0563687422060914,0.00285274270631231,,
1.26140870657411,0.0528442303997758,0.00274858091299501,,
1.26527805843477,0.0493634934574481,0.00259539363159478,,
1.26914741029542,0.0458322440951097,0.00249473279580537,,
1.27301676215608,0.0423693713013224,0.00234887064124445,,
1.27688611401674,0.0388233378160539,0.00223285271479545,,
1.28075546587739,0.0352779203359076,0.00211049137953712,,
1.28462481773805,0.0317414349300314,0.0019751804282957,,
1.28849416959871,0.0281572091271939,0.00184723387261432,,
1.29236352145936,0.0245585072039874,0.00171107109218971,,
1.29623287332002,0.0210097016956696,0.00157930036719778,,
1.30010222518068,0.0174399905135211,0.00146325827538174,,
1.30397157704133,0.0138258499619424,0.00134086069207306,,
1.30784092890199,0.0102567162845959,0.00118395496484247,,
