Time domain (s),Current (AC) (A),Potential (AC) (V),Frequency (Hz),Column 5
0,0.193442548474791,0.00770876412127386,0.31623,0.25
0.00772034990355121,0.191421435669238,0.00765554896270659,,
0.0154406998071024,0.189479787524433,0.00756707955451441,,
0.0231610497106536,0.187268329136157,0.00749575245346135,,
0.0308813996142049,0.185063954806784,0.00744685685422608,,
0.0386017495177561,0.182899312807786,0.00734274037097116,,
0.0463220994213073,0.180613317799737,0.00726638989427553,,
0.0540424493248585,0.178319930730224,0.00720668935536883,,
0.0617627992284097,0.175957512586717,0.0071328520768299,,
0.0694831491319609,0.173518478806151,0.00701243907427695,,
0.0772034990355121,0.171162875219307,0.00696225666925487,,
0.0849238489390633,0.168636060708845,0.0068598891544287,,
0.0926441988426145,0.166179047278778,0.00678363835987161,,
0.100364548746166,0.163475092795397,0.00668686512748096,,
0.108084898649717,0.161061315224836,0.00658672686775086,,
0.115805248553268,0.158389085005242,0.00650780277948115,,
0.123525598456819,0.155669691893488,0.00639150695131274,,
0.131245948360371,0.152995652158848,0.00632257524225288,,
0.138966298263922,0.150281533590952,0.00623977261259734,,
0.146686648167473,0.147520329131537,0.00611895786081984,,
0.154406998071024,0.144695291141346,0.00602506030708971,,
0.162127347974575,0.141911563994655,0.00596509696981773,,
0.169847697878127,0.138952583390731,0.00586162086878561,,
0.177568047781678,0.136090315590974,0.0057430051653955,,
0.185288397685229,0.13319324350182,0.00563585592859583,,
0.19300874758878,0.130242886969605,0.0055284408727605,,
0.200729097492332,0.127212757774081,0.00542529100418143,,
0.208449447395883,0.124111133484075,0.00531527817140498,,
0.216169797299434,0.121161431457303,0.00522196058647983,,
0.223890147202985,0.117994279622435,0.00509729447935436,,
0.231610497106536,0.114837830876564,0.00499201805848859,,
0.239330847010088,0.111779981450546,0.00488685038177428,,
0.247051196913639,0.10861340712048,0.00476369158940848,,
0.25477154681719,0.105324517273361,0.00464539003578812,,
0.262491896720741,0.102124717167023,0.00449783630554457,,
0.270212246624292,0.0989217985347548,0.00440581156774877,,
0.277932596527844,0.0955660721318898,0.00430422338600511,,
0.285652946431395,0.0923782841254325,0.00418316698055898,,
0.293373296334946,0.0889840959027574,0.00406461169058581,,
0.301093646238497,0.0856860044791272,0.00393527864697907,,
0.308813996142049,0.0822616320054701,0.00379988009628285,,
0.3165343460456,0.0789333563308579,0.00369737967193862,,
0.324254695949151,0.0754895796958552,0.00354740034299361,,
0.331975045852702,0.0720766033169566,0.00344586955399651,,
0.339695395756253,0.0687224554272169,0.0033059762450578,,
0.347415745659805,0.0652235463337878,0.00322562640014157,,
0.355136095563356,0.0618047179062294,0.00305909077420452,,
0.362856445466907,0.0583431156230064,0.00293569334884047,,
0.370576795370458,0.0548149077859582,0.00278895822040059,,
0.378297145274009,0.0513415629050956,0.00268843029412924,,
0.386017495177561,0.0478029214812921,0.00254963650938445,,
0.393737845081112,0.0442765616596102,0.0024191797762172,,
0.401458194984663,0.040798635240652,0.00229418743663867,,
0.409178544888214,0.0372514082454596,0.00215126137415478,,
0.416898894791766,0.0336218675658288,0.00203250974057623,,
0.424619244695317,0.0301309665389868,0.00188628510551192,,
0.432339594598868,0.0265076629112171,0.00178033205437345,,
0.440059944502419,0.0229440347796492,0.00163658436941549,,
0.44778029440597,0.0193955757742126,0.00148516720114023,,
0.455500644309522,0.015826134094305,0.00136873846345376,,
0.463220994213073,0.012203330970697,0.00121986470004432,,
0.470941344116624,0.00864840391147852,0.00108555359085782,,
0.478661694020175,0.00500196159131063,0.000978827247978487,,
0.486382043923726,0.00144638002664992,0.000808038517468468,,
0.494102393827278,-0.00218304515202044,0.000674053640735028,,
0.501822743730829,-0.00575595186073972,0.000524868748226215,,
0.50954309363438,-0.00939862114953486,0.000393421235016511,,
0.517263443537931,-0.0129974000733816,0.000240925687243987,,
0.524983793441482,-0.0165588336867021,0.000131565319373639,,
0.532704143345034,-0.0201787877866204,-2.18847603905559E-06,,
0.540424493248585,-0.0237177372129849,-0.000133130026879424,,
0.548144843152136,-0.0273437743634838,-0.000271138437200502,,
0.555865193055687,-0.0309323892028162,-0.000392640391598587,,
0.563585542959239,-0.0344282182706349,-0.000526856349653215,,
0.57130589286279,-0.037986879860906,-0.000668681377607339,,
0.579026242766341,-0.041536917379468,-0.000816164122085628,,
0.586746592669892,-0.0451170621483718,-0.000907364216736539,,
0.594466942573443,-0.0486603236105908,-0.00106058472551629,,
0.602187292476995,-0.0520833100727233,-0.0012011546647277,,
0.609907642380546,-0.0556175624600319,-0.00134014177240793,,
0.617627992284097,-0.0591078474817518,-0.00147367807951815,,
0.625348342187648,-0.0625534721321208,-0.00160233449285219,,
0.633068692091199,-0.0660801014560436,-0.00173031729658346,,
0.640789041994751,-0.0694926928317409,-0.00185015184066639,,
0.648509391898302,-0.0728801819987133,-0.0020043012057358,,
0.656229741801853,-0.0763489068411604,-0.00213090658355464,,
0.663950091705404,-0.0797262319236184,-0.00225107944277347,,
0.671670441608956,-0.0830389534688981,-0.00238317791055387,,
0.679390791512507,-0.0863983374021755,-0.00252573092018604,,
0.687111141416058,-0.089795913653022,-0.00267885476749807,,
0.694831491319609,-0.0930195454575205,-0.00279269781092717,,
0.70255184122316,-0.0963574462121652,-0.00293481433361942,,
0.710272191126712,-0.0996431405327135,-0.00304419886685681,,
0.717992541030263,-0.102788154683506,-0.0031668743518849,,
0.725712890933814,-0.106039121715297,-0.00327964203648667,,
0.733433240837365,-0.109200151999264,-0.00344055921462161,,
0.741153590740916,-0.112433639885716,-0.00355775973371308,,
0.748873940644468,-0.115471392144626,-0.00370387713496179,,
0.756594290548019,-0.118638043475331,-0.00379034081770158,,
0.76431464045157,-0.121703207962174,-0.00393586314679073,,
0.772034990355121,-0.124674431667899,-0.00405301835581939,,
0.779755340258672,-0.127735746122729,-0.00414012242078199,,
0.787475690162224,-0.130662925462225,-0.00425466625985083,,
0.795196040065775,-0.133730476968916,-0.00441241777492252,,
0.802916389969326,-0.13668668554979,-0.00452107885748854,,
0.810636739872877,-0.139570821531381,-0.00462815408785211,,
0.818357089776429,-0.142474900678799,-0.00472837994703701,,
0.82607743967998,-0.145213274448377,-0.00484674342441016,,
0.833797789583531,-0.147954574242285,-0.00497350134610741,,
0.841518139487082,-0.150715201196898,-0.00509331323515871,,
0.849238489390633,-0.153533424630426,-0.00519793719111838,,
0.856958839294185,-0.156231527065148,-0.00532845584803798,,
0.864679189197736,-0.158863408949245,-0.00538575193293944,,
0.872399539101287,-0.161608019770684,-0.00550347049708355,,
0.880119889004838,-0.164039083984983,-0.00561970742217,,
0.887840238908389,-0.166606285331263,-0.00571955871816821,,
0.895560588811941,-0.169097410044965,-0.00582558426540736,,
0.903280938715492,-0.171596542825254,-0.00592156910270303,,
0.911001288619043,-0.174027684040193,-0.00604570659242798,,
0.918721638522594,-0.176297585914427,-0.00612146501763489,,
0.926441988426146,-0.178687069782985,-0.00621258053350182,,
0.934162338329697,-0.1810990378385,-0.00630409477792204,,
0.941882688233248,-0.183207315368827,-0.00642169704623807,,
0.949603038136799,-0.185458506087478,-0.00654235321279506,,
0.95732338804035,-0.187666268445022,-0.00659202512444201,,
0.965043737943902,-0.18971263746058,-0.00669055940794472,,
0.972764087847453,-0.191871504411559,-0.00676850328851986,,
0.980484437751004,-0.194008734182625,-0.0068596565627721,,
0.988204787654555,-0.195971865506062,-0.00696321724258864,,
0.995925137558106,-0.197831276967068,-0.00701988502795059,,
1.00364548746166,-0.19975752498382,-0.007114432025916,,
1.01136583736521,-0.201574740093964,-0.00721058753111503,,
1.01908618726876,-0.203353146881416,-0.00727571168455388,,
1.02680653717231,-0.205184838111929,-0.0073304824886149,,
1.03452688707586,-0.2068800842079,-0.00744369723250493,,
1.04224723697941,-0.208460137346042,-0.00749593067304222,,
1.04996758688297,-0.210102407001514,-0.00758755366161346,,
1.05768793678652,-0.211607846519244,-0.00765414133008502,,
1.06540828669007,-0.213183972624732,-0.00772631119830836,,
1.07312863659362,-0.214544188934931,-0.00776612364026308,,
1.08084898649717,-0.216097984854744,-0.00784310241649777,,
1.08856933640072,-0.217429864929327,-0.00790960550618491,,
1.09628968630427,-0.218692367427035,-0.00793447166871708,,
1.10401003620782,-0.220063517828151,-0.00801358907992178,,
1.11173038611137,-0.221436901247834,-0.00804965740034369,,
1.11945073601493,-0.222344276792662,-0.00813346138239046,,
1.12717108591848,-0.223382553425932,-0.00818308496330333,,
1.13489143582203,-0.224462102402381,-0.0082001577950126,,
1.14261178572558,-0.225414446321121,-0.00827121605635917,,
1.15033213562913,-0.22640806258304,-0.00831323962938457,,
1.15805248553268,-0.227309278076647,-0.00835788514471769,,
1.16577283543623,-0.228135956950482,-0.00841710237628668,,
1.17349318533978,-0.228852678910025,-0.00844781806794215,,
1.18121353524334,-0.229462446980247,-0.00849600229918934,,
1.18893388514689,-0.230445668155731,-0.00853789296269714,,
1.19665423505044,-0.23095418038401,-0.00857360937496354,,
1.20437458495399,-0.23137121585166,-0.00860008253439393,,
1.21209493485754,-0.231935168540926,-0.00861295059226386,,
1.21981528476109,-0.232470168989455,-0.0086473499920352,,
1.22753563466464,-0.232784639604278,-0.00868484104843281,,
1.23525598456819,-0.233130834482889,-0.00869564296743341,,
1.24297633447175,-0.233549486963984,-0.00873737655605611,,
1.2506966843753,-0.233833465325264,-0.00876196632720427,,
1.25841703427885,-0.233857412524385,-0.0087786902714293,,
1.2661373841824,-0.233977841525752,-0.00879249926827264,,
1.27385773408595,-0.234068163276778,-0.00879991803590841,,
1.2815780839895,-0.234146087924721,-0.00880900572419518,,
1.28929843389305,-0.234153094982985,-0.00882224834525225,,
1.2970187837966,-0.233954741333674,-0.00880521176159332,,
1.30473913370016,-0.233899993878449,-0.00884804336407408,,
1.31245948360371,-0.233635727681076,-0.00883305026425285,,
1.32017983350726,-0.233333192165493,-0.0088441406573212,,
1.32790018341081,-0.233200520062324,-0.00881789706887615,,
1.33562053331436,-0.232892440500643,-0.00880545190492699,,
1.34334088321791,-0.232179491572472,-0.00882134214399377,,
1.35106123312146,-0.231710865675848,-0.00883900551685635,,
1.35878158302501,-0.23127658206478,-0.00881931074283937,,
1.36650193292856,-0.230654416891476,-0.00879769482215442,,
1.37422228283212,-0.230181940962839,-0.00878671166290212,,
1.38194263273567,-0.229258626285478,-0.00876309001676479,,
1.38966298263922,-0.228544368346423,-0.00876044390909003,,
1.39738333254277,-0.227777749971991,-0.0087297403001183,,
1.40510368244632,-0.226806617897028,-0.00871949418455609,,
1.41282403234987,-0.226087739919557,-0.00870657930628749,,
1.42054438225342,-0.225055007332386,-0.00864966986725646,,
1.42826473215697,-0.224137775705605,-0.00861177857196971,,
1.43598508206053,-0.222943033771326,-0.00862046451103193,,
1.44370543196408,-0.221864100799998,-0.00859724159344877,,
1.45142578186763,-0.220623774486685,-0.00856132128589904,,
1.45914613177118,-0.219527285369378,-0.0085174248969393,,
1.46686648167473,-0.218187474228848,-0.00848024647997603,,
1.47458683157828,-0.216957080998129,-0.00844600415508978,,
1.48230718148183,-0.215493144825499,-0.00839020632293597,,
1.49002753138538,-0.213971843175876,-0.00834205531906784,,
1.49774788128894,-0.212584984644147,-0.00832307493370932,,
1.50546823119249,-0.210908064700558,-0.00823547396838986,,
1.51318858109604,-0.209514045109285,-0.00819496224113081,,
1.52090893099959,-0.207845364234204,-0.00817981055608952,,
1.52862928090314,-0.206175066345677,-0.0081170530982706,,
1.53634963080669,-0.204353231197117,-0.00805670160479277,,
1.54406998071024,-0.202599772617109,-0.00800052769911686,,
1.55179033061379,-0.200836534955788,-0.00795751334604855,,
1.55951068051734,-0.198860005520946,-0.00788841247942074,,
1.5672310304209,-0.19704502342937,-0.00780930564056392,,
1.57495138032445,-0.195128554493931,-0.00775940566826705,,
1.582671730228,-0.192999640792013,-0.00766327583877002,,
1.59039208013155,-0.191065923713156,-0.00763839759355456,,
1.5981124300351,-0.188919530865899,-0.00754908239752128,,
1.60583277993865,-0.186768671981508,-0.00750343401946196,,
1.6135531298422,-0.184371565049563,-0.00740755792631775,,
1.62127347974575,-0.182349528236327,-0.00733619759788517,,
1.62899382964931,-0.18001055678778,-0.00723830520694069,,
1.63671417955286,-0.177695070534512,-0.00717807302996176,,
1.64443452945641,-0.175410846541189,-0.00708746347646416,,
1.65215487935996,-0.173031911760346,-0.00701394034769498,,
1.65987522926351,-0.170636190839927,-0.00692052912197338,,
1.66759557916706,-0.168012009019855,-0.00683530995562842,,
1.67531592907061,-0.165627453192273,-0.00676302983291865,,
1.68303627897416,-0.162972163113536,-0.0066883120288237,,
1.69075662887772,-0.16032888513468,-0.0065681255765857,,
1.69847697878127,-0.157792484044505,-0.0064709083055785,,
1.70619732868482,-0.155195098447244,-0.00640154313024999,,
1.71391767858837,-0.152405211249332,-0.00628414626755269,,
1.72163802849192,-0.14957713173385,-0.00620510135244867,,
1.72935837839547,-0.146851617071196,-0.00611480745905624,,
1.73707872829902,-0.144086370078167,-0.00599697713008984,,
1.74479907820257,-0.141177901894254,-0.00588499481991178,,
1.75251942810613,-0.138386551684177,-0.00579458009968503,,
1.76023977800968,-0.135489402594383,-0.0056860051062384,,
1.76796012791323,-0.132497773718988,-0.00560901575765582,,
1.77568047781678,-0.129501216802618,-0.00551386311518254,,
1.78340082772033,-0.126438747338184,-0.00539286712315379,,
1.79112117762388,-0.123463442598525,-0.0052708561857151,,
1.79884152752743,-0.120413601239094,-0.00515324183471577,,
1.80656187743098,-0.117372152949452,-0.00504569537969779,,
1.81428222733453,-0.114223673769847,-0.00492910956712667,,
1.82200257723809,-0.111030303216971,-0.00482658950842207,,
1.82972292714164,-0.108007181079711,-0.00470724733368977,,
1.83744327704519,-0.104743662943557,-0.00460268379114792,,
1.84516362694874,-0.101427399368826,-0.0044751269020078,,
1.85288397685229,-0.0982568210054666,-0.00436402662772117,,
1.86060432675584,-0.0949454854717117,-0.00425231013657879,,
1.86832467665939,-0.0916976754661715,-0.00412307375443977,,
1.87604502656294,-0.0883350575060032,-0.00399450191989015,,
1.8837653764665,-0.0849765975804089,-0.00388084011671275,,
1.89148572637005,-0.08164932291412,-0.00376541424175247,,
1.8992060762736,-0.0782194063943642,-0.00363643310630124,,
1.90692642617715,-0.0749641273267187,-0.00350725562724374,,
1.9146467760807,-0.0714412710341686,-0.00339427045433993,,
1.92236712598425,-0.0679850202954437,-0.00326716062448718,,
1.9300874758878,-0.0645954521111843,-0.00315474333770505,,
1.93780782579135,-0.0610978520286396,-0.00302528946726355,,
1.94552817569491,-0.0576473763379343,-0.00289051921610639,,
1.95324852559846,-0.0541465422284986,-0.00274957471370785,,
1.96096887550201,-0.0506954505326712,-0.00264751228663895,,
1.96868922540556,-0.047041539150398,-0.00249558462498811,,
1.97640957530911,-0.0435648062413639,-0.00236124935043502,,
1.98412992521266,-0.0400369449071969,-0.00221999069826673,,
1.99185027511621,-0.0365050795397364,-0.00209822141449756,,
1.99957062501976,-0.0330007034008488,-0.00197266874047397,,
2.00729097492332,-0.0293615761415056,-0.00185638650532427,,
2.01501132482687,-0.0258220107100191,-0.00170407370813885,,
2.02273167473042,-0.0222685851632856,-0.00157699861600102,,
2.03045202463397,-0.0186871313834975,-0.00141941625849729,,
2.03817237453752,-0.0150902774756572,-0.00131660621539043,,
2.04589272444107,-0.0114524592271985,-0.00117169708248621,,
2.05361307434462,-0.00785190928862574,-0.001043789795526,,
2.06133342424817,-0.00427315053124667,-0.000881483108794878,,
2.06905377415173,-0.000712717926249556,-0.000760038547143349,,
2.07677412405528,0.00292013378091239,-0.000638270773709149,,
2.08449447395883,0.00655337049127564,-0.000518700538326922,,
2.09221482386238,0.0101114160764247,-0.000362785591138781,,
2.09993517376593,0.0137175100610962,-0.000239348897054015,,
2.10765552366948,0.0173399281815028,-0.000120527788045166,,
2.11537587357303,0.0208853456616492,5.58809006028227E-05,,
2.12309622347658,0.0244957516821752,0.000158171388321637,,
2.13081657338013,0.0279758726193808,0.000300671536213937,,
2.13853692328369,0.0315237541200155,0.000452952616355251,,
2.14625727318724,0.0351239960560272,0.000571281356013476,,
2.15397762309079,0.0386438493236071,0.000723568477496883,,
2.16169797299434,0.04216458809855,0.000864537145262023,,
2.16941832289789,0.0456660382131077,0.00100983141370126,,
2.17713867280144,0.0492505335181862,0.00113197526065756,,
2.18485902270499,0.052762070716618,0.00126077666619251,,
2.19257937260854,0.0562612878126082,0.00140392021697799,,
2.2002997225121,0.0597512648317671,0.00153196041345582,,
2.20802007241565,0.0631700932593255,0.00165695879437644,,
2.2157404223192,0.0666483661811648,0.00181307612651205,,
2.22346077222275,0.0700613425600634,0.00193351631510241,,
2.2311811221263,0.0735081607203564,0.00205263949119727,,
2.23890147202985,0.0769220996072582,0.00218660020256367,,
2.2466218219334,0.080299039686515,0.00231406345090734,,
2.25434217183695,0.0836750557580886,0.00244972479996886,,
2.26206252174051,0.0870686279756416,0.00257759583887873,,
2.26978287164406,0.0903485472481704,0.00269732314914561,,
2.27750322154761,0.093650026699972,0.00284780088878289,,
2.28522357145116,0.0968668054474873,0.00297777733528326,,
2.29294392135471,0.100251753593331,0.00310704694480179,,
2.30066427125826,0.103449089679181,0.00322923912249173,,
2.30838462116181,0.106701943226658,0.00332853461505156,,
2.31610497106536,0.109852193420988,0.003434270177888,,
2.32382532096891,0.112951584692427,0.00357942851613835,,
2.33154567087247,0.116155504333019,0.00371692039174176,,
2.33926602077602,0.119200379151153,0.00382192193155895,,
2.34698637067957,0.122411305850008,0.00392740073737263,,
2.35470672058312,0.125419258861137,0.00409228103567738,,
2.36242707048667,0.128440494482712,0.00421261248011673,,
2.37014742039022,0.131484445293163,0.00432919829268785,,
2.37786777029377,0.134377782851264,0.00446230113352986,,
2.38558812019732,0.137383310342225,0.00453510232196308,,
2.39330847010088,0.140287158487723,0.00466493075559127,,
2.40102882000443,0.142977252855858,0.00478856983462395,,
2.40874916990798,0.145878328978305,0.00491026662229288,,
2.41646951981153,0.148651584037921,0.00501867245817067,,
2.42418986971508,0.151432539161563,0.00513808561866824,,
2.43191021961863,0.154132451111331,0.00524815886486207,,
2.43963056952218,0.156890036540654,0.00536031033260853,,
2.44735091942573,0.15950655679702,0.00547168850861413,,
2.45507126932929,0.162037067338215,0.00554303675436341,,
2.46279161923284,0.164562341835872,0.00567745660770091,,
2.47051196913639,0.167179170094799,0.00576266369136214,,
2.47823231903994,0.169685694936553,0.00586098048656281,,
2.48595266894349,0.172166001060299,0.00595027151722949,,
2.49367301884704,0.174541047308808,0.00608188516733676,,
2.50139336875059,0.176856033057915,0.00616916141053858,,
2.50911371865414,0.179263650577255,0.00625227818996388,,
2.5168340685577,0.181510837262612,0.0063711838777567,,
2.52455441846125,0.18378790019639,0.00644285835595859,,
2.5322747683648,0.185949731672019,0.00652750963618187,,
2.53999511826835,0.188066710274696,0.00663831992606578,,
2.5477154681719,0.190236549816912,0.00672343034825973,,
2.55543581807545,0.192164337846469,0.00682548069264532,,
2.563156167979,0.194224220474393,0.00688919268245636,,
2.57087651788255,0.196191471332084,0.00696513234791496,,
2.5785968677861,0.198167615763725,0.00705419682826669,,
2.58631721768966,0.20014499220561,0.00714272664987581,,
2.59403756759321,0.20186056647061,0.00720292257880439,,
2.60175791749676,0.203645749314406,0.00731352444239874,,
2.60947826740031,0.205439825732151,0.00738136870994843,,
