Time domain (s),Current (AC) (A),Potential (AC) (V),Frequency (Hz),Column 5
0,0.0838277244843613,0.00232732670218283,1,0.2
0.00244140625,0.0864469650148596,0.00241208179813768,,
0.0048828125,0.0889572062503453,0.00250408459156493,,
0.00732421875,0.0915543963487491,0.00259842229952723,,
0.009765625,0.094085153256141,0.00271127564958595,,
0.01220703125,0.0965525778145341,0.00277902397483087,,
0.0146484375,0.0989831368067692,0.00288445572359608,,
0.01708984375,0.101373604104287,0.00299190526816462,,
0.01953125,0.103937248730002,0.00307619747306687,,
0.02197265625,0.106368778692968,0.00318024310608456,,
0.0244140625,0.108716899137941,0.00325735410615158,,
0.02685546875,0.111017661268529,0.0033568884694648,,
0.029296875,0.113377809221917,0.00343326293570279,,
0.03173828125,0.115700872357691,0.00354897035434965,,
0.0341796875,0.117912649718989,0.00361305902713038,,
0.03662109375,0.12028635994098,0.00369391663157215,,
0.0390625,0.122520219056008,0.00377063634804253,,
0.04150390625,0.124701457821721,0.00386587426401874,,
0.0439453125,0.126829042624112,0.00394590071049317,,
0.04638671875,0.128953965087401,0.00403358659731046,,
0.048828125,0.131002869938909,0.0041239756655771,,
0.05126953125,0.133063551725741,0.00417634373231834,,
0.0537109375,0.135003488603873,0.00427655580905073,,
0.05615234375,0.137193528749441,0.00438660623870346,,
0.05859375,0.139093123359764,0.00443041721449777,,
0.06103515625,0.141122264258643,0.00451293969228272,,
0.0634765625,0.142925388228552,0.00457532768799274,,
0.06591796875,0.144910960731062,0.00468893035892615,,
0.068359375,0.146790258920935,0.00475242315537994,,
0.07080078125,0.148601620481243,0.00480783198157564,,
0.0732421875,0.150310779541659,0.00487859037736582,,
0.07568359375,0.151902920968119,0.00496121515151593,,
0.078125,0.153691762271786,0.00504583214737764,,
0.08056640625,0.155316728773296,0.00508170748264369,,
0.0830078125,0.156979281238603,0.00516223518130765,,
0.08544921875,0.158568415787959,0.00522097375418973,,
0.087890625,0.160253018685361,0.00529327682509395,,
0.09033203125,0.161621429662316,0.00535764169806097,,
0.0927734375,0.16320602257438,0.00542003992340723,,
0.09521484375,0.164563377013652,0.0054598664557779,,
0.09765625,0.165977611544804,0.00553277307523681,,
0.10009765625,0.167387304438664,0.00559737322984333,,
0.1025390625,0.168745692491941,0.00567278611024857,,
0.10498046875,0.170056972803924,0.00569622220750965,,
0.107421875,0.171214839740341,0.00576871964150794,,
0.10986328125,0.172439641013954,0.0058058532220655,,
0.1123046875,0.173623849446666,0.00587524084656232,,
0.11474609375,0.174692042537789,0.00592002363782562,,
0.1171875,0.175766499956212,0.00598985369410165,,
0.11962890625,0.176909363828747,0.00602032778128692,,
0.1220703125,0.177790629393251,0.00607131228968916,,
0.12451171875,0.17862578950883,0.00610131581359408,,
0.126953125,0.17972254793244,0.00614855627503097,,
0.12939453125,0.180556956328743,0.00619130592603678,,
0.1318359375,0.181294643511541,0.0062106706279641,,
0.13427734375,0.182189690596105,0.00627549583457387,,
0.13671875,0.182977993543483,0.00630709518177586,,
0.13916015625,0.183551524029396,0.00633210664306061,,
0.1416015625,0.184216826910247,0.00637400723423553,,
0.14404296875,0.185020446137873,0.0064089414429418,,
0.146484375,0.185407049097166,0.00645546582982259,,
0.14892578125,0.186009677383385,0.0064985837477427,,
0.1513671875,0.186319667619805,0.00650612298985598,,
0.15380859375,0.186760644940059,0.00651937036914596,,
0.15625,0.187318420642813,0.00654395218569714,,
0.15869140625,0.187713323835778,0.00655446825203665,,
0.1611328125,0.188049843498311,0.00659726905122504,,
0.16357421875,0.188272352403992,0.00662086882267054,,
0.166015625,0.188337250834816,0.00661763625753098,,
0.16845703125,0.188587072207523,0.00664499030557808,,
0.1708984375,0.188818852317607,0.0066622374727463,,
0.17333984375,0.188799307616432,0.00667467671075128,,
0.17578125,0.188788532973477,0.0067000052907682,,
0.17822265625,0.188903295449605,0.00670770820706545,,
0.1806640625,0.188824615498723,0.00667110656760661,,
0.18310546875,0.18885844286614,0.00668538714018485,,
0.185546875,0.188616639832377,0.00671830611049762,,
0.18798828125,0.188316453268181,0.00676443154155404,,
0.1904296875,0.188198683914949,0.00673521569966073,,
0.19287109375,0.187957382027369,0.00672229566873916,,
0.1953125,0.187624119815032,0.0067351850107511,,
0.19775390625,0.187185397652606,0.00674024868082723,,
0.2001953125,0.186796476892212,0.00673980624904758,,
0.20263671875,0.186418612669502,0.00674358354233151,,
0.205078125,0.18601321672831,0.00673245369780107,,
0.20751953125,0.185437650336025,0.0066899470006625,,
0.2099609375,0.184936754725151,0.00668990608211617,,
0.21240234375,0.184236841435969,0.00669179089264471,,
0.21484375,0.183569346040563,0.00667292488549753,,
0.21728515625,0.18278179481246,0.00665198481954699,,
0.2197265625,0.182009497221332,0.00666419133332097,,
0.22216796875,0.181300406692657,0.00662721886953843,,
0.224609375,0.180450462764651,0.00663064835518101,,
0.22705078125,0.179620314110911,0.00656402273254386,,
0.2294921875,0.178683170746894,0.00658540267286511,,
0.23193359375,0.177692937209014,0.00654264279222261,,
0.234375,0.176701388162401,0.00651596390018572,,
0.23681640625,0.175721866624203,0.00649745848772598,,
0.2392578125,0.174589056996984,0.00644526688221481,,
0.24169921875,0.173479769918775,0.00644330279200345,,
0.244140625,0.172167017489877,0.00640948361367721,,
0.24658203125,0.171119371392296,0.00638404250765889,,
0.2490234375,0.169756754918092,0.00633869452897784,,
0.25146484375,0.168515697715137,0.00629861481310279,,
0.25390625,0.167198654222038,0.00627014573467521,,
0.25634765625,0.165785672556345,0.00623281011879628,,
0.2587890625,0.164535563400442,0.00616589806633705,,
0.26123046875,0.162943672547074,0.00613520404196688,,
0.263671875,0.161527965899007,0.00609277406710218,,
0.26611328125,0.159985657196215,0.0060290101852809,,
0.2685546875,0.158429097148816,0.00601925366945233,,
0.27099609375,0.156726954134976,0.00596281676478672,,
0.2734375,0.155251329196288,0.0059084871652435,,
0.27587890625,0.153535404662388,0.00584811185051848,,
0.2783203125,0.151786404480347,0.00581020081758554,,
0.28076171875,0.150083008601047,0.00576567120982574,,
0.283203125,0.148293415578104,0.00570846708242101,,
0.28564453125,0.146581280962221,0.00564402037236222,,
0.2880859375,0.144636833768433,0.00556987596688474,,
0.29052734375,0.142790830478157,0.00555376428936993,,
0.29296875,0.140824332852275,0.00548053032154305,,
0.29541015625,0.138938770335103,0.00541862823356754,,
0.2978515625,0.136933684453055,0.00537208594482319,,
0.30029296875,0.134899782665429,0.00530913276169587,,
0.302734375,0.132931781600994,0.00521385392717377,,
0.30517578125,0.130915169356715,0.00515878779380152,,
0.3076171875,0.128839421862728,0.00508379432849315,,
0.31005859375,0.126639390115117,0.00503168456007419,,
0.3125,0.124420283490879,0.00494708802348542,,
0.31494140625,0.122242584070091,0.00489718785655402,,
0.3173828125,0.119976432347834,0.00478996847880708,,
0.31982421875,0.117707461678291,0.00476428953373986,,
0.322265625,0.115395924904748,0.00468013031411196,,
0.32470703125,0.113149787708212,0.00460583502149614,,
0.3271484375,0.110840975917044,0.00450646433236734,,
0.32958984375,0.108472590373257,0.00447105956038119,,
0.33203125,0.106131736547952,0.00437869872967545,,
0.33447265625,0.103620994166283,0.00428443262916867,,
0.3369140625,0.101269365698022,0.00423029483531012,,
0.33935546875,0.0987761634327912,0.0041134391399642,,
0.341796875,0.0963553767911434,0.00402967120393338,,
0.34423828125,0.0938526527484172,0.00398637938219215,,
0.3466796875,0.0913045436544056,0.00388176088952985,,
0.34912109375,0.088726177859537,0.0037524787432246,,
0.3515625,0.0862021551039922,0.00372204557458566,,
0.35400390625,0.0836014569823006,0.00364159204078618,,
0.3564453125,0.0809859750481821,0.00351481359801875,,
0.35888671875,0.0783517001321648,0.00342939613309934,,
0.361328125,0.0756592922588074,0.00334963565717405,,
0.36376953125,0.0730425574592289,0.00328001275103729,,
0.3662109375,0.0703165727915459,0.00319953620055591,,
0.36865234375,0.0675497447098696,0.00309835486576349,,
0.37109375,0.0648713689296633,0.00298274207125449,,
0.37353515625,0.0621205775258739,0.00289023291081936,,
0.3759765625,0.0594113812553536,0.00279012568786108,,
0.37841796875,0.0565661237958867,0.00270841902358843,,
0.380859375,0.0538877793373169,0.00261548533323808,,
0.38330078125,0.0510675165437752,0.00250970066201317,,
0.3857421875,0.048247598288235,0.0024281499996972,,
0.38818359375,0.045469024592872,0.00232757221345947,,
0.390625,0.0426856273654883,0.00221441197430527,,
0.39306640625,0.0398351078710897,0.00214455634393795,,
0.3955078125,0.0369963966336507,0.00203261854634729,,
0.39794921875,0.0340691391298323,0.00192264995378677,,
0.400390625,0.031354461572925,0.0018413473601564,,
0.40283203125,0.0284856502428116,0.0017253944302329,,
0.4052734375,0.0255516899087826,0.00163522018433326,,
0.40771484375,0.022687138321233,0.00152844323836598,,
0.41015625,0.0197834660096974,0.00145841370417754,,
0.41259765625,0.016922453767072,0.00134283671339608,,
0.4150390625,0.0140403620630835,0.00122759985802912,,
0.41748046875,0.0111507531663356,0.00115116401397186,,
0.419921875,0.00826816031616311,0.00106633986797045,,
0.42236328125,0.00534021373634173,0.000922879445452107,,
0.4248046875,0.00247290584478024,0.000827449723791673,,
0.42724609375,-0.000437250045510338,0.000720831337190475,,
0.4296875,-0.00336770235625154,0.000623578182820328,,
0.43212890625,-0.00627986283127799,0.000507021704342581,,
0.4345703125,-0.00913821273480108,0.000410937285944879,,
0.43701171875,-0.0120117223103891,0.000342368032369755,,
0.439453125,-0.0149452441415071,0.000175249017996038,,
0.44189453125,-0.0178114870974277,8.57755021974604E-05,,
0.4443359375,-0.0206920127195913,-2.82082226954472E-06,,
0.44677734375,-0.023600226668419,-9.63708482202286E-05,,
0.44921875,-0.0264464864202539,-0.000197541953375957,,
0.45166015625,-0.0293754979357162,-0.000338054961873002,,
0.4541015625,-0.0322725613819507,-0.000419954710534576,,
0.45654296875,-0.0350727156848607,-0.000522476127711169,,
0.458984375,-0.0379149036239509,-0.000634132610297211,,
0.46142578125,-0.0407198814588816,-0.000748941099635303,,
0.4638671875,-0.0436113070105465,-0.000796978194015807,,
0.46630859375,-0.0463998723079523,-0.00092747766706669,,
0.46875,-0.0492235804815088,-0.00100414879276389,,
0.47119140625,-0.0519901579900931,-0.00111124285746333,,
0.4736328125,-0.0548765094366453,-0.00121041918349807,,
0.47607421875,-0.0575268836738225,-0.00132867250293334,,
0.478515625,-0.0603167018366882,-0.00143628060686796,,
0.48095703125,-0.0630404313465435,-0.00149599099521902,,
0.4833984375,-0.0657538873596274,-0.00159604579129002,,
0.48583984375,-0.0684695985305392,-0.00174801855009532,,
0.48828125,-0.0711625075500805,-0.00183138880900691,,
0.49072265625,-0.0738238443600319,-0.00191938414232817,,
0.4931640625,-0.0765007167016863,-0.00204822513555891,,
0.49560546875,-0.0791490237108547,-0.00212852010999232,,
0.498046875,-0.0817945744160112,-0.00221392606657034,,
0.50048828125,-0.0843975276955306,-0.00230618715831987,,
0.5029296875,-0.0869167895623277,-0.00241801754472659,,
0.50537109375,-0.0895057107486961,-0.00250662665623924,,
0.5078125,-0.0920222163114814,-0.00261373990150737,,
0.51025390625,-0.0945439839091983,-0.00271294819515644,,
0.5126953125,-0.0970905582430216,-0.00279206420398115,,
0.51513671875,-0.0994391798341782,-0.00289279543476706,,
0.517578125,-0.101915844275338,-0.00298323565121628,,
0.52001953125,-0.104348157279217,-0.00308098110684352,,
0.5224609375,-0.106885209835545,-0.00316586535195906,,
0.52490234375,-0.109222555637563,-0.00324741473557033,,
0.52734375,-0.111612835005261,-0.00333324138595037,,
0.52978515625,-0.113825332764198,-0.00345262252281175,,
0.5322265625,-0.116153407361812,-0.00351900391287696,,
0.53466796875,-0.118338154150812,-0.00361453720960725,,
0.537109375,-0.120658460982575,-0.00370864986556629,,
0.53955078125,-0.122872524823337,-0.00377508240381408,,
0.5419921875,-0.125039480922806,-0.00384887772294507,,
0.54443359375,-0.127287873277169,-0.00397938614692794,,
0.546875,-0.129329041684463,-0.00402420346321453,,
0.54931640625,-0.131509027584715,-0.00411151468959448,,
0.5517578125,-0.133540674214513,-0.00419059873080485,,
0.55419921875,-0.135504666109476,-0.00430074122718649,,
0.556640625,-0.137459386800035,-0.00437168247772934,,
0.55908203125,-0.139494478809848,-0.00443532232520782,,
0.5615234375,-0.141493613580961,-0.00450570350315127,,
0.56396484375,-0.143253388405958,-0.00456199591420114,,
0.56640625,-0.145214373423817,-0.00466417847466793,,
0.56884765625,-0.147012235358795,-0.00475629890891494,,
0.5712890625,-0.148848434976846,-0.00480633078241643,,
0.57373046875,-0.150710944769556,-0.00488715514053961,,
0.576171875,-0.152467211571265,-0.00496765215029393,,
0.57861328125,-0.154078145979624,-0.00499847404512055,,
0.5810546875,-0.155709126235341,-0.00509163662358825,,
0.58349609375,-0.157480740638934,-0.00514881901301534,,
0.5859375,-0.158913705508712,-0.00520652439260916,,
0.58837890625,-0.160420652083897,-0.0052863871648996,,
0.5908203125,-0.162061404690202,-0.00534036895680146,,
0.59326171875,-0.163436800392097,-0.00541039081876216,,
0.595703125,-0.164905158711117,-0.00548285756385036,,
0.59814453125,-0.166267274039137,-0.0055472953229776,,
0.6005859375,-0.167653381740714,-0.00563236370155051,,
0.60302734375,-0.168899293797326,-0.0056258576527255,,
0.60546875,-0.170189682577766,-0.00566617265024005,,
0.60791015625,-0.17147787884365,-0.00576173791458467,,
0.6103515625,-0.172697731298697,-0.00579877942841378,,
0.61279296875,-0.173694511058605,-0.00584552886729783,,
0.615234375,-0.174932342133001,-0.00591741252310474,,
0.61767578125,-0.17605941990074,-0.00594219893238579,,
0.6201171875,-0.177056199660649,-0.00602031243683188,,
0.62255859375,-0.177979812077698,-0.00602819948658695,,
0.625,-0.179042993706982,-0.00607681071931676,,
0.62744140625,-0.179877402103285,-0.00613266453470107,,
0.6298828125,-0.180829329279729,-0.00616803861777804,,
0.63232421875,-0.181426695531016,-0.0062259895086485,,
0.634765625,-0.182385889327127,-0.00626947569348335,,
0.63720703125,-0.182936147837122,-0.00628505542989899,,
0.6396484375,-0.1837369794391,-0.00635486246949313,,
0.64208984375,-0.184369676496357,-0.00635964993938298,,
0.64453125,-0.185027932008996,-0.00638025114862462,,
0.64697265625,-0.185605502986017,-0.00640887495030418,,
0.6494140625,-0.18600892566411,-0.00645033566710884,,
0.65185546875,-0.186508255193159,-0.00645563461882492,,
0.654296875,-0.186973381495152,-0.00652307861238333,,
0.65673828125,-0.187481982228605,-0.00652089969980496,,
0.6591796875,-0.187653186293702,-0.0065394971789936,,
0.66162109375,-0.188021466095644,-0.00656950070289852,,
0.6640625,-0.188195927610937,-0.00662093531530772,,
0.66650390625,-0.188511336490471,-0.00670497050059238,,
0.6689453125,-0.188653975223082,-0.00673946611363352,,
0.67138671875,-0.188902105227418,-0.00663195263383676,,
0.673828125,-0.18891112585873,-0.0066671528130926,,
0.67626953125,-0.188918580408216,-0.00668704945611864,,
0.6787109375,-0.188947145740702,-0.00672180976100467,,
0.68115234375,-0.18891782868894,-0.00669378950787891,,
0.68359375,-0.188714864484434,-0.00669199037055668,,
0.68603515625,-0.188573979763467,-0.00671629598692158,,
0.6884765625,-0.188431215744309,-0.00672207445284956,,
0.69091796875,-0.188134036057217,-0.00673426945828259,,
0.693359375,-0.187929756343978,-0.00671803374642499,,
0.69580078125,-0.187609774505516,-0.00672779281966251,,
0.6982421875,-0.187172837676371,-0.00672928634659398,,
0.70068359375,-0.186817525031939,-0.00671037302737831,,
0.703125,-0.186244464370574,-0.00672252583556077,,
0.70556640625,-0.185822248710582,-0.00670289388437961,,
0.7080078125,-0.185264410364555,-0.00670176862436245,,
0.71044921875,-0.184660842429241,-0.00669991833885764,,
0.712890625,-0.1840276442258,-0.00669641852446423,,
0.71533203125,-0.183390937999071,-0.00664902589718386,,
0.7177734375,-0.182759431164001,-0.00662922132088672,,
0.72021484375,-0.181889253458817,-0.00662617288920453,,
0.72265625,-0.181111725154394,-0.00661954408474141,,
0.72509765625,-0.180265038676583,-0.00661292550991455,,
0.7275390625,-0.179327143593291,-0.00658219568181684,,
0.72998046875,-0.178519609161103,-0.00656982805126738,,
0.732421875,-0.177642791268981,-0.00653152829214676,,
0.73486328125,-0.17657109015457,-0.00649076446932995,,
0.7373046875,-0.175513170560218,-0.00649207386280404,,
0.73974609375,-0.174445791831643,-0.00645506175917987,,
0.7421875,-0.173177328196752,-0.00643987074895191,,
0.74462890625,-0.172143902122141,-0.00641039788744102,,
0.7470703125,-0.170848000733678,-0.00636129563215793,,
0.74951171875,-0.169448236798588,-0.00628770490575725,,
0.751953125,-0.168101406429179,-0.00629586815569816,,
0.75439453125,-0.166886941295611,-0.00628277422095591,,
0.7568359375,-0.165636330993524,-0.0062386231097471,,
0.75927734375,-0.16415118427734,-0.00619063588484448,,
0.76171875,-0.162728680834153,-0.00612801132879026,,
0.76416015625,-0.161238773229222,-0.00607435560655256,,
0.7666015625,-0.159655715077346,-0.0060551034306271,,
0.76904296875,-0.158138432362116,-0.00598496904266455,,
0.771484375,-0.156525743942114,-0.00592937096819313,,
0.77392578125,-0.154934103661838,-0.00591395490596192,,
0.7763671875,-0.153160735246601,-0.00585861257240339,,
0.77880859375,-0.151485403553603,-0.00581533098029885,,
0.78125,-0.149708902974716,-0.00574853017513632,,
0.78369140625,-0.147987904335704,-0.00569290141175527,,
0.7861328125,-0.146053542708868,-0.00566821857754363,,
0.78857421875,-0.144159460706569,-0.00560096894707884,,
0.791015625,-0.142456816546544,-0.00553860908286952,,
0.79345703125,-0.140589796438179,-0.00546226530554117,,
0.7958984375,-0.138505466815791,-0.00539293778015892,,
0.79833984375,-0.136573798849694,-0.00533564286473043,,
0.80078125,-0.134480323309449,-0.00527818299641281,,
0.80322265625,-0.132510067087187,-0.00519414653242301,,
0.8056640625,-0.130286230895838,-0.00513028419035022,,
0.80810546875,-0.128275882978858,-0.00508991676594883,,
0.810546875,-0.126177395976773,-0.00501218175805374,,
0.81298828125,-0.124008873795479,-0.00493792482657485,,
0.8154296875,-0.121794747311445,-0.00488076161771644,,
0.81787109375,-0.119586509295071,-0.004775438558839,,
0.8203125,-0.11730303670783,-0.00472480057937386,,
0.82275390625,-0.115004780308162,-0.00463761338733715,,
0.8251953125,-0.112722811159473,-0.00460357938664391,,
0.82763671875,-0.110382458480352,-0.00446767994421649,,
0.830078125,-0.107993745194478,-0.00439553926879199,,
0.83251953125,-0.105590686599088,-0.00433063222509,,
0.8349609375,-0.103097797550222,-0.00425935211783735,,
0.83740234375,-0.100749927678341,-0.00419437346667983,,
0.83984375,-0.0982509622319949,-0.00410812867990717,,
0.84228515625,-0.0958173963626559,-0.00403759405741599,,
0.8447265625,-0.0933275141908938,-0.00394318474199773,,
0.84716796875,-0.0907728588748541,-0.00385677500233639,,
0.849609375,-0.0882109369391469,-0.00378022791098198,,
0.85205078125,-0.0856361104892026,-0.00368561144542445,,
0.8544921875,-0.0830589662381574,-0.00361889503476354,,
0.85693359375,-0.0805088838810464,-0.00350934585729989,,
0.859375,-0.0777964301603304,-0.0034033041664574,,
0.86181640625,-0.0751446777711473,-0.00332681845292226,,
0.8642578125,-0.0725348963748714,-0.00321781144619404,,
0.86669921875,-0.069798575567144,-0.00313662009986082,,
0.869140625,-0.0671062303370596,-0.00306799841939842,,
0.87158203125,-0.0644685100410276,-0.00295967679831666,,
0.8740234375,-0.0616517552707737,-0.00285791237424293,,
0.87646484375,-0.0589252694569066,-0.00280555709454733,,
0.87890625,-0.0561233611423527,-0.00269700914275806,,
0.88134765625,-0.0534053321703401,-0.00260549609317895,,
0.8837890625,-0.0505478592726389,-0.00250647321169151,,
0.88623046875,-0.0478253826282436,-0.00242439188698151,,
0.888671875,-0.0449578241635902,-0.00228468446236052,,
0.89111328125,-0.0421478975100928,-0.00220804402557295,,
0.8935546875,-0.0393592069261409,-0.00209970322392294,,
