Time domain (s),Current (AC) (A),Potential (AC) (V),Frequency (Hz),Column 5
0,0.24694645413483,0.00944510512319674,0.79433,0.3
0.00307354153815165,0.244937600376115,0.00936622972759871,,
0.0061470830763033,0.242828244243266,0.00932567271438112,,
0.00922062461445495,0.240763652758558,0.00924673917252772,,
0.0122941661526066,0.238557650898185,0.00916337197869144,,
0.0153677076907583,0.23646036974222,0.00909101259785139,,
0.0184412492289099,0.234087613828466,0.00902207657780441,,
0.0215147907670615,0.231826149716858,0.008978190691459,,
0.0245883323052132,0.229472126086633,0.00888082478660879,,
0.0276618738433649,0.226913149236614,0.00880080100246472,,
0.0307354153815165,0.224590713378615,0.008737886754004,,
0.0338089569196681,0.222004923652171,0.0086646370086263,,
0.0368824984578198,0.219328778205172,0.00856744554254307,,
0.0399560399959715,0.216621044985946,0.00850957548174724,,
0.0430295815341231,0.213994163608132,0.00840702365773449,,
0.0461031230722748,0.21122982032618,0.00831849234958071,,
0.0491766646104264,0.208403449311267,0.00822094110354143,,
0.052250206148578,0.205609400667934,0.00813476835287696,,
0.0553237476867297,0.202615173700609,0.00803049394604427,,
0.0583972892248813,0.199671266789039,0.0079518656720321,,
0.061470830763033,0.19669356830718,0.00782690573480238,,
0.0645443723011846,0.193658571075701,0.00771599538655954,,
0.0676179138393363,0.190626512241639,0.00763457609228313,,
0.0706914553774879,0.187477698022734,0.0075265548861112,,
0.0737649969156396,0.184308911883889,0.00744180671870653,,
0.0768385384537913,0.181039990670588,0.00732766925328354,,
0.0799120799919429,0.177795311235973,0.00720860025856451,,
0.0829856215300945,0.174376394017056,0.00713592834160126,,
0.0860591630682462,0.171170602435748,0.00699510901318101,,
0.0891327046063978,0.167701870198131,0.00689265531097405,,
0.0922062461445495,0.164370140740054,0.0067837946182383,,
0.0952797876827012,0.160866423208197,0.00666459479444459,,
0.0983533292208528,0.157340713608178,0.00654149917153202,,
0.101426870759004,0.153868997060684,0.00640465559333236,,
0.104500412297156,0.150238607052705,0.00634018229839572,,
0.107573953835308,0.14656524298251,0.00618653081821297,,
0.110647495373459,0.14304834857474,0.00604440319904409,,
0.113721036911611,0.139276915490772,0.00589295037414761,,
0.116794578449763,0.135611632013473,0.00581628453625926,,
0.119868119987914,0.131871786701732,0.00568366746400661,,
0.122941661526066,0.128048610275759,0.00554763429924332,,
0.126015203064218,0.124202890832108,0.00541471559329043,,
0.129088744602369,0.120407629181592,0.00527777752742598,,
0.132162286140521,0.116579677859818,0.0051210006860094,,
0.135235827678673,0.112685474858796,0.00501641010891252,,
0.138309369216824,0.108733376246179,0.00486964896000774,,
0.141382910754976,0.104835959372983,0.00475181557321847,,
0.144456452293128,0.100817654993577,0.00462062308422606,,
0.147529993831279,0.0967241460052946,0.004481246509771,,
0.150603535369431,0.0927271909196174,0.00434126303377402,,
0.153677076907583,0.0887118249376279,0.00417463767033066,,
0.156750618445734,0.0846399866302918,0.00407016338574495,,
0.159824159983886,0.0805736119056517,0.00390420307009887,,
0.162897701522037,0.0764297369491538,0.00374379208771325,,
0.165971243060189,0.07234389534163,0.00359611513528435,,
0.169044784598341,0.0681735748083844,0.00347120244188659,,
0.172118326136492,0.0640212519593142,0.00330197866765047,,
0.175191867674644,0.0599056590779493,0.0031650333335036,,
0.178265409212796,0.0557015469744148,0.00302290934847571,,
0.181338950750947,0.0514327901277193,0.00288235531234626,,
0.184412492289099,0.0473120550508756,0.00272171174493874,,
0.187486033827251,0.0431179059510812,0.00257441274317038,,
0.190559575365402,0.0388116386248667,0.00240690791761278,,
0.193633116903554,0.0346284626029243,0.00228131200571324,,
0.196706658441706,0.0303759128544786,0.00214859317751381,,
0.199780199979857,0.0261008660008136,0.00196120233257169,,
0.202853741518009,0.0218842657082594,0.00180728919423956,,
0.205927283056161,0.0175648215061307,0.00167522451141444,,
0.209000824594312,0.0133566691061487,0.00149751501801498,,
0.212074366132464,0.00903580161777143,0.00137216259356032,,
0.215147907670616,0.00476915674421893,0.00119816355809022,,
0.218221449208767,0.000460777444861432,0.00104241881270939,,
0.221294990746919,-0.00383332307955068,0.000901355996844266,,
0.22436853228507,-0.00808656151489079,0.000770661385164573,,
0.227442073823222,-0.012322720515248,0.000575406259165412,,
0.230515615361374,-0.0165620933877794,0.000435764392419102,,
0.233589156899525,-0.0208947603782819,0.000287429660474459,,
0.236662698437677,-0.0252347733623255,9.89085976912385E-05,,
0.239736239975829,-0.0293988498010613,-4.25030957065253E-05,,
0.24280978151398,-0.0336411610710091,-0.000190674291307591,,
0.245883323052132,-0.0379143255138293,-0.000348018058715205,,
0.248956864590284,-0.0421577386828083,-0.00051012981907439,,
0.252030406128435,-0.0463706659785919,-0.000673302748596782,,
0.255103947666587,-0.0505248253260473,-0.000824555695739804,,
0.258177489204739,-0.054745098615372,-0.000941342449929827,,
0.26125103074289,-0.0589407628263343,-0.00109615503815208,,
0.264324572281042,-0.0631273363702895,-0.00126451933804894,,
0.267398113819194,-0.0672648754073583,-0.00144894472395984,,
0.270471655357345,-0.0714043427677316,-0.00155802709929498,,
0.273545196895497,-0.0755129569552326,-0.00174329742298118,,
0.276618738433648,-0.0797343321435885,-0.00187179883058564,,
0.2796922799718,-0.0838220102494975,-0.00205040959094571,,
0.282765821509952,-0.0878035387487385,-0.00218677709667858,,
0.285839363048103,-0.0918214299160077,-0.00235202875483509,,
0.288912904586255,-0.0959689778692762,-0.00247076340858454,,
0.291986446124407,-0.0998414183644329,-0.00266071450583949,,
0.295059987662558,-0.10390439556706,-0.00278819835397259,,
0.29813352920071,-0.107810994932183,-0.00296307321741596,,
0.301207070738862,-0.111699412963291,-0.00311944303504408,,
0.304280612277013,-0.115580944125455,-0.00324333816897004,,
0.307354153815165,-0.119498929780566,-0.00341078484827229,,
0.310427695353317,-0.123357780187672,-0.00355067020246302,,
0.313501236891468,-0.127149782053554,-0.00367511772581652,,
0.31657477842962,-0.130882281371754,-0.00383509261128578,,
0.319648319967772,-0.134681721056097,-0.00398573320567541,,
0.322721861505923,-0.138323405529146,-0.00412034542131989,,
0.325795403044075,-0.1420342341664,-0.00424880503630298,,
0.328868944582227,-0.14567197016792,-0.0044099828224331,,
0.331942486120378,-0.149256447716268,-0.00453449030911246,,
0.33501602765853,-0.152894826492224,-0.00467162825273082,,
0.338089569196681,-0.156473519070658,-0.00482327368709834,,
0.341163110734833,-0.160081595623257,-0.00495109369327107,,
0.344236652272985,-0.163508134310473,-0.00510066039900448,,
0.347310193811136,-0.166893076309263,-0.00519096153380971,,
0.350383735349288,-0.170293536719408,-0.00534439496553452,,
0.35345727688744,-0.173540833164222,-0.0054846728069502,,
0.356530818425591,-0.177026139799767,-0.00561364120166941,,
0.359604359963743,-0.18021751486875,-0.00572571810916278,,
0.362677901501895,-0.183452782249141,-0.00585999234969714,,
0.365751443040046,-0.186651962436262,-0.00599781532888821,,
0.368824984578198,-0.189761154202505,-0.00613377399376169,,
0.37189852611635,-0.19296106898898,-0.00623755052328168,,
0.374972067654501,-0.195948684562119,-0.00637346739553379,,
0.378045609192653,-0.198955767018142,-0.00648605489983378,,
0.381119150730805,-0.201940719668622,-0.00658779449334057,,
0.384192692268956,-0.204800974078744,-0.00673914919643037,,
0.387266233807108,-0.207682440045215,-0.00683237036350492,,
0.39033977534526,-0.210490078776598,-0.00694187793333345,,
0.393413316883411,-0.213299278531609,-0.00708468331979306,,
0.396486858421563,-0.216050261287808,-0.00715288887750543,,
0.399560399959714,-0.218665710463174,-0.00728996867486797,,
0.402633941497866,-0.22132725574801,-0.00738073316264698,,
0.405707483036018,-0.223909739777361,-0.00749141637707895,,
0.408781024574169,-0.226266701805002,-0.00759632675858146,,
0.411854566112321,-0.228858460151199,-0.00769716690219768,,
0.414928107650473,-0.231263079311938,-0.00779477992863375,,
0.418001649188624,-0.233753095647591,-0.00792268897126025,,
0.421075190726776,-0.235971861171741,-0.00797645972104233,,
0.424148732264928,-0.238192187719519,-0.00808963959032027,,
0.427222273803079,-0.24008451565569,-0.00818435984054444,,
0.430295815341231,-0.24240915531175,-0.00828307582876464,,
0.433369356879383,-0.244445832021002,-0.00834160185200483,,
0.436442898417534,-0.246569558753715,-0.00846971440652577,,
0.439516439955686,-0.248535713924974,-0.00854605862293845,,
0.442589981493838,-0.250257522986073,-0.00862122719474812,,
0.445663523031989,-0.252249756434402,-0.0087043454499276,,
0.448737064570141,-0.253936488376343,-0.00876474487283785,,
0.451810606108293,-0.255461975760058,-0.00888194046788682,,
0.454884147646444,-0.257284057632992,-0.00894959363617165,,
0.457957689184596,-0.258922214192643,-0.00901588218452254,,
0.461031230722747,-0.260444304054346,-0.00907739910578043,,
0.464104772260899,-0.261903952970949,-0.00914063134157628,,
0.467178313799051,-0.26334780800144,-0.0091958430282526,,
0.470251855337202,-0.264700940011699,-0.00928319142352052,,
0.473325396875354,-0.265939841822394,-0.00933933526735542,,
0.476398938413506,-0.267095366606399,-0.00938901942561721,,
0.479472479951657,-0.268465027102125,-0.00947381120271373,,
0.482546021489809,-0.26953451193678,-0.00953191384853103,,
0.485619563027961,-0.270491786720097,-0.0095409701278264,,
0.488693104566112,-0.271379917339208,-0.00962172074016454,,
0.491766646104264,-0.272335631098896,-0.0096464619718839,,
0.494840187642416,-0.273313750138885,-0.009727227120786,,
0.497913729180567,-0.274018965518825,-0.00971668629490452,,
0.500987270718719,-0.274636028976272,-0.00979386272959948,,
0.504060812256871,-0.275387156815842,-0.00984711016308193,,
0.507134353795022,-0.27590945695661,-0.00985702409964606,,
0.510207895333174,-0.276510267403347,-0.00990610135636594,,
0.513281436871326,-0.276998959623665,-0.00993251247586047,,
0.516354978409477,-0.277294544038772,-0.00998343587619344,,
0.519428519947629,-0.277675433803875,-0.0100171879604458,,
0.52250206148578,-0.278006003513221,-0.0100224647331331,,
0.525575603023932,-0.27826026671466,-0.0100602597992139,,
0.528649144562084,-0.278198468543997,-0.010055041172782,,
0.531722686100235,-0.278505255599254,-0.0100942880781805,,
0.534796227638387,-0.278243646404274,-0.0101047707578061,,
0.537869769176539,-0.278267980007879,-0.0101141177683792,,
0.54094331071469,-0.278155861781459,-0.0101028664679386,,
0.544016852252842,-0.277937777598209,-0.0101120390397451,,
0.547090393790994,-0.277809865485676,-0.0101432490423896,,
0.550163935329145,-0.277522728963141,-0.010117839128732,,
0.553237476867297,-0.276939089776305,-0.0101304277930496,,
0.556311018405449,-0.276473996560239,-0.0101432054326978,,
0.5593845599436,-0.276124235442766,-0.0101570006318172,,
0.562458101481752,-0.275458688427948,-0.010142347775429,,
0.565531643019904,-0.274865223974752,-0.0101363151014198,,
0.568605184558055,-0.273988112345952,-0.0100996684238854,,
0.571678726096207,-0.273234413408642,-0.0101140741586878,,
0.574752267634358,-0.27258934335082,-0.0100755649839064,,
0.57782580917251,-0.271536019701955,-0.0100641846714611,,
0.580899350710662,-0.270600507424504,-0.010050825569258,,
0.583972892248813,-0.269542317054918,-0.0100042213454672,,
0.587046433786965,-0.26843454122893,-0.00999692399040075,,
0.590119975325117,-0.267289300835882,-0.00996443477013509,,
0.593193516863268,-0.266045991429062,-0.00995768980449618,,
0.59626705840142,-0.26464474316111,-0.00990957377806234,,
0.599340599939572,-0.263353317496596,-0.0098853122529512,,
0.602414141477723,-0.261978147505714,-0.00982952092079037,,
0.605487683015875,-0.260433285064034,-0.00982314118631855,,
0.608561224554027,-0.259004122020626,-0.00976522569876126,,
0.611634766092178,-0.257496448671247,-0.00972032043587356,,
0.61470830763033,-0.255770782963539,-0.00968669736362582,,
0.617781849168482,-0.254025742197866,-0.00964228997805083,,
0.620855390706633,-0.252386024614588,-0.00957880698652858,,
0.623928932244785,-0.25043979545081,-0.00950266628200991,,
0.627002473782937,-0.248434247389188,-0.00947433451901292,,
0.630076015321088,-0.246551469244621,-0.00940309081945045,,
0.63314955685924,-0.244508640265778,-0.00936163253927269,,
0.636223098397392,-0.242460944566215,-0.0092612721022638,,
0.639296639935543,-0.240503971886883,-0.00926679599653735,,
0.642370181473695,-0.238143704162148,-0.00915967605732559,,
0.645443723011846,-0.235911348549947,-0.00911187983529738,,
0.648517264549998,-0.233718844952706,-0.00902247996745231,,
0.65159080608815,-0.231192925073621,-0.00896289459211941,,
0.654664347626301,-0.228913830577514,-0.00888385929431834,,
0.657737889164453,-0.226505446595086,-0.00883082990929429,,
0.660811430702605,-0.224007441491457,-0.00873586072041377,,
0.663884972240756,-0.22144809734176,-0.00863681039122444,,
0.666958513778908,-0.218717591542558,-0.00855674299738851,,
0.67003205531706,-0.216060912978442,-0.00848083487789175,,
0.673105596855211,-0.213350975961154,-0.00841204785762439,,
0.676179138393363,-0.210636998647419,-0.00828617393394104,,
0.679252679931515,-0.207726883306138,-0.00822913245728651,,
0.682326221469666,-0.204890962499621,-0.00812321905287661,,
0.685399763007818,-0.201982959131483,-0.00805164101234501,,
0.68847330454597,-0.199022156434769,-0.00794037996949903,,
0.691546846084121,-0.196044917077507,-0.00783572942907584,,
0.694620387622273,-0.193023877233756,-0.00774041136266224,,
0.697693929160425,-0.189938559946521,-0.00763788679470645,,
0.700767470698576,-0.186852508059932,-0.00754039006078155,,
0.703841012236728,-0.183459760943005,-0.0074585782792802,,
0.706914553774879,-0.180318154980262,-0.00733960922343835,,
0.709988095313031,-0.177019803880337,-0.00722637120790459,,
0.713061636851183,-0.17375166317885,-0.00711045664754728,,
0.716135178389334,-0.170361487159662,-0.00698019631571389,,
0.719208719927486,-0.167070482053279,-0.00687445371592954,,
0.722282261465638,-0.163569381531621,-0.00673329096118813,,
0.725355803003789,-0.160042202732893,-0.00663227637880492,,
0.728429344541941,-0.156673697394652,-0.00650740911216952,,
0.731502886080093,-0.152974622347063,-0.00640339818055713,,
0.734576427618244,-0.149432384261576,-0.00627216208187331,,
0.737649969156396,-0.145742124406237,-0.00615509913296952,,
0.740723510694548,-0.142211272610739,-0.00605178959056429,,
0.743797052232699,-0.138594197216052,-0.00592569580135205,,
0.746870593770851,-0.134728000815405,-0.0057472176871376,,
0.749944135309003,-0.131047841701185,-0.00565320972854311,,
0.753017676847154,-0.127265481451825,-0.00553097176289929,,
0.756091218385306,-0.123414619812696,-0.00540076594317984,,
0.759164759923458,-0.119595896895308,-0.00526732210385727,,
0.762238301461609,-0.115756513371086,-0.00512743674966609,,
0.765311842999761,-0.111836783042509,-0.00497214263776558,,
0.768385384537913,-0.107931561051175,-0.00484682292057936,,
0.771458926076064,-0.103945624955809,-0.00471606652850332,,
0.774532467614216,-0.0999383854791746,-0.00456080148973026,,
0.777606009152367,-0.0960431724040407,-0.00442470836164111,,
0.780679550690519,-0.0919951626632532,-0.00429236930117272,,
0.783753092228671,-0.0879669871050266,-0.0041272775452188,,
0.786826633766822,-0.0838733403793655,-0.00400461801922214,,
0.789900175304974,-0.0798195456686645,-0.0038437127936648,,
0.792973716843126,-0.0757208485724439,-0.00372430945797708,,
0.796047258381277,-0.0715550274602421,-0.00359414906501998,,
0.799120799919429,-0.0673706577143492,-0.0034392038306521,,
0.802194341457581,-0.0633075886868026,-0.00327283467414752,,
0.805267882995732,-0.0591166075467228,-0.00314720968912008,,
0.808341424533884,-0.054866950283234,-0.00298416577160188,,
0.811414966072036,-0.0507411648358308,-0.00280019283624178,,
0.814488507610187,-0.0465241972435996,-0.00266180293105966,,
0.817562049148339,-0.0422947414623486,-0.00254129481651733,,
0.820635590686491,-0.0380432477004745,-0.00242126640858276,,
0.823709132224642,-0.0338288512059826,-0.00224656780097598,,
0.826782673762794,-0.0296224434794666,-0.00208640212310574,,
0.829856215300945,-0.0252949186844427,-0.00191273197739372,,
0.832929756839097,-0.0210967752006604,-0.00178046741681559,,
0.836003298377249,-0.0167630063111267,-0.00162892192132436,,
0.8390768399154,-0.0124969123870898,-0.00147718926757356,,
0.842150381453552,-0.00819941434066494,-0.00133259406668618,,
0.845223922991704,-0.0039413091846039,-0.00114505785610586,,
0.848297464529855,0.000339201251757299,-0.000982524535394269,,
0.851371006068007,0.00460612160006758,-0.000832465403559635,,
0.854444547606159,0.0089009567238338,-0.000699250515117544,,
0.85751808914431,0.0131667751731129,-0.000539508214670636,,
0.860591630682462,0.0174968710658761,-0.000384257712461089,,
0.863665172220614,0.0218221920628376,-0.000218989700670136,,
0.866738713758765,0.0259601902245027,-8.589473888021E-05,,
0.869812255296917,0.030203190181345,6.117167786579E-05,,
0.872885796835069,0.0344657488459903,0.000230042940428277,,
0.87595933837322,0.0386437826724541,0.000388913047042916,,
0.879032879911372,0.0429441272913761,0.000534049734934428,,
0.882106421449524,0.0471566872874827,0.000706086334280709,,
0.885179962987675,0.0513339406021327,0.000896282736051024,,
0.888253504525827,0.0555344715338159,0.00101636929024096,,
0.891327046063979,0.0596944617636445,0.00114968411755934,,
0.89440058760213,0.0639073431469685,0.00131241731602438,,
0.897474129140282,0.0680031477582323,0.00149580333761845,,
0.900547670678433,0.0721617147018124,0.00165022162154527,,
0.903621212216585,0.0762522852926782,0.00180965865415139,,
0.906694753754737,0.0803649856890863,0.00195489346384914,,
0.909768295292888,0.0844155665276131,0.00206724656605672,,
0.91284183683104,0.0885189926071758,0.00225015651518312,,
0.915915378369192,0.0925340372019478,0.00239853849096017,,
0.918988919907343,0.0965184581861456,0.002540847817178,,
0.922062461445495,0.100617522582043,0.00268510867709582,,
0.925136002983647,0.104521596761886,0.00285429974406348,,
0.928209544521798,0.108462309084515,0.00298200345772504,,
0.93128308605995,0.112502605532084,0.00315753246654316,,
0.934356627598102,0.116363659737252,0.00326857364386068,,
0.937430169136253,0.120251940030982,0.00342975869827278,,
0.940503710674405,0.124025898300229,0.00357391780224336,,
0.943577252212557,0.127888467616565,0.00372175829101629,,
0.946650793750708,0.131588598650725,0.00388768953353447,,
0.94972433528886,0.135408515292063,0.00401350349389196,,
0.952797876827011,0.139081879362258,0.00418729901746762,,
0.955871418365163,0.142859556540735,0.00431282951482981,,
0.958944959903315,0.146413915515565,0.00445497893884461,,
0.962018501441466,0.150151557029243,0.00458721806043627,,
0.965092042979618,0.153687551020221,0.00474620445956209,,
0.96816558451777,0.157214362519272,0.00489065429481039,,
0.971239126055921,0.160753294907665,0.00500463549217178,,
0.974312667594073,0.164252604843397,0.00512040468689046,,
0.977386209132225,0.167591312995338,0.00528899975473918,,
0.980459750670376,0.171030661258791,0.00540424563315778,,
0.983533292208528,0.174379011027255,0.0055559201406532,,
0.98660683374668,0.177612717384018,0.00566645617237604,,
0.989680375284831,0.180938248660045,0.00577657064374648,,
0.992753916822983,0.184212725280961,0.00591240029661577,,
0.995827458361135,0.187374440901023,0.00603559767547557,,
0.998900999899286,0.190452412194717,0.00615657096006217,,
1.00197454143744,0.193582172742875,0.0062643741177757,,
1.00504808297559,0.196527548853153,0.00642689653606476,,
1.00812162451374,0.19955152709432,0.00652584692637737,,
1.01119516605189,0.202516002787805,0.00665556758827712,,
1.01426870759004,0.205422812431992,0.00676518781647539,,
1.0173422491282,0.208276363623007,0.00688335191009282,,
1.02041579066635,0.211158564188832,0.00699214718829122,,
1.0234893322045,0.213885029691588,0.00710093519820765,,
1.02656287374265,0.216684955129753,0.00719667664204415,,
1.0296364152808,0.219149122750634,0.00732484552575041,,
