Time domain (s),Current (AC) (A),Potential (AC) (V),Frequency (Hz),Column 5
0,-0.0100287611598508,-0.000264053874545755,0.63096,0.033
0.00386935186065678,-0.010467875092958,-0.000266951984829511,,
0.00773870372131355,-0.0109047814148841,-0.000307992431852533,,
0.0116080555819703,-0.0113446579773084,-0.000315875477260974,,
0.0154774074426271,-0.0117746906007843,-0.000306084420945929,,
0.0193467593032839,-0.0122041111138873,-0.000338530540466397,,
0.0232161111639407,-0.0126366022134513,-0.000347738795810404,,
0.0270854630245974,-0.0130483718717021,-0.000382532013787351,,
0.0309548148852542,-0.0134765280256741,-0.00039632850223148,,
0.034824166745911,-0.0139011821055453,-0.000424720843632986,,
0.0386935186065678,-0.0143147379219335,-0.00042219426896839,,
0.0425628704672245,-0.014728524534036,-0.000455254316330311,,
0.0464322223278813,-0.0151266571759455,-0.00045817428165007,,
0.0503015741885381,-0.0155366306414626,-0.0004784723122917,,
0.0541709260491949,-0.0159399009966662,-0.000502589676115495,,
0.0580402779098517,-0.016322138838072,-0.000500231981277466,,
0.0619096297705084,-0.016721154524454,-0.00054334269629619,,
0.0657789816311652,-0.0171100252339993,-0.000577182239956286,,
0.069648333491822,-0.0175008526898187,-0.000579905509948908,,
0.0735176853524788,-0.0178754943418424,-0.000563269191318216,,
0.0773870372131355,-0.0182525242277801,-0.000587524308099052,,
0.0812563890737923,-0.0186213458139628,-0.000632739067077726,,
0.0851257409344491,-0.0189979141084718,-0.0006316204865775,,
0.0889950927951059,-0.019356921859495,-0.000619800885518718,,
0.0928644446557626,-0.0197141033139957,-0.000625326898362921,,
0.0967337965164194,-0.0200721878821613,-0.000656591521369432,,
0.100603148377076,-0.0204183011769678,-0.000660989019606095,,
0.104472500237733,-0.0207566276250629,-0.000692682796054722,,
0.10834185209839,-0.0210972419611093,-0.000711025132073662,,
0.112211203959047,-0.0214244099381437,-0.000716164377000617,,
0.116080555819703,-0.021772720809535,-0.000733537144131269,,
0.11994990768036,-0.0220863621507873,-0.000757426685757068,,
0.123819259541017,-0.0224082117917946,-0.000735995504591358,,
0.127688611401674,-0.0227224451742272,-0.00075360602802732,,
0.13155796326233,-0.0230414249206991,-0.000759741995069785,,
0.135427315122987,-0.023333762814054,-0.000797147221035743,,
0.139296666983644,-0.0236341484536236,-0.000792797406514723,,
0.143166018844301,-0.0239257538214502,-0.000827024380366304,,
0.147035370704958,-0.0242088097132484,-0.000833784209357535,,
0.150904722565614,-0.0244846306611304,-0.00083511405520964,,
0.154774074426271,-0.02476274953156,-0.000837281677458002,,
0.158643426286928,-0.0250386407216159,-0.00086975362565811,,
0.162512778147585,-0.0253069959298674,-0.000878077083164008,,
0.166382130008241,-0.0255650857461269,-0.000886278682285191,,
0.170251481868898,-0.025823376254312,-0.000874781608581898,,
0.174120833729555,-0.0260577041465862,-0.000895788934495823,,
0.177990185590212,-0.0262964071228374,-0.000907402568393501,,
0.181859537450869,-0.0265194862326844,-0.000918459892273127,,
0.185728889311525,-0.0267575570293702,-0.000939011573791504,,
0.189598241172182,-0.0269766624390913,-0.00093832280900763,,
0.193467593032839,-0.0271997214797457,-0.000954979658127186,,
0.197336944893496,-0.0274059926408278,-0.000957210858663071,,
0.201206296754152,-0.0276002925285507,-0.000959028138054929,,
0.205075648614809,-0.0278003121361518,-0.000995712810092808,,
0.208945000475466,-0.0279904075280344,-0.00100431707170312,,
0.212814352336123,-0.0281675482561226,-0.00101491941346099,,
0.21668370419678,-0.0283302993731488,-0.000968697335985258,,
0.220553056057436,-0.028518427984161,-0.00100712047682894,,
0.224422407918093,-0.0286775766811235,-0.00102159976959237,,
0.22829175977875,-0.0288142077440391,-0.0010244455602435,,
0.232161111639407,-0.0289865619697029,-0.00105060736338292,,
0.236030463500063,-0.0291144830030496,-0.00104222032758949,,
0.23989981536072,-0.029247852822175,-0.0010468933317398,,
0.243769167221377,-0.0293842932277614,-0.00104414423306798,,
0.247638519082034,-0.0294943827835228,-0.00103232860565194,,
0.251507870942691,-0.0296209491463719,-0.00104510254330137,,
0.255377222803347,-0.0297213252129366,-0.00107589032914923,,
0.259246574664004,-0.0298311940075799,-0.00109022723303909,,
0.263115926524661,-0.0299201808073696,-0.00107461346520354,,
0.266985278385318,-0.0299933029104443,-0.00109976331392936,,
0.270854630245974,-0.030076469644393,-0.00112207465701664,,
0.274723982106631,-0.0301562346502035,-0.00110171900855205,,
0.278593333967288,-0.0302215799411631,-0.00108418729570214,,
0.282462685827945,-0.0302763286984537,-0.00110354622205122,,
0.286332037688601,-0.0303271037556182,-0.00109029544724359,,
0.290201389549258,-0.030381140056573,-0.00110927886433076,,
0.294070741409915,-0.0304054538833536,-0.00112915303972061,,
0.297940093270572,-0.0304320756672781,-0.00113652812110088,,
0.301809445131229,-0.0304512116423794,-0.00110251307487497,,
0.305678796991885,-0.0304761777179181,-0.0010960923300849,,
0.309548148852542,-0.0304802015910254,-0.00113426579369458,,
0.313417500713199,-0.0304901559105327,-0.00109594398074675,,
0.317286852573856,-0.0304791981313976,-0.00111359755198182,,
0.321156204434512,-0.0304551452041202,-0.00112247202131499,,
0.325025556295169,-0.0304558676950522,-0.00109550952911386,,
0.328894908155826,-0.0304216396871494,-0.00114572578006333,,
0.332764260016483,-0.0303680850468159,-0.00111883746253127,,
0.33663361187714,-0.0303295622317063,-0.00114396611849488,,
0.340502963737796,-0.0302846072403827,-0.00113489098019093,,
0.344372315598453,-0.030235819033281,-0.00115101801024542,,
0.34824166745911,-0.0301740059202111,-0.00112707614898699,,
0.352111019319767,-0.030092374479493,-0.00113013320499,,
0.355980371180423,-0.030026547527912,-0.00112530655331078,,
0.35984972304108,-0.0299354333937115,-0.00113524066077364,,
0.363719074901737,-0.029839693310627,-0.00111249552832726,,
0.367588426762394,-0.0297296037548657,-0.00111484262678374,,
0.371457778623051,-0.0296229861694163,-0.00110645029279954,,
0.375327130483707,-0.0295191582017321,-0.00112331443362779,,
0.379196482344364,-0.0294065298931125,-0.00105285909440811,,
0.383065834205021,-0.0292711431201353,-0.00109300812085467,,
0.386935186065678,-0.0291331473521259,-0.00111141469743536,,
0.390804537926334,-0.0290038214753004,-0.00109766059451655,,
0.394673889786991,-0.0288546672362304,-0.00109378231896295,,
0.398543241647648,-0.0287026330680286,-0.00109496381547736,,
0.402412593508305,-0.0285319546199432,-0.00107082525889091,,
0.406281945368962,-0.0283740502129191,-0.00109218226538799,,
0.410151297229618,-0.0281936382064444,-0.00108261373307972,,
0.414020649090275,-0.0280177116645057,-0.00107354852888353,,
0.417890000950932,-0.0278294124653568,-0.00106466876135958,,
0.421759352811589,-0.0276422572101836,-0.00107534461551273,,
0.425628704672245,-0.0274332466043177,-0.00106986098819339,,
0.429498056532902,-0.0272321532949149,-0.00104015933142776,,
0.433367408393559,-0.0269999125986664,-0.00103719234466571,,
0.437236760254216,-0.0267991002579594,-0.00106614695654983,,
0.441106112114873,-0.0265731211497881,-0.00101892948150661,,
0.444975463975529,-0.026343168341491,-0.00103065437740746,,
0.448844815836186,-0.0261011338792756,-0.00101885530683754,,
0.452714167696843,-0.0258510817746344,-0.001009382141961,,
0.4565835195575,-0.0255889379814787,-0.000973820686340332,,
0.460452871418156,-0.0253391467763408,-0.000990033149719238,,
0.464322223278813,-0.0250876797936245,-0.000985884004168991,,
0.46819157513947,-0.024808948812822,-0.000971833864848115,,
0.472060927000127,-0.0245470057115919,-0.000928218497170619,,
0.475930278860784,-0.0242713051788652,-0.000961454047097465,,
0.47979963072144,-0.0239863527483706,-0.000943266020880795,,
0.483668982582097,-0.023680869533892,-0.000935096210903819,,
0.487538334442754,-0.0233902375219043,-0.000923471318351243,,
0.491407686303411,-0.0230903937505337,-0.000931593444612577,,
0.495277038164067,-0.0227713738656767,-0.000921485159132374,,
0.499146390024724,-0.0224617463629355,-0.00091936588287389,,
0.503015741885381,-0.0221448538124893,-0.000890840424431882,,
0.506885093746038,-0.0218174851435293,-0.000897171762254789,,
0.510754445606695,-0.0214912002109674,-0.000874680942959394,,
0.514623797467351,-0.0211548405437427,-0.000874214702182297,,
0.518493149328008,-0.0208246220494399,-0.0008597612380985,,
0.522362501188665,-0.0204850513114063,-0.000843956735399054,,
0.526231853049322,-0.0201368207167853,-0.000817869106928715,,
0.530101204909978,-0.0197796593314771,-0.000786572032504651,,
0.533970556770635,-0.019420942583746,-0.000789724455939389,,
0.537839908631292,-0.0190507863962584,-0.000777236620585153,,
0.541709260491949,-0.0186894907572839,-0.000774190160963251,,
0.545578612352606,-0.0183162539487391,-0.000746825006273433,,
0.549447964213262,-0.0179403178337956,-0.000754650433858473,,
0.553317316073919,-0.0175612107864284,-0.000722405645582569,,
0.557186667934576,-0.0171678646469433,-0.000719094276428578,,
0.561056019795233,-0.0167826063920579,-0.000710097948710242,,
0.564925371655889,-0.0163937758208977,-0.000688773393631159,,
0.568794723516546,-0.0160005500965679,-0.000689446263843152,,
0.572664075377203,-0.0155974804332899,-0.00067407555050325,,
0.57653342723786,-0.0152034419066616,-0.000665307707256702,,
0.580402779098517,-0.0147970006190342,-0.000641666518317319,,
0.584272130959173,-0.0143824513776146,-0.000640781058205864,,
0.58814148281983,-0.0139728692613524,-0.00061602857377796,,
0.592010834680487,-0.0135462082622257,-0.000602131419711771,,
0.595880186541144,-0.0131325019268934,-0.000573955641852475,,
0.5997495384018,-0.012711891789322,-0.000589198536343094,,
0.603618890262457,-0.0122816986123056,-0.000538548496034519,,
0.607488242123114,-0.0118509334633014,-0.000549022356669315,,
0.611357593983771,-0.0114211115663473,-0.000520677036709216,,
0.615226945844428,-0.010986583443739,-0.000504035419888194,,
0.619096297705084,-0.0105469075732403,-0.000490011771520305,,
0.622965649565741,-0.0101078337785182,-0.000489974684185768,,
0.626835001426398,-0.00966819804640459,-0.00044367776976717,,
0.630704353287055,-0.00921970176577787,-0.000444859928554919,,
0.634573705147711,-0.00877331275036945,-0.000455350346035388,,
0.638443057008368,-0.00831926733800123,-0.000393705897861363,,
0.642312408869025,-0.00787128282178467,-0.000409881273905732,,
0.646181760729682,-0.00741680592177651,-0.000393276744418802,,
0.650051112590339,-0.00696764735779547,-0.000383231374952775,,
0.653920464450995,-0.0065039988367896,-0.000359622637430945,,
0.657789816311652,-0.00604815723168769,-0.000311223665873328,,
0.661659168172309,-0.00558536165136541,-0.000311272011863206,,
0.665528520032966,-0.0051305937480652,-0.000287201669481263,,
0.669397871893622,-0.00466470751208943,-0.000285023450851796,,
0.673267223754279,-0.00420203234692248,-0.00024857785966681,,
0.677136575614936,-0.00373497206318223,-0.000232630305819992,,
0.681005927475593,-0.00326881489310697,-0.000226897663540448,,
0.684875279336249,-0.00280007883178836,-0.000227390395270533,,
0.688744631196906,-0.00234090574072229,-0.000202589564853195,,
0.692613983057563,-0.001875651684312,-0.000196549627516251,,
0.69648333491822,-0.00140121597230773,-0.000145708190070426,,
0.700352686778877,-0.000936814856581034,-0.000151700443691727,,
0.704222038639533,-0.000467436581100661,-0.00012546446588324,,
0.70809139050019,3.34653785857516E-06,-0.00011198520660427,,
0.711960742360847,0.000470913568710844,-8.56366422441468E-05,,
0.715830094221504,0.000935520393661226,-7.82728195192206E-05,,
0.719699446082161,0.00140718655709289,-7.12686114843208E-05,,
0.723568797942817,0.00187407123539828,-2.69916322497288E-05,,
0.727438149803474,0.00234506006358121,-3.02341249254212E-05,,
0.731307501664131,0.00280934076415257,-2.57677502104592E-05,,
0.735176853524788,0.00327618530407285,3.03824742635683E-05,,
0.739046205385444,0.00374047603924049,-1.13142861262183E-05,,
0.742915557246101,0.00420017594661113,2.90844175547811E-05,,
0.746784909106758,0.00466421581687183,6.28431638078908E-05,,
0.750654260967415,0.00512243562129153,8.85513093735746E-05,,
0.754523612828071,0.00558643535316711,0.000103407435946945,,
0.758392964688728,0.00604907539724709,9.11739137436918E-05,,
0.762262316549385,0.00650700921567288,0.000115593274434111,,
0.766131668410042,0.00696093421288577,0.000166425440046414,,
0.770001020270699,0.00741782945059682,0.000174132982889486,,
0.773870372131355,0.00787087140333729,0.000198405318789785,,
0.777739723992012,0.00832074242365403,0.000222665733760952,,
0.781609075852669,0.00876932901564725,0.00023026333914844,,
0.785478427713326,0.00921269761757612,0.000251370006137286,,
0.789347779573983,0.00966068213379268,0.000236074129740249,,
0.793217131434639,0.0101067801459091,0.000263884332444952,,
0.797086483295296,0.0105456933870907,0.000300367673237822,,
0.800955835155953,0.0109852036867508,0.00030868583255339,,
0.80482518701661,0.0114197067228684,0.000306497679816164,,
0.808694538877266,0.0118511140860344,0.000341285599602337,,
0.812563890737923,0.0122875738684262,0.000352787971496404,,
0.81643324259858,0.0127192672175861,0.000372093253665273,,
0.820302594459237,0.0131271133486923,0.000383485688103313,,
0.824171946319893,0.0135606881846542,0.000389573309156344,,
0.82804129818055,0.0139767677020062,0.000413722462124344,,
0.831910650041207,0.0143899873594191,0.000422533353169552,,
0.835780001901864,0.0148004023471723,0.000462385018666467,,
0.839649353762521,0.0152121870573175,0.000482194953494552,,
0.843518705623177,0.0156130440921164,0.000505366590287881,,
0.847388057483834,0.0159997774326546,0.000522277090284184,,
0.851257409344491,0.0164138801345399,0.000513086054060086,,
0.855126761205148,0.0168100911512622,0.00051624907387593,,
0.858996113065804,0.0171914860865807,0.000533488061692733,,
0.862865464926461,0.0175693438267114,0.000563375155131052,,
0.866734816787118,0.0179568448138648,0.000583751996358295,,
0.870604168647775,0.0183381996107982,0.000600319438510244,,
0.874473520508432,0.0186974782959209,0.000619912147521884,,
0.878342872369088,0.0190678401926321,0.000644871923658474,,
0.882212224229745,0.0194330944798381,0.00063427554236517,,
0.886081576090402,0.0197853890859516,0.000669132338629641,,
0.889950927951059,0.0201329824837091,0.000683845414055639,,
0.893820279811715,0.0204904599588,0.000692947705586811,,
0.897689631672372,0.0208264985189438,0.000714288817511566,,
0.901558983533029,0.0211708858631905,0.000673227839999679,,
0.905428335393686,0.0215021429382081,0.000708243581983403,,
0.909297687254343,0.02182546264757,0.0007115867402816,,
0.913167039114999,0.0221580894449795,0.000730480088127816,,
0.917036390975656,0.0224805160752727,0.000743750731150072,,
0.920905742836313,0.0227887036134481,0.00077727370791969,,
0.92477509469697,0.0230951601837656,0.000767016410827548,,
0.928644446557626,0.0234001717722191,0.000777236620585153,,
0.932513798418283,0.0236929762743009,0.000811567571427751,,
0.93638315027894,0.0239823389098595,0.000807487964630038,,
0.940252502139597,0.0242599359812827,0.000829189353519055,,
0.944121854000254,0.0245470859883621,0.000821545388963507,,
0.94799120586091,0.0248168962130738,0.000878151257832638,,
0.951860557721567,0.0250940919006459,0.000870172182718676,,
0.955729909582224,0.0253492114764072,0.000891550381978412,,
0.959599261442881,0.0256169345050932,0.000886914465162203,,
0.963468613303537,0.0258637855735218,0.00088346004486084,,
0.967337965164194,0.0261078670933778,0.000905961460537341,,
0.971207317024851,0.026339626129005,0.000912764337327676,,
0.975076668885508,0.0265705773796318,0.000921306345197603,,
0.978946020746165,0.0267924272514348,0.000941756036546337,,
0.982815372606821,0.027009656191652,0.00095454189512445,,
0.986684724467478,0.0272417764727451,0.000983330938550964,,
0.990554076328135,0.0274480476338271,0.000959727499219909,,
0.994423428188792,0.0276285499516684,0.000989471541510412,,
0.998292780049448,0.0278351422198313,0.00100832780202209,,
1.00216213191011,0.0280174507650025,0.000975596904754461,,
1.00603148377076,0.0282108776428493,0.0010212977727253,,
1.00990083563142,0.0283739599015526,0.00101116763220865,,
1.01377018749208,0.0285355971783919,0.00102611382802298,,
1.01763953935273,0.0287002046957295,0.00102240906821338,,
1.02150889121339,0.0288557810764172,0.00104220973120794,,
1.02537824307405,0.0290109159348686,0.00105710294511585,,
1.0292475949347,0.0291468194895541,0.00102594428592262,,
1.03311694679536,0.0292744645715032,0.00105484061770955,,
1.03698629865602,0.0294139003040784,0.00105733606550418,,
1.04085565051667,0.0295281793037857,0.00106694698333731,,
1.04472500237733,0.0296485944591167,0.00107225577036507,,
1.04859435423799,0.0297460905965497,0.00108193556467695,,
1.05246370609864,0.029839618051155,0.00108477009667274,,
1.0563330579593,0.0299338178237108,0.00110251771079151,,
1.06020240981996,0.030018991476915,0.00110382106569062,,
1.06407176168061,0.0301029208401807,0.00108563370174819,,
1.06794111354127,0.0301752100717644,0.00110841062333833,,
1.07181046540193,0.030238347751543,0.00112368530697271,,
1.07567981726258,0.0302822190064686,0.00109890566931803,,
1.07954916912324,0.0303435504589172,0.00110808743370905,,
1.0834185209839,0.0303738148012904,0.0011309901873271,,
1.08728787284455,0.030414033463171,0.00113166835572986,,
1.09115722470521,0.0304456223722528,0.00110419326358357,,
1.09502657656587,0.0304525663128769,0.00112268394894066,,
1.09889592842652,0.0304745621479174,0.00111063453886207,,
1.10276528028718,0.0304909386090424,0.00110762119293195,,
1.10663463214784,0.0304888514130167,0.00113533602820493,,
1.11050398400849,0.0304707490013319,0.0011203209559123,,
1.11437333586915,0.0304666147476655,0.00112947093115912,,
1.11824268772981,0.030424228612989,0.00111989180246974,,
1.12211203959047,0.0304104611468962,0.0011392553647358,,
1.12598139145112,0.0303785109923483,0.00114552444881832,,
1.12985074331178,0.0303179020308317,0.0011323094367981,,
1.13372009517244,0.0302644377018647,0.00114871793323079,,
1.13758944703309,0.03022088755402,0.00115281343460083,,
1.14145879889375,0.0301527325761026,0.00111565324995233,,
1.14532815075441,0.0300699672260051,0.00113650030559942,,
1.14919750261506,0.0299931423569039,0.00113183392418748,,
1.15306685447572,0.0299177624696667,0.00112377007802333,,
1.15693620633638,0.0298183396897483,0.0011501484447054,,
1.16080555819703,0.0297147826561637,0.00109132395850287,,
1.16467491005769,0.0296240347847273,0.00112263096703424,,
1.16854426191835,0.0295006443716,0.00113350285424119,,
1.172413613779,0.0293847648537864,0.00112048519982233,,
1.17628296563966,0.0292461268716153,0.00111014842987034,,
1.18015231750032,0.0291063248762759,0.00109055572085914,,
1.18402166936097,0.0289734266831756,0.00110171371036083,,
1.18789102122163,0.0288156025529217,0.00109322071075413,,
1.19176037308229,0.0286779278919932,0.00112481249703267,,
1.19562972494294,0.0284976262660776,0.00109507905112372,,
1.1994990768036,0.0283517232362015,0.00110069115956613,,
1.20336842866426,0.0281649994686681,0.00113205115000392,,
1.20723778052491,0.0279819282941798,0.00108422305848865,,
1.21110713238557,0.0277883408627927,0.00109273857540559,,
1.21497648424623,0.0276002925285507,0.00104039775000642,,
1.21884583610688,0.0273855521682103,0.0010720438427394,,
1.22271518796754,0.0271947342853958,0.00104652775658476,,
1.2265845398282,0.026960928192128,0.00103006627824564,,
1.23045389168886,0.0267565435351461,0.00103970368703177,,
1.23432324354951,0.0265312066411366,0.00104324287838375,,
1.23819259541017,0.0262875666435169,0.0010353750652734,,
1.24206194727083,0.026052997920932,0.00103231271107962,,
1.24593129913148,0.0258040245353907,0.000987908575269536,,
1.24980065099214,0.0255667966447923,0.000985354847378161,,
1.2536700028528,0.025289485559363,0.000996878412034441,,
1.25753935471345,0.0250231272357708,0.000980093744066046,,
1.26140870657411,0.0247588209871173,0.000988178782992843,,
1.26527805843477,0.0244974749443657,0.00097110801272926,,
1.26914741029542,0.0242115290888396,0.000948156250847543,,
1.27301676215608,0.0239271837514198,0.000958731439378191,,
