Time domain (s),Current (AC) (A),Potential (AC) (V),Frequency (Hz),Column 5
0,-0.0286566715611711,-0.00173187536027974,0.63096,0.225
0.00386935186065678,-0.0253602441762825,-0.00160276945026094,,
0.00773870372131355,-0.022205691891915,-0.00150977438098376,,
0.0116080555819703,-0.0189073056792085,-0.00139844514344967,,
0.0154774074426271,-0.015692869230124,-0.0013138953627676,,
0.0193467593032839,-0.012431980578502,-0.00117718672703271,,
0.0232161111639407,-0.00917787786610614,-0.00105628457091678,,
0.0270854630245974,-0.00594714117125171,-0.000951582090429337,,
0.0309548148852542,-0.00270556096526278,-0.000830837212717483,,
0.034824166745911,0.000569319313629531,-0.000689837123383441,,
0.0386935186065678,0.00384867691324834,-0.000602053305515771,,
0.0425628704672245,0.00707881896394379,-0.000471882957725711,,
0.0464322223278813,0.0103346356506803,-0.000357159596058754,,
0.0503015741885381,0.0135887733421443,-0.000237729116438601,,
0.0541709260491949,0.0168306683597468,-0.000133565876194286,,
0.0580402779098517,0.0200140433962912,1.66012972684371E-05,,
0.0619096297705084,0.0232908825030014,0.000108710271250256,,
0.0657789816311652,0.026500561798814,0.000222242810714146,,
0.069648333491822,0.029727031047351,0.000353716322424535,,
0.0735176853524788,0.0329302741946192,0.000459126555730549,,
0.0773870372131355,0.0362001174876942,0.000613394201873341,,
0.0812563890737923,0.0393412378098822,0.000726466140296367,,
0.0851257409344491,0.0424804342833205,0.000847154847149589,,
0.0889950927951059,0.0457049097249715,0.000969042801834963,,
0.0928644446557626,0.0488784906224266,0.00107872202039649,,
0.0967337965164194,0.0520436765435196,0.00120167441285268,,
0.100603148377076,0.0551548547833491,0.00131549623223837,,
0.104472500237733,0.0582900986220836,0.00141364919060916,,
0.10834185209839,0.0614203054750007,0.00152874327994335,,
0.112211203959047,0.0644763567033851,0.0016417253449923,,
0.116080555819703,0.0675838971201243,0.00177682749417052,,
0.11994990768036,0.070635226174305,0.00185688501043346,,
0.123819259541017,0.0737446904397939,0.0020148346563591,,
0.127688611401674,0.0767657276209344,0.00209931562773935,,
0.13155796326233,0.0798397580903611,0.00225917789140162,,
0.135427315122987,0.0828372893376874,0.00236150996165474,,
0.139296666983644,0.0858658819975539,0.00245174002041582,,
0.143166018844301,0.0887244414070176,0.00258522725740784,,
0.147035370704958,0.0917569517225197,0.00268844963576997,,
0.150904722565614,0.0946126428483931,0.00278659978559803,,
0.154774074426271,0.0975008295286018,0.00290905225741245,,
0.158643426286928,0.100445752257392,0.00300519429904433,,
0.162512778147585,0.10322081663112,0.00311873526413686,,
0.166382130008241,0.106095326495672,0.00324113156509265,,
0.170251481868898,0.108917402737028,0.00333206375958639,,
0.174120833729555,0.111521804237126,0.00344173455251973,,
0.177990185590212,0.114387009669544,0.00355900526262509,,
0.181859537450869,0.117113173305962,0.00364681154883639,,
0.185728889311525,0.11978469963789,0.00375594029298343,,
0.189598241172182,0.122486482863789,0.00386879878214375,,
0.193467593032839,0.125138455896607,0.00399085805794774,,
0.197336944893496,0.127705080003075,0.0041022898072991,,
0.201206296754152,0.130284576406632,0.00414594579862637,,
0.205075648614809,0.132831612234922,0.00425884079884487,,
0.208945000475466,0.135328558037585,0.00437940312126628,,
0.212814352336123,0.137787446614072,0.00446931019759012,,
0.21668370419678,0.140229545237834,0.00455290366940408,,
0.220553056057436,0.14273236752395,0.00468226515683012,,
0.224422407918093,0.144996247795357,0.00477004897469779,,
0.22829175977875,0.147457619885684,0.00482242549182743,,
0.232161111639407,0.149731784003135,0.00493644952630445,,
0.236030463500063,0.151914233003828,0.00502619932422421,,
0.23989981536072,0.154284974328512,0.00511688155839707,,
0.243769167221377,0.156492853111769,0.00520028404929151,,
0.247638519082034,0.158540073034895,0.00529288451828691,,
0.251507870942691,0.160758655413014,0.00535273175961448,,
0.255377222803347,0.162794402201778,0.00546653391919971,,
0.259246574664004,0.164886150478692,0.00556525982032863,,
0.263115926524661,0.166843858966356,0.00563279966074592,,
0.266985278385318,0.168889155040732,0.00571703348034802,,
0.270854630245974,0.170833711398762,0.0058044128680339,,
0.274723982106631,0.172574829496281,0.0058587862591879,,
0.278593333967288,0.174449427717959,0.00594184049075874,,
0.282462685827945,0.176293804024734,0.00603957778477593,,
0.286332037688601,0.178096730135719,0.00609131114557471,,
0.290201389549258,0.17975844574848,0.00617783673620886,,
0.294070741409915,0.181514674803451,0.00624153729843879,,
0.297940093270572,0.183254918424266,0.00633489326548231,,
0.301809445131229,0.184724598952741,0.00637242663321924,,
0.305678796991885,0.186250245990297,0.00644460618655929,,
0.309548148852542,0.187922805114192,0.00653208387324744,,
0.313417500713199,0.18934295528213,0.0066189240206902,,
0.317286852573856,0.190780734900428,0.00664504346995365,,
0.321156204434512,0.192081116738932,0.00669636959202702,,
0.325025556295169,0.193389054056162,0.0067717761611954,,
0.328894908155826,0.194703707354482,0.00681687012650389,,
0.332764260016483,0.196095839288811,0.0068592678905981,,
0.33663361187714,0.197203171650053,0.00692223261457992,,
0.340502963737796,0.198367869683103,0.00697404461458051,,
0.344372315598453,0.199417206749309,0.00704007065035794,,
0.34824166745911,0.200500718365123,0.00708345702156388,,
0.352111019319767,0.201535259285491,0.00709029863214505,,
0.355980371180423,0.202615692743305,0.00714867138843411,,
0.35984972304108,0.203447634900799,0.00720954093938886,,
0.363719074901737,0.204211857582304,0.00725219428088986,,
0.367588426762394,0.20515573275796,0.0072868966373516,,
0.371457778623051,0.205893336368584,0.00733869740318083,,
0.375327130483707,0.20663184943498,0.0073917114595563,,
0.379196482344364,0.207218378450152,0.00740836050205429,,
0.383065834205021,0.207948776372731,0.00741074214645998,,
0.386935186065678,0.208585080601917,0.00745950968592313,,
0.390804537926334,0.209143626362548,0.00750490697386841,,
0.394673889786991,0.209613500185354,0.00755491869784963,,
0.398543241647648,0.210050283809665,0.00757014380908183,,
0.402412593508305,0.210365655088339,0.00756465029910736,,
0.406281945368962,0.210663117084106,0.00762935912824991,,
0.410151297229618,0.21094854628042,0.00762780881255143,,
0.414020649090275,0.211190601432197,0.00766525230691473,,
0.417890000950932,0.211349266485442,0.00764024504065253,,
0.421759352811589,0.21150905086887,0.00767767730084357,,
0.425628704672245,0.211601115776308,0.00770812190622161,,
0.429498056532902,0.211740472383921,0.00772340037976882,,
0.433367408393559,0.211776850614824,0.00772881525054103,,
0.437236760254216,0.211615107403579,0.00773351113432241,,
0.441106112114873,0.211437693569791,0.00772713293332483,,
0.444975463975529,0.21132687988181,0.007729141041521,,
0.448844815836186,0.211153663536203,0.00777117931211979,,
0.452714167696843,0.210859279698436,0.00772509673969957,,
0.4565835195575,0.210524040309039,0.00774099590123489,,
0.460452871418156,0.210114085630018,0.00775253339559745,,
0.464322223278813,0.2096369711401,0.00773395207556282,,
0.46819157513947,0.209228135791261,0.00772905116814693,,
0.472060927000127,0.208945784752946,0.00771413499663787,,
0.475930278860784,0.20831868001869,0.00770798709616072,,
0.47979963072144,0.207754817439696,0.00770344568224024,,
0.483668982582097,0.206907519471273,0.00768576309594371,,
0.487538334442754,0.206279540260313,0.00768649612564865,,
0.491407686303411,0.20555669781646,0.00767002402135519,,
0.495277038164067,0.204748541425326,0.00764616544915198,,
0.499146390024724,0.203787071778377,0.00764414048969853,,
0.503015741885381,0.202917352227254,0.0076194056521004,,
0.506885093746038,0.202027484732861,0.00756650112889945,,
0.510754445606695,0.201005816109582,0.00757474981948913,,
0.514623797467351,0.200018287056842,0.00751689383510001,,
0.518493149328008,0.198901790179739,0.00750828845955764,,
0.522362501188665,0.197823280570674,0.00747200208488241,,
0.526231853049322,0.196643226726694,0.0074281438784638,,
0.530101204909978,0.195232870697846,0.00740675401549717,,
0.533970556770635,0.194027911757325,0.00738838614472526,,
0.537839908631292,0.192808681356989,0.00732929440144581,,
0.541709260491949,0.191455725979017,0.00728650344134119,,
0.545578612352606,0.189893980543103,0.00723791564862619,,
0.549447964213262,0.188555786331901,0.00720820126441035,,
0.553317316073919,0.187091667475266,0.00715052783531167,,
0.557186667934576,0.185384409115741,0.00711756677546749,,
0.561056019795233,0.183812344854715,0.00706498804324651,,
0.564925371655889,0.182260673390436,0.00703137540144194,,
0.568794723516546,0.180560690677092,0.00698394472841413,,
0.572664075377203,0.178860428131202,0.00689286929823085,,
0.57653342723786,0.177075341344986,0.0068570547587683,,
0.580402779098517,0.175345731360896,0.00681054528782221,,
0.584272130959173,0.173468334813764,0.00673692776050094,,
0.58814148281983,0.171640188794623,0.00667986940230447,,
0.592010834680487,0.16969339377623,0.00663185455234716,,
0.595880186541144,0.167738203781475,0.0065384985853032,,
0.5997495384018,0.165731524598365,0.006501886419648,,
0.603618890262457,0.163691825174897,0.00644127806318551,,
0.607488242123114,0.161725197024848,0.00636823628716554,,
0.611357593983771,0.159584722905966,0.00628680820195182,,
0.615226945844428,0.157389156754706,0.0062417507477015,,
0.619096297705084,0.155269705055798,0.00615504260177646,,
0.622965649565741,0.152902881386749,0.00607945628586037,,
0.626835001426398,0.150791544831657,0.00599783160264167,,
0.630704353287055,0.148385229794639,0.00591772072406282,,
0.634573705147711,0.146061255484106,0.00582033168936968,,
0.638443057008368,0.143689149975763,0.00575847914838867,,
0.642312408869025,0.141382420345841,0.00568836387410343,,
0.646181760729682,0.138989887061683,0.005620332538673,,
0.650051112590339,0.136435295754667,0.00553075967895778,,
0.653920464450995,0.133973049187636,0.00542394236564325,,
0.657789816311652,0.131422375536255,0.00535536055579833,,
0.661659168172309,0.128856870759969,0.00528459650809587,,
0.665528520032966,0.126271497872958,0.00519166743957777,,
0.669397871893622,0.123655028594339,0.00512155497383526,,
0.673267223754279,0.120995255229318,0.00501933524529941,,
0.677136575614936,0.118337685545593,0.00490034289837693,,
0.681005927475593,0.11554946904223,0.00482944684915632,,
0.684875279336249,0.1128392558609,0.00473161687322277,,
0.688744631196906,0.110112007873369,0.00462099398423588,,
0.692613983057563,0.107242360099293,0.00454473642655895,,
0.69648333491822,0.104517875458147,0.00443780958007034,,
0.700352686778877,0.101693245744814,0.00437396578215088,,
0.704222038639533,0.0988050940436733,0.00423752676653733,,
0.70809139050019,0.0958948005923775,0.00415172016289356,,
0.711960742360847,0.0929935317406711,0.00406705101913696,,
0.715830094221504,0.0900925077424418,0.00393928197555349,,
0.719699446082161,0.087166298815126,0.00386088711670585,,
0.723568797942817,0.0841317946927379,0.00375719571167377,,
0.727438149803474,0.0811860324663118,0.00363949810304254,,
0.731307501664131,0.0781249442521101,0.00353023454883461,,
0.735176853524788,0.0750081343823043,0.00341332333222422,,
0.739046205385444,0.0720586993537197,0.00330556234848478,,
0.742915557246101,0.0689523132462303,0.00320146651327091,,
0.746784909106758,0.0658455773480592,0.00311671592176932,,
0.750654260967415,0.0627732958320412,0.00298494751305078,,
0.754523612828071,0.0596584797691214,0.00288275306140173,,
0.758392964688728,0.0565458673874966,0.00276236767718485,,
0.762262316549385,0.0534134568532844,0.00268539394106071,,
0.766131668410042,0.050289965981457,0.00253560592089386,,
0.770001020270699,0.0470648958956471,0.00243703448962629,,
0.773870372131355,0.0439064259556439,0.00233859225133326,,
0.777739723992012,0.0407717068029321,0.00221912806919811,,
0.781609075852669,0.0375799367900255,0.0021231433059703,,
0.785478427713326,0.0343532576670794,0.00200396278667148,,
0.789347779573983,0.0312084295636648,0.00188807949677372,,
0.793217131434639,0.0279125968229352,0.00177380550197626,,
0.797086483295296,0.0246987550180097,0.00165823957742983,,
0.800955835155953,0.0214742096182224,0.00153224834152166,,
0.80482518701661,0.0182650899875006,0.00140153032785983,,
0.808694538877266,0.0150167938004219,0.00129164608566423,,
0.812563890737923,0.0117626211298897,0.00118951623050201,,
0.81643324259858,0.00850285180844931,0.00105317832243434,,
0.820302594459237,0.00527722205754854,0.000910807664149527,,
0.824171946319893,0.00203140938431033,0.000806296164582054,,
0.82804129818055,-0.00119810304315794,0.000688741791639913,,
0.831910650041207,-0.00440302518569863,0.000611315880103991,,
0.835780001901864,-0.00772400787644666,0.000454149817656013,,
0.839649353762521,-0.0110599616083739,0.000351663277541547,,
0.843518705623177,-0.0142705503599591,0.00022323141782632,,
0.847388057483834,-0.017491632831997,0.00010239666674039,,
0.851257409344491,-0.0207209004059881,-3.63116515615936E-05,,
0.855126761205148,-0.0239761924067019,-0.000138486443410635,,
0.858996113065804,-0.0271548102899744,-0.0002655786281478,,
0.862865464926461,-0.0304179376019596,-0.000326153282094843,,
0.866734816787118,-0.0336396496972247,-0.000489363328931347,,
0.870604168647775,-0.0368070742786809,-0.000606121479952204,,
0.874473520508432,-0.0399856921619534,-0.000723022866662149,,
0.878342872369088,-0.0431777420074053,-0.00084942976692437,,
0.882212224229745,-0.0464009232235338,-0.000948269414041913,,
0.886081576090402,-0.0495882159157139,-0.00107574215634632,,
0.889950927951059,-0.0526945670441351,-0.00121967436450099,,
0.893820279811715,-0.0558698269368627,-0.00132888174785029,,
0.897689631672372,-0.0589267176628834,-0.00142855272367548,,
0.901558983533029,-0.0620829489425233,-0.00152749066979574,,
0.905428335393686,-0.0651848927083544,-0.00166614141296773,,
0.909297687254343,-0.0683128609009083,-0.00176785841231863,,
0.913167039114999,-0.0713498835162051,-0.00192091136364336,,
0.917036390975656,-0.074384947303684,-0.00215969368368141,,
0.920905742836313,-0.077398743817712,-0.00216549051629178,,
0.92477509469697,-0.0804671076780944,-0.00222093115376021,,
0.928644446557626,-0.0834661430253522,-0.00233583426217487,,
0.932513798418283,-0.0864611208007016,-0.00243089922759232,,
0.93638315027894,-0.0893624246314763,-0.00257479632896018,,
0.940252502139597,-0.0922998268606083,-0.00269897886322035,,
0.944121854000254,-0.0951538389912093,-0.00278069622835586,,
0.94799120586091,-0.0981348251392884,-0.00291862938880882,,
0.951860557721567,-0.100931821388763,-0.00299208963772601,,
0.955729909582224,-0.103813886732041,-0.00311801346860374,,
0.959599261442881,-0.106620537204332,-0.00321771674267257,,
0.963468613303537,-0.109395356724582,-0.00335729009219765,,
0.967337965164194,-0.112070555858669,-0.00344124165323523,,
0.971207317024851,-0.114812075306016,-0.00356975215215272,,
0.975076668885508,-0.117547648311774,-0.00363743663253091,,
0.978946020746165,-0.120147712407418,-0.00376938197945398,,
0.982815372606821,-0.122874120897314,-0.00385984936009276,,
0.986684724467478,-0.125535818111084,-0.00396240751805133,,
0.990554076328135,-0.12816232638227,-0.0040590326290677,,
0.994423428188792,-0.13077148503564,-0.00415855615638883,,
0.998292780049448,-0.133239258295443,-0.00426311259264356,,
1.00216213191011,-0.135749636060285,-0.00436017583635717,,
1.00603148377076,-0.138237487305222,-0.00449200884156298,,
1.00990083563142,-0.140715964159887,-0.00461050548065822,,
1.01377018749208,-0.143113289576385,-0.00465761317124835,,
1.01763953935273,-0.145428554098942,-0.00476287595605029,,
1.02150889121339,-0.147874010713249,-0.00484976104017987,,
1.02537824307405,-0.14988929474713,-0.00494222950765755,,
1.0292475949347,-0.152415413092651,-0.00501691568556417,,
1.03311694679536,-0.15458376552887,-0.00513082878259485,,
1.03698629865602,-0.156952897816418,-0.00520285105753082,,
1.04085565051667,-0.159018131959654,-0.00530410324302677,,
1.04472500237733,-0.161069514391893,-0.00537250951893853,,
1.04859435423799,-0.163143913050991,-0.00544295900983283,,
1.05246370609864,-0.165196764604093,-0.005512801855454,,
1.0563330579593,-0.167199805964113,-0.00562185055612741,,
1.06020240981996,-0.169103506770513,-0.00572629605493624,,
1.06407176168061,-0.171250661891418,-0.00578387118503265,,
1.06794111354127,-0.173103363216418,-0.0058516918797431,,
1.07181046540193,-0.174841263239665,-0.00595524847471385,,
1.07567981726258,-0.176556286952325,-0.00602953864806732,,
1.07954916912324,-0.178410457398188,-0.00608889018156766,,
1.0834185209839,-0.180154653653707,-0.00616915833855058,,
1.08728787284455,-0.181940265125946,-0.00625818914947995,,
1.09115722470521,-0.183622898221475,-0.00629917140793657,,
1.09502657656587,-0.185275799109055,-0.00638196584928652,,
1.09889592842652,-0.186692381412039,-0.00646402164384519,,
1.10276528028718,-0.188141004541472,-0.00649963537248821,,
1.10663463214784,-0.189576545499408,-0.00658162235774507,,
1.11050398400849,-0.191038460674748,-0.00662403135601108,,
1.11437333586915,-0.192467075777184,-0.0066940525441086,,
1.11824268772981,-0.193722124743332,-0.00678520520922232,,
1.12211203959047,-0.195047691510923,-0.00679995708097048,,
1.12598139145112,-0.19616891056223,-0.00686611652253655,,
1.12985074331178,-0.197566953959081,-0.0069247687288474,,
1.13372009517244,-0.198551684686367,-0.00697098611132851,,
1.13758944703309,-0.199606373550004,-0.00703169557533601,,
1.14145879889375,-0.200750328995626,-0.00708781026310801,,
1.14532815075441,-0.201819009486533,-0.00713503872104448,,
1.14919750261506,-0.202734621575103,-0.00715795643136552,,
1.15306685447572,-0.203638200864221,-0.00722346429097209,,
1.15693620633638,-0.204554652450427,-0.00727813960049151,,
1.16080555819703,-0.205299496728163,-0.00730158531688385,,
1.16467491005769,-0.206086665678391,-0.00732701948167147,,
1.16854426191835,-0.206767778093911,-0.00738144904368454,,
1.172413613779,-0.207453087997611,-0.00743533936545449,,
1.17628296563966,-0.2081025793355,-0.0074334070879174,,
1.18015231750032,-0.208738918543754,-0.00747938855279262,,
1.18402166936097,-0.209243736455668,-0.00748753332729368,,
1.18789102122163,-0.209671040752503,-0.00753097446508733,,
1.19176037308229,-0.210012786248581,-0.00757632822061671,,
1.19562972494294,-0.210499624919452,-0.00758256318592476,,
1.1994990768036,-0.210807020970581,-0.00761118925975435,,
1.20336842866426,-0.211141630736751,-0.00762507329173623,,
1.20723778052491,-0.211377039865574,-0.00764612612955107,,
1.21110713238557,-0.211573692186858,-0.00767442641240068,,
1.21497648424623,-0.211593350423173,-0.00766337058315036,,
1.21884583610688,-0.211735785188785,-0.00771184743841991,,
1.22271518796754,-0.211678349558841,-0.0077208221373577,,
1.2265845398282,-0.211489812381373,-0.0077244620089969,,
1.23045389168886,-0.211605033431944,-0.00770964413649056,,
1.23432324354951,-0.211475191130875,-0.00773705551550208,,
1.23819259541017,-0.211277139646864,-0.00775674901853796,,
1.24206194727083,-0.211061668586901,-0.00773820140101789,,
1.24593129913148,-0.210648775666154,-0.00775107576181622,,
1.24980065099214,-0.210512847007222,-0.00773577481992538,,
1.2536700028528,-0.210119402448381,-0.00773214618245754,,
1.25753935471345,-0.209782973770666,-0.00773270789104386,,
1.26140870657411,-0.209370010891782,-0.0077378306733511,,
1.26527805843477,-0.208606627707913,-0.00773192149902302,,
1.26914741029542,-0.208180442741259,-0.00771228416684577,,
1.27301676215608,-0.207401109102302,-0.00770744223883213,,
1.27688611401674,-0.206921755952021,-0.00770966800910511,,
1.28075546587739,-0.206064628865441,-0.0076773809995645,,
1.28462481773805,-0.205371973357423,-0.00765475397343662,,
1.28849416959871,-0.204534224674612,-0.00768822057100849,,
1.29236352145936,-0.203670661439488,-0.00762846741586909,,
1.29623287332002,-0.202829204975451,-0.00761249242367468,,
1.30010222518068,-0.201852309559437,-0.00759514686252949,,
1.30397157704133,-0.200789505551983,-0.00753489659529105,,
1.30784092890199,-0.199569155821465,-0.00752927810515658,,
