Time domain (s),Current (AC) (A),Potential (AC) (V),Frequency (Hz),Column 5
0,0.172062215294155,0.00626222927471565,0.25119,0.2
0.00971936084239022,0.173234396218451,0.00630874343195931,,
0.0194387216847804,0.17443213559813,0.00638282645961752,,
0.0291580825271707,0.175496820665966,0.00642466567297317,,
0.0388774433695609,0.176575068002405,0.00643404369225076,,
0.0485968042119511,0.177623434497625,0.00653082116852222,,
0.0583161650543413,0.178521488459292,0.00654438310913497,,
0.0680355258967316,0.179560865644838,0.00662592354181424,,
0.0777548867391218,0.180350421457676,0.00664872795902038,,
0.087474247581512,0.181131708358479,0.00667416650762975,,
0.0971936084239022,0.181956594977287,0.00672650132805241,,
0.106912969266292,0.182678997201474,0.00675552280685165,,
0.116632330108683,0.183476821926348,0.00680534113669085,,
0.126351690951073,0.184113246258349,0.00682643464718957,,
0.136071051793463,0.184935157321689,0.00684634151985231,,
0.145790412635853,0.18528198180263,0.00687754191122991,,
0.155509773478244,0.185889872123781,0.00692313540118761,,
0.165229134320634,0.186456386563118,0.00697110983904459,,
0.174948495163024,0.18687484362673,0.00699199875681256,,
0.184667856005414,0.18728731825777,0.00698625225849892,,
0.194387216847804,0.187494041058656,0.0070289405316859,,
0.204106577690195,0.187953811360809,0.00704071484331692,,
0.213825938532585,0.188125955075001,0.00701551669116585,,
0.223545299374975,0.188385047652111,0.00709692413857033,,
0.233264660217365,0.18863762532883,0.00711172898001999,,
0.242984021059756,0.188710542098597,0.00709174794249279,,
0.252703381902146,0.188849610164648,0.00709210853717979,,
0.262422742744536,0.188887947847721,0.00713620594279663,,
0.272142103586926,0.18891175229146,0.00712388178820245,,
0.281861464429316,0.188886193836077,0.0071632684462033,,
0.291580825271707,0.188811773627758,0.0071261936860556,,
0.301300186114097,0.18858450383333,0.00715103380092863,,
0.311019546956487,0.188538147811313,0.00716353185934349,,
0.320738907798877,0.188339192776278,0.00714513641547621,,
0.330458268641268,0.187974358354351,0.00717402746641049,,
0.340177629483658,0.187749594290842,0.00715974689383225,,
0.349896990326048,0.187498520052675,0.00713430578781349,,
0.359616351168438,0.186938489192093,0.00715174731807577,,
0.369335712010828,0.18657290305089,0.00715431495684138,,
0.379055072853219,0.186119365754401,0.0071195444223191,,
0.388774433695609,0.185658812411336,0.00713698595258139,,
0.398493794537999,0.185170226203606,0.00711226092111916,,
0.408213155380389,0.184382142507683,0.00712593538773332,,
0.41793251622278,0.183712078738084,0.00708275864940333,,
0.42765187706517,0.183106944720945,0.00707634466730678,,
0.43737123790756,0.182441955056459,0.00704764030723926,,
0.44709059874995,0.181525358685985,0.00703166161499924,,
0.45680995959234,0.180730290265123,0.00698154406829188,,
0.466529320434731,0.179795151485842,0.00696834783718492,,
0.476248681277121,0.178841971443939,0.00695615666786509,,
0.485968042119511,0.177949179517203,0.00691433791378282,,
0.495687402961901,0.176955939102219,0.0068993208073751,,
0.505406763804292,0.175860652795525,0.00685731791983546,,
0.515126124646682,0.174954329921822,0.00683374883729959,,
0.524845485489072,0.173671395690869,0.00678637539058791,,
0.534564846331462,0.172763569378615,0.00675913386854221,,
0.544284207173852,0.171308992579654,0.00672345289637022,,
0.554003568016243,0.170116765807999,0.00667930178516141,,
0.563722928858633,0.168941859901327,0.00666032836683117,,
0.573442289701023,0.167674179307348,0.00658960065995062,,
0.583161650543413,0.166182768263865,0.00654609145843343,,
0.592881011385804,0.164810128865983,0.00651451257050484,,
0.602600372228194,0.163444254941583,0.00648987193354378,,
0.612319733070584,0.161924027992522,0.00642545335498523,,
0.622039093912974,0.160348674963225,0.00638279577070833,,
0.631758454755364,0.15892642209313,0.00632257390053104,,
0.641477815597755,0.157254097277235,0.00628920482621131,,
0.651197176440145,0.15568525914833,0.00623327940337148,,
0.660916537282535,0.154070064997407,0.00615851099006681,,
0.670635898124925,0.152294535389252,0.00610748556311869,,
0.680355258967316,0.150517658950728,0.00604855262714254,,
0.690074619809706,0.148813292100696,0.0059604038492731,,
0.699793980652096,0.147007912972958,0.00592828534801804,,
0.709513341494486,0.145165950173791,0.00584874736668706,,
0.719232702336876,0.14332849769028,0.00580653988641666,,
0.728952063179267,0.14143316282252,0.00572844428383457,,
0.738671424021657,0.139539581966405,0.00566036605281184,,
0.748390784864047,0.137491679407264,0.00561029453946915,,
0.758110145706437,0.135453486555438,0.00555178101859033,,
0.767829506548828,0.133401042359005,0.00547393348469383,,
0.777548867391218,0.131437551610227,0.00537186217152419,,
0.787268228233608,0.129420438219763,0.00532756784540434,,
0.796987589075998,0.127226169653268,0.00527940671668103,,
0.806706949918388,0.124983791053112,0.00518078534842692,,
0.816426310760779,0.122833873923898,0.00509745984417576,,
0.826145671603169,0.12053812325515,0.00501905223767984,,
0.835865032445559,0.118323307695112,0.00494891784971729,,
0.845584393287949,0.116019789260512,0.00485346511137452,,
0.85530375413034,0.113821010378362,0.00478591882145096,,
0.86502311497273,0.111391203105402,0.0047092681550267,,
0.87474247581512,0.109070144554364,0.00461498415265638,,
0.88446183665751,0.106723026401759,0.00453194763563625,,
0.8941811974999,0.104279970076561,0.00445379321264427,,
0.903900558342291,0.101938333210344,0.00438244917016384,,
0.913619919184681,0.0994478872491247,0.00428011188644462,,
0.923339280027071,0.0969160967277284,0.00417164960786121,,
0.933058640869461,0.0944406538303918,0.00407951127174977,,
0.942778001711851,0.0919647724301443,0.00400354854838181,,
0.952497362554242,0.089418949815597,0.00390795259512799,,
0.962216723396632,0.0868107345011459,0.0038101035644309,,
0.971936084239022,0.0842032709059708,0.00374297668960466,,
0.981655445081412,0.0815983130417155,0.00363559619508269,,
0.991374805923803,0.0790512688833448,0.00354116642039148,,
1.00109416676619,0.0763275080518531,0.00343246630275873,,
1.01081352760858,0.0736589046222341,0.00333517222984314,,
1.02053288845097,0.0710318963258843,0.00324925607014359,,
1.03025224929336,0.068294635869062,0.00316086945322525,,
1.03997161013575,0.0655804281367022,0.00303447206441732,,
1.04969097097814,0.0628835099476891,0.00296206669714838,,
1.05941033182053,0.0600593006279487,0.00287651368954522,,
1.06912969266292,0.0573450928955888,0.00274210905275352,,
1.07884905350531,0.0545650157616739,0.00264699644982525,,
1.0885684143477,0.051770342745151,0.00254009419081047,,
1.0982877751901,0.0489897331434156,0.00243139151576877,,
1.10800713603249,0.046198599471817,0.00236253838978007,,
1.11772649687488,0.0434267286066645,0.0022444065472782,,
1.12744585771727,0.0405519661656165,0.00211405028913836,,
1.13716521855966,0.0377485230908742,0.0020228735388601,,
1.14688457940205,0.0348593840186737,0.00190259347268995,,
1.15660394024444,0.0320154107463031,0.00181438587441063,,
1.16632330108683,0.0291772006550482,0.00169982161764448,,
1.17604266192922,0.0263211372309894,0.00157671817179539,,
1.18576202277161,0.0234553640996163,0.00148840571974151,,
1.195481383614,0.020615869821265,0.00138267219669919,,
1.20520074445639,0.0176984159896704,0.00129077937186439,,
1.21492010529878,0.0147915175495756,0.00116715677196222,,
1.22463946614117,0.0119209522078183,0.00105555910978605,,
1.23435882698356,0.00904788113514121,0.000918277387723876,,
1.24407818782595,0.00610443034525339,0.000843611270784361,,
1.25379754866834,0.00320749218556491,0.000743473358916447,,
1.26351690951073,0.000309645698417994,0.000606692889044247,,
1.27323627035312,-0.00261297620319874,0.000516232213321643,,
1.28295563119551,-0.0055234453098543,0.000392351315097628,,
1.2926749920379,-0.00842984260376514,0.00027900694248606,,
1.30239435288029,-0.0113320427983853,0.000196566301793322,,
1.31211371372268,-0.0142363728642872,7.53451090633739E-05,,
1.32183307456507,-0.0171399512109133,-3.77230633619163E-05,,
1.33155243540746,-0.019989531056217,-0.000148582913004347,,
1.34127179624985,-0.0228825853329797,-0.000247860256699983,,
1.35099115709224,-0.0257252117749809,-0.000377325257758354,,
1.36071051793463,-0.0286335510103546,-0.000486016424459113,,
1.37042987877702,-0.031516895579803,-0.000591247416607654,,
1.38014923961941,-0.0343934746757678,-0.000676368222067847,,
1.3898686004618,-0.0372569613276766,-0.000771658564930888,,
1.39958796130419,-0.0400902539220014,-0.000909349472453691,,
1.40930732214658,-0.0428711140968287,-0.00103666624984333,,
1.41902668298897,-0.0456985808667649,-0.0011398449211657,,
1.42874604383136,-0.048468916971729,-0.00125759698841144,,
1.43846540467375,-0.051298075110036,-0.00135666973937676,,
1.44818476551614,-0.0540606434491486,-0.00145956070217235,,
1.45790412635853,-0.0568891125114528,-0.00158547729806324,,
1.46762348720092,-0.0596484860436426,-0.00168298619334628,,
1.47734284804331,-0.0623602506883556,-0.00176277735818076,,
1.4870622088857,-0.0650756486429024,-0.00188724134568652,,
1.49678156972809,-0.0678457341747745,-0.00198520929590806,,
1.50650093057048,-0.0705386431943158,-0.00211499397310755,,
1.51622029141287,-0.0732119448694094,-0.00222538198076538,,
1.52593965225526,-0.0758786063575655,-0.00228886582628718,,
1.53565901309766,-0.0785326765478495,-0.00243654213775502,,
1.54537837394005,-0.0811378849851968,-0.0025204967646526,,
1.55509773478244,-0.083729311902485,-0.00259213490918286,,
1.56481709562483,-0.0863658419763301,-0.0026818168538254,,
1.57453645646722,-0.0888703200307002,-0.00281739150529337,,
1.58425581730961,-0.0913783687516311,-0.00290904904848821,,
1.593975178152,-0.0938810301510843,-0.00300527923920635,,
1.60369453899439,-0.096436123970035,-0.00311637437048873,,
1.61341389983678,-0.098941604316773,-0.00321951851678781,,
1.62313326067917,-0.101439567470752,-0.00329114643168182,,
1.63285262152156,-0.103862609270227,-0.00340076593789629,,
1.64257198236395,-0.106243241573885,-0.00352087465765516,,
1.65229134320634,-0.108606521690922,-0.00361373801925424,,
1.66201070404873,-0.110973873620705,-0.00368838367692081,,
1.67173006489112,-0.113244817553347,-0.00378643474293927,,
1.68144942573351,-0.115575147308789,-0.00389435740819666,,
1.6911687865759,-0.117876661158652,-0.00397184690481467,,
1.70088814741829,-0.12017992902016,-0.00409473552829676,,
1.71060750826068,-0.122413725491916,-0.00417885510808302,,
1.72032686910307,-0.124609372210417,-0.00424784249805121,,
1.73004622994546,-0.126760291631999,-0.00434067517074066,,
1.73976559078785,-0.128887594539662,-0.00441552542113799,,
1.74948495163024,-0.130967664419485,-0.00452578172222573,,
1.75920431247263,-0.133053309550606,-0.00460121506190392,,
1.76892367331502,-0.135015547433925,-0.0046823769980322,,
1.77864303415741,-0.137121927488407,-0.00473804667995914,,
1.7883623949998,-0.139082599289901,-0.00485296641659438,,
1.79808175584219,-0.140989523163165,-0.00491246198257889,,
1.80780111668458,-0.142918685398342,-0.00499667235038936,,
1.81752047752697,-0.144809760523537,-0.00510558729038868,,
1.82723983836936,-0.146647714153233,-0.00513349501751259,,
1.83695919921175,-0.148404482101126,-0.00521557634222258,,
1.84667856005414,-0.15022088644491,-0.00531314661532445,,
1.85639792089653,-0.15196713032294,-0.00536828435615266,,
1.86611728173892,-0.153626174764959,-0.00545593188183258,,
1.87583664258131,-0.155409941963513,-0.00550328614797557,,
1.8855560034237,-0.156900663930993,-0.00557721445238135,,
1.89527536426609,-0.158462235440231,-0.00564655092869559,,
1.90499472510848,-0.160135813121586,-0.00572828572446848,,
1.91471408595087,-0.161655288351371,-0.00578921343956562,,
1.92443344679326,-0.163189797966675,-0.00584867831664049,,
1.93415280763565,-0.164513074465437,-0.00594295464678396,,
1.94387216847804,-0.16603104625667,-0.00596308657144995,,
1.95359152932043,-0.167308154663234,-0.00604037019663339,,
1.96331089016282,-0.168747509146857,-0.0060942407412381,,
1.97303025100521,-0.169961786350607,-0.00613341001946255,,
1.98274961184761,-0.171207385190855,-0.00620563125327456,,
1.99246897269,-0.172559540238468,-0.00625878444461847,,
2.00218833353239,-0.173602112230936,-0.00631894493697649,,
2.01190769437478,-0.174774355798506,-0.00635301985621561,,
2.02162705521717,-0.175681117175119,-0.00642080014907442,,
2.03134641605956,-0.176838263713897,-0.00647145858781251,,
2.04106577690195,-0.177961081739072,-0.00651858652324755,,
2.05078513774434,-0.178818605503111,-0.00656422093175157,,
2.06050449858673,-0.179785253848709,-0.00659843906590174,,
2.07022385942912,-0.180665767693937,-0.00666548410363577,,
2.07994322027151,-0.18132703008368,-0.00668590117942003,,
2.0896625811139,-0.182363901538306,-0.00674201201442193,,
2.09938194195629,-0.182848008752017,-0.00676420137473244,,
2.10910130279868,-0.183695948095287,-0.00680312386297599,,
2.11882066364107,-0.184331401456556,-0.00684352197628746,,
2.12854002448346,-0.185001684477611,-0.00686811274377019,,
2.13825938532585,-0.185596732927797,-0.00686067579802208,,
2.14797874616824,-0.185988942460024,-0.00691878013344027,,
2.15769810701063,-0.18663792676826,-0.00696953958983926,,
2.16741746785302,-0.187053878100952,-0.00700204809598626,,
2.17713682869541,-0.187420153318158,-0.00701250278450694,,
2.1868561895378,-0.187682503345464,-0.00704416478823289,,
2.19657555038019,-0.187913093233361,-0.00707230523958735,,
2.20629491122258,-0.188340821501376,-0.00706456268344802,,
2.21601427206497,-0.18866481250931,-0.00709058560004339,,
2.22573363290736,-0.188759779711172,-0.00711477996911158,,
2.23545299374975,-0.188863266398161,-0.00711949583154592,,
2.24517235459214,-0.188977590371378,-0.00709734866848599,,
2.25489171543453,-0.189058212263724,-0.0071541333807934,,
2.26461107627692,-0.189141966319719,-0.00713561773869698,,
2.27433043711931,-0.188914195379106,-0.00715395947697273,,
2.2840497979617,-0.188944013577052,-0.00717437783146124,,
2.29376915880409,-0.188616890405469,-0.00719266842155397,,
2.30348851964648,-0.188534263928387,-0.00716872084246711,,
2.31320788048887,-0.188450008726208,-0.00718109870265282,,
2.32292724133126,-0.188106786233464,-0.00716216364545952,,
2.33264660217365,-0.187702361263004,-0.007161283896719,,
2.34236596301604,-0.187374361085598,-0.00714375029972825,,
2.35208532385843,-0.186976388372256,-0.00715364235824056,,
2.36180468470082,-0.186583051261116,-0.00716014840706558,,
2.37152404554321,-0.186153067835273,-0.00715602586354924,,
2.3812434063856,-0.185629307429755,-0.00712681130036019,,
2.39096276722799,-0.185018911377685,-0.00713652817634713,,
2.40068212807038,-0.184190579378862,-0.00713006304606845,,
2.41040148891277,-0.183610753244013,-0.0070738409637694,,
2.42012084975517,-0.18303543742482,-0.00706398982380296,,
2.42984021059756,-0.182082507956009,-0.00706501150875027,,
2.43955957143995,-0.181416484677518,-0.00702257002554463,,
2.44927893228234,-0.180422461221622,-0.00702068777242548,,
2.45899829312473,-0.179664227045281,-0.00699531827386268,,
2.46871765396712,-0.178838839280289,-0.00697001015311871,,
2.47843701480951,-0.177848574420772,-0.0069347179071344,,
2.4881563756519,-0.17678689623004,-0.00692133754256963,,
2.49787573649429,-0.175714192823261,-0.00685195119677751,,
2.50759509733668,-0.174703380970201,-0.00682333762473419,,
2.51731445817907,-0.173716686777245,-0.00681473577912772,,
2.52703381902146,-0.172385266652994,-0.00677049132248575,,
2.53675317986385,-0.171358418122047,-0.00672889762040674,,
2.54647254070624,-0.169980266116141,-0.00669014775727916,,
2.55619190154863,-0.168655987325011,-0.00664688662444757,,
2.56591126239102,-0.167367101983123,-0.00661504176596939,,
2.57563062323341,-0.166114236523208,-0.00657980066816721,,
2.5853499840758,-0.164638361011428,-0.00651495500228405,,
2.59506934491819,-0.163184786504835,-0.00644896361711123,,
2.60478870576058,-0.161657606152471,-0.00644541521194419,,
2.61450806660297,-0.160170141635187,-0.00639925653456919,,
2.62422742744536,-0.158503329427316,-0.00633963949165084,,
2.63394678828775,-0.15698109789352,-0.0062452710947789,,
2.64366614913014,-0.155394719648175,-0.00623901055723053,,
2.65338550997253,-0.153764240538642,-0.00616770999070493,,
2.66310487081492,-0.151873165413446,-0.00611863970303617,,
2.67282423165731,-0.150292800922309,-0.00605543845122325,,
2.6825435924997,-0.148330813612083,-0.00597962789369832,,
2.69226295334209,-0.146769492675936,-0.00592496071615001,,
2.70198231418448,-0.144897962251915,-0.00588537202282824,,
2.71170167502687,-0.142954579993768,-0.00581957627945329,,
2.72142103586926,-0.141035190109178,-0.00573787984481733,,
2.73114039671165,-0.13901525777143,-0.00565955279670893,,
2.74085975755404,-0.137062479022334,-0.00559985263799412,,
2.75057911839643,-0.135116340460175,-0.00553108902132493,,
2.76029847923882,-0.133074169760514,-0.00545907238024324,,
2.77001784008121,-0.130938785870634,-0.0054280574010277,,
2.7797372009236,-0.128911962772857,-0.00533411737018463,,
2.78945656176599,-0.126780024262992,-0.00528191553503721,,
2.79917592260838,-0.124571473030254,-0.00516880772276984,,
2.80889528345077,-0.122415730076652,-0.00508597579848047,,
2.81861464429316,-0.120231735006928,-0.00501959568711996,,
2.82833400513555,-0.117908734514426,-0.00493437386399886,,
2.83805336597794,-0.115760821969948,-0.00486983508721117,,
2.84777272682034,-0.113334272147185,-0.00477393352356659,,
2.85749208766273,-0.111071095980394,-0.00469772145280833,,
2.86721144850512,-0.10866941553701,-0.00462298372841286,,
2.87693080934751,-0.106199453926061,-0.00454016459116913,,
2.8866501701899,-0.103832540499189,-0.00445616904572566,,
2.89636953103229,-0.101423530792865,-0.00435161193088263,,
2.90608889187468,-0.098999987847205,-0.00426841429708746,,
2.91580825271707,-0.0965303394526206,-0.00418209662415459,,
2.92552761355946,-0.0940454687426981,-0.00408010586937246,,
2.93524697440185,-0.0914475269250184,-0.00401254039888066,,
2.94496633524424,-0.0889442390928352,-0.0038879536557368,,
2.95468569608663,-0.0863320146089124,-0.00381064829257571,,
2.96440505692902,-0.0837789253746976,-0.00370593773318451,,
2.97412441777141,-0.0811544228092676,-0.00361019856501921,,
2.9838437786138,-0.0785224656943512,-0.00352082223076788,,
2.99356313945619,-0.0758821143808533,-0.00343291896417508,,
3.00328250029858,-0.0732277936174774,-0.00334447352684641,,
3.01300186114097,-0.0705483529016301,-0.00324415148152157,,
3.02272122198336,-0.067837715835831,-0.00315018204047357,,
3.03244058282575,-0.0651871536688348,-0.00303386084363577,,
3.04215994366814,-0.0623579955305278,-0.00293901037514299,,
3.05187930451053,-0.0596640842186185,-0.0028343829315487,,
3.06159866535292,-0.0569275128377992,-0.00274116153267112,,
3.07131802619531,-0.0541180873304857,-0.00263568247183699,,
3.0810373870377,-0.0513204387584955,-0.00251734603660525,,
3.09075674788009,-0.0485358199872884,-0.00242992356292859,,
3.10047610872248,-0.0457487581284345,-0.00232333075041824,,
3.11019546956487,-0.0429056931835224,-0.00222035922923558,,
3.11991483040726,-0.0400463409876313,-0.00212237081974109,,
3.12963419124965,-0.0371670682309277,-0.00204204515639805,,
3.13935355209204,-0.0343240659292885,-0.00189666284091894,,
3.14907291293443,-0.0315098795332274,-0.00180222411529618,,
3.15879227377682,-0.0286200827066605,-0.00170110160091363,,
3.16851163461921,-0.0257655540427901,-0.00158291988893389,,
3.1782309954616,-0.0228999375195995,-0.00146858324158039,,
3.18795035630399,-0.0200115814883115,-0.00135101402908733,,
3.19766971714638,-0.0171132025333441,-0.0012712330938891,,
3.20738907798877,-0.0142712025240729,-0.00114648267656081,,
3.21710843883116,-0.0113099297230178,-0.000997089064862511,,
3.22682779967355,-0.00849248587676089,-0.000920336102073094,,
3.23654716051594,-0.0055602795543758,-0.000814715105032171,,
3.24626652135833,-0.00259925732641267,-0.000691467165567339,,
3.25598588220072,0.000254770191273717,-0.000602910480941965,,
3.26570524304311,0.00316063501736409,-0.000495755038423251,,
3.2754246038855,0.00609011635737386,-0.000397347213831889,,
3.2851439647279,0.00897693762847352,-0.000256289477190474,,
