Time domain (s),Current (AC) (A),Potential (AC) (V),Frequency (Hz),Column 5
0,0.402262210845947,0.0147869637269067,0.50119,0.45
0.0048712189987829,0.40357780456543,0.0148540147196843,,
0.00974243799756579,0.404385089874268,0.0148880588654605,,
0.0146136569963487,0.405185222625732,0.0149700677065656,,
0.0194848759951316,0.40599536895752,0.0150056885464789,,
0.0243560949939145,0.406704902648926,0.0150743577253447,,
0.0292273139926974,0.407209396362305,0.015089517846933,,
0.0340985329914803,0.407654285430908,0.0151256002848008,,
0.0389697519902632,0.40819925069809,0.0151714488906296,,
0.0438409709890461,0.408547401428223,0.015221176993875,,
0.048712189987829,0.408821582794189,0.0152540334325542,,
0.0535834089866119,0.408900201320648,0.0152903855681035,,
0.0584546279853947,0.408768177032471,0.0152921904679713,,
0.0633258469841776,0.408887386322021,0.0153181384968129,,
0.0681970659829605,0.408584117889404,0.0153187245706206,,
0.0730682849817434,0.408358097076416,0.0153279150377617,,
0.0779395039805263,0.407871723175049,0.0152898254267653,,
0.0828107229793092,0.407552719116211,0.0152303830204978,,
0.0876819419780921,0.406872749328613,0.0153290508799198,,
0.092553160976875,0.406343460083008,0.0153535363174897,,
0.0974243799756579,0.405771732330322,0.0153086212805578,,
0.102295598974441,0.404738903045654,0.0153062354933766,,
0.107166817973224,0.403814792633057,0.0152928958311378,,
0.112038036972007,0.40286922454834,0.0152808164869098,,
0.116909255970789,0.401752531528473,0.0152531672880776,,
0.121780474969572,0.400450229644775,0.0152473791609165,,
0.126651693968355,0.399116516113281,0.0152402010533974,,
0.131522912967138,0.397748947143555,0.015162963786655,,
0.136394131965921,0.396123886108398,0.0151482082115888,,
0.141265350964704,0.394921243190765,0.0151024477761559,,
0.146136569963487,0.392915725708008,0.0150491513651265,,
0.15100778896227,0.391313552856445,0.0150003153388272,,
0.155879007961053,0.389514923095703,0.0149716651466782,,
0.160750226959836,0.387436389923096,0.0149414382603918,,
0.165621445958618,0.385442733764648,0.0148446167927885,,
0.170492664957401,0.383382856845856,0.0147934987091856,,
0.175363883956184,0.380879402160645,0.0147400363303523,,
0.180235102954967,0.378668785095215,0.0146638778543351,,
0.18510632195375,0.376210689544678,0.0145924546472229,,
0.189977540952533,0.373780250549316,0.0145335308903425,,
0.194848759951316,0.371235430240631,0.0144461747740556,,
0.199719978950099,0.368604719638824,0.0143902643701148,,
0.204591197948882,0.365911483764648,0.0142948328828689,,
0.209462416947665,0.362942159175873,0.0142079798564878,,
0.214333635946447,0.360013008117676,0.0141208882513881,,
0.21920485494523,0.357074797153473,0.0140158358180096,,
0.224076073944013,0.353833198547363,0.0139088488224171,,
0.228947292942796,0.350754261016846,0.0138010734797556,,
0.233818511941579,0.347472608089447,0.0136901603083017,,
0.238689730940362,0.344047069549561,0.0136157911726702,,
0.243560949939145,0.340662002563477,0.0134800139495939,,
0.248432168937928,0.337132930755615,0.0133772746924823,,
0.253303387936711,0.33372163772583,0.0132631095893707,,
0.258174606935493,0.329956531524658,0.0131225348594626,,
0.263045825934276,0.326130449771881,0.0130239707299182,,
0.267917044933059,0.322257578372955,0.0128773381751675,,
0.272788263931842,0.318500995635986,0.0127696043244572,,
0.277659482930625,0.314608573913574,0.0126229665832125,,
0.282530701929408,0.310501098632813,0.0124588296116435,,
0.287401920928191,0.30626779794693,0.0123392290629538,,
0.292273139926974,0.30229663848877,0.0122334453339397,,
0.297144358925757,0.297935485839844,0.012090422578924,,
0.30201557792454,0.293551921844482,0.0119464455090355,,
0.306886796923322,0.289198398590088,0.0117618944975866,,
0.311758015922105,0.284847676753998,0.0116093856452788,,
0.316629234920888,0.280247211456299,0.0114658649868513,,
0.321500453919671,0.275506973266602,0.0112881342148436,,
0.326371672918454,0.270901620388031,0.0111611480988802,,
0.331242891917237,0.266180992126465,0.0109788065338203,,
0.33611411091602,0.261473655700684,0.010820125753805,,
0.340985329914803,0.25670999288559,0.0106772067286665,,
0.345856548913586,0.251607894897461,0.0105100564041583,,
0.350727767912368,0.246679306030273,0.0103130941128731,,
0.355598986911151,0.241608560085297,0.0101478524181093,,
0.360470205909934,0.236519813537598,0.00997285492837241,,
0.365341424908717,0.23128467798233,0.00980295057561786,,
0.3702126439075,0.226260125637054,0.00961441115038086,,
0.375083862906283,0.220899105072021,0.00940469008417066,,
0.379955081905066,0.215507566928864,0.00924812020716104,,
0.384826300903849,0.21020644903183,0.0090454164671594,,
0.389697519902632,0.20483922958374,0.00887608262873085,,
0.394568738901415,0.199415683746338,0.00866859694137911,,
0.399439957900197,0.193910539150238,0.00845119986423848,,
0.40431117689898,0.188275814056396,0.00824196114195797,,
0.409182395897763,0.182785093784332,0.0080637117205633,,
0.414053614896546,0.177038669586182,0.0078615421894308,,
0.418924833895329,0.171329021453857,0.00766588689460113,,
0.423796052894112,0.165709972381592,0.00746832297002697,,
0.428667271892895,0.159922122955322,0.00726872593985473,,
0.433538490891678,0.154184818267822,0.0070618418857924,,
0.438409709890461,0.148327350616455,0.00684042527590067,,
0.443280928889244,0.142374992370605,0.00660570530922699,,
0.448152147888026,0.136561393737793,0.00642293326517596,,
0.453023366886809,0.130515098571777,0.00622159357306273,,
0.457894585885592,0.12460470199585,0.00599125100721709,,
0.462765804884375,0.118555545806885,0.00575402077750953,,
0.467637023883158,0.112552642822266,0.00556483822703235,,
0.472508242881941,0.106498777866364,0.00532605204916292,,
0.477379461880724,0.100475788116455,0.00512799022117694,,
0.482250680879507,0.0942549705505371,0.00489661035655686,,
0.48712189987829,0.0882077217102051,0.00466167774363457,,
0.491993118877072,0.0819864273071289,0.0044059680362607,,
0.496864337875855,0.0758371353149414,0.00419303134384963,,
0.501735556874638,0.0697169303894043,0.00398295759605594,,
0.506606775873421,0.0634932518005371,0.00374467450809224,,
0.511477994872204,0.0573588013648987,0.00352167601756914,,
0.516349213870987,0.0510649681091309,0.00330107887370934,,
0.52122043286977,0.0448732376098633,0.0030821880863332,,
0.526091651868553,0.0385580062866211,0.00284066343969913,,
0.530962870867336,0.0323710441589355,0.00260623391668258,,
0.535834089866119,0.0261088013648987,0.00239124337269825,,
0.540705308864901,0.0197577476501465,0.00214860362988167,,
0.545576527863684,0.0134615898132324,0.00193702579886512,,
0.550447746862467,0.00714486837387085,0.00168687601292206,,
0.55531896586125,0.000902652740478516,0.0014282981744369,,
0.560190184860033,-0.00535249710083008,0.00122409553770675,,
0.565061403858816,-0.0117001533508301,0.00098815674497299,,
0.569932622857599,-0.0179926156997681,0.000729366260239228,,
0.574803841856382,-0.0242725610733032,0.000515578982833276,,
0.579675060855165,-0.0305056571960449,0.000271461089263347,,
0.584546279853947,-0.0368280410766602,1.86713779393166E-05,,
0.58941749885273,-0.0430793762207031,-0.000189472994133855,,
0.594288717851513,-0.0493741035461426,-0.00044765665908475,,
0.599159936850296,-0.0555539131164551,-0.000652481675079919,,
0.604031155849079,-0.0618128776550293,-0.000900582795943627,,
0.608902374847862,-0.0679564476013184,-0.00112011930180689,,
0.613773593846645,-0.0741453170776367,-0.00138209688702506,,
0.618644812845428,-0.0803232192993164,-0.00160982545995925,,
0.623516031844211,-0.0864901542663574,-0.00184836268612276,,
0.628387250842994,-0.092562198638916,-0.00206976373653278,,
0.633258469841776,-0.0987386703491211,-0.00233974926828928,,
0.638129688840559,-0.104780673980713,-0.00254613541894022,,
0.643000907839342,-0.110890984535217,-0.00279545795911051,,
0.647872126838125,-0.116891860961914,-0.00302163058388327,,
0.652743345836908,-0.122897148132324,-0.00326469302595012,,
0.657614564835691,-0.128820896148682,-0.00345802217827762,,
0.662485783834474,-0.134884715080261,-0.00367539591619614,,
0.667357002833257,-0.140760898590088,-0.00393150757684513,,
0.67222822183204,-0.146653294563293,-0.00415330280078985,,
0.677099440830823,-0.152473449707031,-0.00438683765361381,,
0.681970659829605,-0.158258318901062,-0.00460544318382672,,
0.686841878828388,-0.16404914855957,-0.00479875159017906,,
0.691713097827171,-0.169803023338318,-0.00505622729871646,,
0.696584316825954,-0.175446629524231,-0.00526084744820343,,
0.701455535824737,-0.18119490146637,-0.00549351356330385,,
0.70632675482352,-0.186697125434875,-0.0056936292428631,,
0.711197973822303,-0.192209243774414,-0.00592914014985224,,
0.716069192821086,-0.197873473167419,-0.00616039294537263,,
0.720940411819869,-0.203254699707031,-0.00634764612012928,,
0.725811630818652,-0.208570003509521,-0.00656437932605458,,
0.730682849817434,-0.214012622833252,-0.00679123656801828,,
0.735554068816217,-0.219393253326416,-0.00700813574174752,,
0.740425287815,-0.224611163139343,-0.00720095143118193,,
0.745296506813783,-0.229681372642517,-0.00741340837290982,,
0.750167725812566,-0.234937191009521,-0.00760846203445009,,
0.755038944811349,-0.240096211433411,-0.00781928004411414,,
0.759910163810132,-0.245241165161133,-0.00802412839933186,,
0.764781382808915,-0.250182628631592,-0.008244678864747,,
0.769652601807698,-0.255096435546875,-0.00840998020419015,,
0.77452382080648,-0.259949564933777,-0.00859810989641119,,
0.779395039805263,-0.264711260795593,-0.00879938475735109,,
0.784266258804046,-0.269406795501709,-0.00898726031137231,,
0.789137477802829,-0.27415668964386,-0.00917314425174665,,
0.794008696801612,-0.278811454772949,-0.00938535742826252,,
0.798879915800395,-0.283300876617432,-0.00956518095054726,,
0.803751134799178,-0.287831783294678,-0.00977293114908662,,
0.808622353797961,-0.292234301567078,-0.00992466980705409,,
0.813493572796744,-0.296545028686523,-0.010128040011518,,
0.818364791795526,-0.300887227058411,-0.0102849833160867,,
0.823236010794309,-0.305061817169189,-0.0104515942452323,,
0.828107229793092,-0.309271812438965,-0.0106214026478502,,
0.832978448791875,-0.313266277313232,-0.0108003963311156,,
0.837849667790658,-0.317388534545898,-0.0109809693017651,,
0.842720886789441,-0.321231722831726,-0.0111477850974189,,
0.847592105788224,-0.325041770935059,-0.0113039867333637,,
0.852463324787007,-0.328871250152588,-0.0114652633535619,,
0.85733454378579,-0.332465648651123,-0.0116289283541886,,
0.862205762784573,-0.3360276222229,-0.0117532589852893,,
0.867076981783355,-0.339635848999023,-0.0119071292922386,,
0.871948200782138,-0.343163967132568,-0.0120602371845888,,
0.876819419780921,-0.346437454223633,-0.0122071186910451,,
0.881690638779704,-0.349788069725037,-0.0123555146537124,,
0.886561857778487,-0.353020548820496,-0.0124965639478098,,
0.89143307677727,-0.356011748313904,-0.0126296078886159,,
0.896304295776053,-0.359126091003418,-0.0127668243637418,,
0.901175514774836,-0.361998081207275,-0.0128821304955054,,
0.906046733773619,-0.364905476570129,-0.0130350905727799,,
0.910917952772402,-0.367682933807373,-0.0131536745686707,,
0.915789171771184,-0.370466828346252,-0.0132548500978795,,
0.920660390769967,-0.373092174530029,-0.013370324790694,,
0.92553160976875,-0.375635147094727,-0.0134999041535933,,
0.930402828767533,-0.37798023223877,-0.013605791612485,,
0.935274047766316,-0.380277633666992,-0.0137050196132451,,
0.940145266765099,-0.382471084594727,-0.0138087494906864,,
0.945016485763882,-0.384691715240479,-0.0139064007973095,,
0.949887704762665,-0.38679838180542,-0.0140143213617989,,
0.954758923761448,-0.388891696929932,-0.0140897770678965,,
0.959630142760231,-0.390631675720215,-0.0141849777561651,,
0.964501361759013,-0.392622590065002,-0.0142818614616953,,
0.969372580757796,-0.394254684448242,-0.014385466863283,,
0.974243799756579,-0.395852208137512,-0.0144507959400957,,
0.979115018755362,-0.397221565246582,-0.0145388185208453,,
0.983986237754145,-0.39890193939209,-0.0146283399983238,,
0.988857456752928,-0.400137066841125,-0.014690349719058,,
0.993728675751711,-0.401418328285217,-0.0147694774628171,,
0.998599894750494,-0.402539253234863,-0.0147878791430749,,
1.00347111374928,-0.40358304977417,-0.0148680597450901,,
1.00834233274806,-0.404670715332031,-0.0149329324104417,,
1.01321355174684,-0.40546989440918,-0.0149940708002054,,
1.01808477074563,-0.406280994415283,-0.0150385294256767,,
1.02295598974441,-0.40678071975708,-0.0150710980139461,,
1.02782720874319,-0.407364845275879,-0.0151364089380301,,
1.03269842774197,-0.407890677452087,-0.0151557649331608,,
1.03756964674076,-0.408290863037109,-0.0152069037627389,,
1.04244086573954,-0.408736705780029,-0.0152392259925498,,
1.04731208473832,-0.408828258514404,-0.0152548684580678,,
1.05218330373711,-0.408892154693604,-0.0152626456056288,,
1.05705452273589,-0.40891695022583,-0.0153132476330917,,
1.06192574173467,-0.408883571624756,-0.0153194895784665,,
1.06679696073345,-0.40870189666748,-0.0153576673598588,,
1.07166817973224,-0.408313274383545,-0.0153614431273978,,
1.07653939873102,-0.408071994781494,-0.0153772930526705,,
1.0814106177298,-0.407629489898682,-0.0153712326345814,,
1.08628183672859,-0.40704870223999,-0.0153712948725078,,
1.09115305572737,-0.406197071075439,-0.0153529554301763,,
1.09602427472615,-0.40540599822998,-0.015384014748729,,
1.10089549372493,-0.404693126678467,-0.0153294709859235,,
1.10576671272372,-0.403748989105225,-0.0153460444270914,,
1.1106379317225,-0.402743816375732,-0.015310319857301,,
1.11550915072128,-0.401434898376465,-0.0152811925077154,,
1.12038036972007,-0.400289058685303,-0.0152595959472324,,
1.12525158871885,-0.399003505706787,-0.0152509889606516,,
1.13012280771763,-0.397469997406006,-0.0152071319684697,,
1.13499402671641,-0.39596951007843,-0.0151792701233888,,
1.1398652457152,-0.394340991973877,-0.0151074890481997,,
1.14473646471398,-0.392583847045898,-0.0150870101771456,,
1.14960768371276,-0.390815258026123,-0.015050105679999,,
1.15447890271155,-0.388984084129334,-0.0149920376946078,,
1.15935012171033,-0.387068271636963,-0.0149344261206767,,
1.16422134070911,-0.384888052940369,-0.014900734656484,,
1.16909255970789,-0.382784366607666,-0.0148484755442291,,
1.17396377870668,-0.380586624145508,-0.0147660517836146,,
1.17883499770546,-0.378236293792725,-0.0146614505752027,,
1.18370621670424,-0.37584924697876,-0.0145878205149486,,
1.18857743570303,-0.373274326324463,-0.0145349390234291,,
1.19344865470181,-0.370659351348877,-0.0144490325321791,,
1.19831987370059,-0.367940902709961,-0.0143520865887226,,
1.20319109269938,-0.365242958068848,-0.0142664472019072,,
1.20806231169816,-0.362369537353516,-0.0141916787062479,,
1.21293353069694,-0.359323024749756,-0.0141158106738875,,
1.21780474969572,-0.356310844421387,-0.0140127265149332,,
1.22267596869451,-0.353209376335144,-0.0139259435062193,,
1.22754718769329,-0.350049495697021,-0.0138377705171475,,
1.23241840669207,-0.346867561340332,-0.0137138159068524,,
1.23728962569086,-0.34335994720459,-0.0135910412239131,,
1.24216084468964,-0.339931011199951,-0.0134890540084132,,
1.24703206368842,-0.336513996124268,-0.0133843931553219,,
1.2519032826872,-0.332901954650879,-0.0132899756276279,,
1.25677450168599,-0.329102993011475,-0.0131511617123894,,
1.26164572068477,-0.325400829315186,-0.0130210429541275,,
1.26651693968355,-0.321569442749023,-0.0128886032398574,,
1.27138815868234,-0.317595481872559,-0.0127601441596346,,
1.27625937768112,-0.313648700714111,-0.012624652193721,,
1.2811305966799,-0.309662342071533,-0.0124734140324119,,
1.28600181567868,-0.305615901947021,-0.0123293332326462,,
1.29087303467747,-0.301357269287109,-0.0122205205912107,,
1.29574425367625,-0.297031044960022,-0.0120682658771027,,
1.30061547267503,-0.292564868927002,-0.011919890660411,,
1.30548669167382,-0.288151144981384,-0.0117523254163925,,
1.3103579106726,-0.28376579284668,-0.0116126220174548,,
1.31522912967138,-0.279254913330078,-0.0114763624504484,,
1.32010034867016,-0.274590492248535,-0.0113456420588971,,
1.32497156766895,-0.269932389259338,-0.0111356901937092,,
1.32984278666773,-0.265249252319336,-0.011003686144925,,
1.33471400566651,-0.260407447814941,-0.0108109352866639,,
1.3395852246653,-0.255454540252686,-0.0106452190277109,,
1.34445644366408,-0.25062084197998,-0.0104761989721616,,
1.34932766266286,-0.24555778503418,-0.0102894851927675,,
1.35419888166165,-0.2406005859375,-0.0101170264917809,,
1.35907010066043,-0.235507130622864,-0.00992501989539063,,
1.36394131965921,-0.230311870574951,-0.00975129309665235,,
1.36881253865799,-0.225136756896973,-0.00955706927413136,,
1.37368375765678,-0.219889163970947,-0.00938081146638359,,
1.37855497665556,-0.214500904083252,-0.00918797503097357,,
1.38342619565434,-0.209038257598877,-0.00901070326367392,,
1.38829741465313,-0.203726887702942,-0.00880899014400205,,
1.39316863365191,-0.198418021202087,-0.00863630323728515,,
1.39803985265069,-0.192821025848389,-0.00841676673142189,,
1.40291107164947,-0.18721342086792,-0.00823019817385617,,
1.40778229064826,-0.181677341461182,-0.00802707692109816,,
1.41265350964704,-0.1761155128479,-0.00781816235468469,,
1.41752472864582,-0.170324802398682,-0.0076103291722438,,
1.42239594764461,-0.164663314819336,-0.00740606429758683,,
1.42726716664339,-0.158880710601807,-0.00719487026711674,,
1.43213838564217,-0.153065800666809,-0.0069990075125328,,
1.43700960464095,-0.147216796875,-0.00678619529597446,,
1.44188082363974,-0.141322255134583,-0.00656531548819839,,
1.44675204263852,-0.135437846183777,-0.0063504649795485,,
1.4516232616373,-0.129518508911133,-0.00613443973003669,,
1.45649448063609,-0.12354564666748,-0.00593614969632039,,
1.46136569963487,-0.117522716522217,-0.00570155420549989,,
1.46623691863365,-0.111581802368164,-0.00549031868307859,,
1.47110813763243,-0.105484485626221,-0.00526609618000196,,
1.47597935663122,-0.0993613004684448,-0.00507074948155806,,
1.48085057563,-0.0932364463806152,-0.00484283678809172,,
1.48572179462878,-0.0871233940124512,-0.00461141543152044,,
1.49059301362757,-0.0809965133666992,-0.00437455862937153,,
1.49546423262635,-0.0747617483139038,-0.00416332310695067,,
1.50033545162513,-0.0685787200927734,-0.00391935043520908,,
1.50520667062391,-0.0624279975891113,-0.00369313631848556,,
1.5100778896227,-0.0561599731445313,-0.00346331240202735,,
1.51494910862148,-0.0500251054763794,-0.00325680696201758,,
1.51982032762026,-0.0436830520629883,-0.00300019999120371,,
1.52469154661905,-0.0374336242675781,-0.00279587287862038,,
1.52956276561783,-0.0311546325683594,-0.00254725310836967,,
1.53443398461661,-0.0249009132385254,-0.00229454638094762,,
1.5393052036154,-0.0186300277709961,-0.00203503497356561,,
1.54417642261418,-0.0124306678771973,-0.00181539733107172,,
1.54904764161296,-0.00597465038299561,-0.00158343657913784,,
1.55391886061174,0.00025177001953125,-0.00137844559533917,,
1.55879007961053,0.00652217864990234,-0.0011269654737176,,
1.56366129860931,0.012880802154541,-0.00086722326735833,,
1.56853251760809,0.0191602110862732,-0.000649120827050709,,
1.57340373660688,0.0254111886024475,-0.00042002301973465,,
1.57827495560566,0.0316839218139648,-0.000169204176081905,,
1.58314617460444,0.0379380583763123,4.37947542555328E-05,,
1.58801739360322,0.0441999435424805,0.000277705627885094,,
1.59288861260201,0.0504164695739746,0.000513193195652129,,
1.59775983160079,0.0566196441650391,0.000765796193196611,,
1.60263105059957,0.0628361701965332,0.000996496627119203,,
1.60750226959836,0.0690107345581055,0.00121036170193323,,
1.61237348859714,0.0752158761024475,0.00147727942256459,,
1.61724470759592,0.0813488960266113,0.00169164758728435,,
1.6221159265947,0.0875406861305237,0.00194542791893815,,
1.62698714559349,0.0936579704284668,0.0021619847840717,,
1.63185836459227,0.0996861457824707,0.00240194829605,,
1.63672958359105,0.105825483798981,0.00261988476855368,,
1.64160080258984,0.111846446990967,0.0028659735297949,,
1.64647202158862,0.117879927158356,0.00309878486672366,,
1.6513432405874,0.123943328857422,0.00334177729112328,,
1.65621445958618,0.129939496517181,0.00354258796086127,,
1.66108567858497,0.135883867740631,0.00377705378933557,,
