freq	Zr data	Zj data	Zr model	Zj model	Real Weight	Imag. Weight	Real conf. interv.	Imag. conf. interv.
0.01	-0.06042569182956065	0.06380500588925204	-0.06517895513769151	0.06951740514280479	1.0	1.0	0.028783175453377812	0.027418683138756346
0.012589	-0.05855221455234076	0.056099044684897896	-0.05758710361214434	0.0596478186703852	1.0	1.0	0.024158695541765147	0.02527359937715405
0.015849	-0.05308926434241328	0.05384956705980393	-0.05221022031400921	0.051525080011563314	1.0	1.0	0.020167877162300025	0.022874624580846492
0.019953	-0.04970692379549723	0.05047260108696039	-0.04823422665668248	0.045307804471975535	1.0	1.0	0.01686609594074769	0.020380868501260443
0.025119	-0.04455607110247136	0.04655200511487207	-0.04497758152305938	0.040934205110022735	1.0	1.0	0.014224315338177152	0.01793010157941549
0.031623	-0.04033940758016695	0.041837921481837625	-0.04187377926608876	0.03820831443851386	1.0	1.0	0.012164013074239905	0.01562557022452412
0.039811	-0.034790492497325874	0.04086053541742921	-0.03844822192967204	0.03682591389593768	1.0	1.0	0.010579554056026747	0.013537217076493009
0.050119	-0.02908167336840524	0.037131291687937454	-0.03432562433681566	0.03635932746268464	1.0	1.0	0.0093443054888431	0.011705530161800969
0.063096	-0.027743107587546834	0.03582959533904364	-0.029292743711449153	0.036251174280975795	1.0	1.0	0.00831975291753352	0.0101429436086892
0.079433	-0.021585611352954937	0.03469994924997205	-0.02339650976636737	0.0358743703083186	1.0	1.0	0.0073729020954245526	0.008836089718863946
0.1	-0.017930654912155217	0.033634699863846346	-0.016997573640640612	0.034691781366563444	1.0	1.0	0.006400810805456766	0.007753123372587096
0.12589	-0.012552995846012887	0.032747450576453424	-0.010681765538424615	0.03245149891118014	1.0	1.0	0.005364482505285099	0.006843846704601503
0.15849	-0.008228168039835714	0.03046019339374023	-0.0050311203156733885	0.029268287647959086	1.0	1.0	0.004308134749327771	0.0060389320644362796
0.19953	-0.0033931129197121374	0.028834137008368007	-0.00041387824226735495	0.025519458248872983	1.0	1.0	0.003331239398211518	0.0052763523142434635
0.25119	0.0011960174585006209	0.02782812020143336	0.0030852846438002334	0.02163996730009223	1.0	1.0	0.0025274819883042868	0.004532122654400603
0.31623	0.005879468085315242	0.025040747995924213	0.005588616186978713	0.01796764315608699	1.0	1.0	0.001942713809098193	0.003819282185958393
0.39811	0.00997591296897617	0.022371469488372216	0.007306032994876496	0.014696594466341553	1.0	1.0	0.0015689427969653065	0.0031641619327449594
0.50119	0.01381768403393041	0.018559947380843315	0.008450685934044971	0.011898675852983747	1.0	1.0	0.0013595142233098145	0.0025866292533367015
0.63096	0.017506334945603268	0.014958416059911625	0.009198953185569906	0.009568182020859965	1.0	1.0	0.0012550137365378894	0.0020941847350419074
0.79433	0.019977329490098734	0.010802039796472228	0.00968191491913569	0.007660137311016389	1.0	1.0	0.0012069530824429613	0.001684273044359722
1.0	0.02156761414697475	0.0058214043178851605	0.009991082856133373	0.006115109410867827	1.0	1.0	0.0011858059182620249	0.0013486198408229804
1.2589	0.021104673528083345	0.0018843803261566292	0.010187942749614407	0.0048728952372720765	1.0	1.0	0.0011766405422711358	0.0010767635899376273
1.5849	0.02087032918980342	-0.0019066325990618257	0.010312901662320597	0.0038783448573542385	1.0	1.0	0.0011726438233485151	0.0008580719409166278
1.9953	0.01843363132419929	-0.004567876271960542	0.010392029507418528	0.0030845377771837224	1.0	1.0	0.0011708628454713689	0.0006829896740548719
2.5119	0.016651483232189693	-0.006842214681311159	0.010442065760588617	0.0024521294310297414	1.0	1.0	0.0011700408645916698	0.0005432348562828001
3.1623	0.014416158560321374	-0.00819600030244428	0.01047368538837976	0.0019487767290702726	1.0	1.0	0.0011696438986195437	0.0004318628414841261
3.9811	0.012224415581919855	-0.008611992988766436	0.010493654354446826	0.0015484620993807341	1.0	1.0	0.0011694422849468286	0.0003432200003597718
5.0119	0.010447699936004022	-0.008786919645261557	0.010506261224958974	0.001230236742642407	1.0	1.0	0.0011693346219554853	0.00027271967866809464
6.3096	0.008446864534794585	-0.008589854505992853	0.010514218593887367	0.000977337213810933	1.0	1.0	0.001169274496445493	0.00021667432217619372
7.9433	0.007312119754580752	-0.008517359227313271	0.010519240526246296	0.0007763903242932802	1.0	1.0	0.0011692396732502332	0.0001721334872914448
10.0	0.005726087771711603	-0.00793870111593563	0.010522409627474564	0.0006167413241891808	1.0	1.0	0.0011692189422204703	0.00013674213024677363
12.589	0.005476754594285121	-0.0071181324900086084	0.010524409266806574	0.0004899205730732663	1.0	1.0	0.0011692063569543989	0.00010862601049601478
15.849	0.0035383899899867456	-0.006018003461478438	0.010525671271491913	0.00038915605598207286	1.0	1.0	0.0011691986116124519	8.628544397435891e-05
19.953	0.002409805132779108	-0.005533309752725205	0.010526467506134344	0.0003091170608844511	1.0	1.0	0.0011691938034706505	6.85393922016832e-05
25.119	0.0016159718578046163	-0.005187872271931355	0.010526969845050818	0.0002455456892437039	1.0	1.0	0.0011691908013421225	5.4444224208373685e-05
31.623	0.0017565221306641999	-0.004780232895880965	0.01052728682911004	0.00019504453636005333	1.0	1.0	0.0011691889194102834	4.324687128938387e-05
39.811	0.0018341160905496496	-0.004944879919420878	0.01052748683261371	0.00015492987019853638	1.0	1.0	0.0011691877369520798	3.435238923277847e-05
50.119	0.0004333068378420896	-0.003699238088959119	0.010527613026318003	0.0001230656135496869	1.0	1.0	0.0011691869928463071	2.7287206119740235e-05
63.096	0.0018886789362378429	-0.004258695854563172	0.01052769264978493	9.775474394503043e-05	1.0	1.0	0.0011691865241299417	2.1675071839853143e-05
79.433	0.0012270400203448486	-0.003283340064801109	0.010527742888929	7.764956969649847e-05	1.0	1.0	0.0011691862287021668	1.721717838428297e-05
----------------------------------------------------------------------------------
File name: C:/Users/Nova/Desktop/Yuefan_data/Z2_pouch_1.mmfile
Re = 0.010527828784624717	Std. Dev. = 0.0012015479778332571
R1 = -0.21559797569734812	Std. Dev. = 0.0643611321594147
Tau1 = 48.39030185625403	Std. Dev. = 16.90274158769373
C1 = -224.446921172318	Std. Dev. = -103.13014753670512
R2 = -0.05522057960590692	Std. Dev. = 0.003817746687938701
Tau2 = 1.6099784444621617	Std. Dev. = 0.18389329383153435
C2 = -29.15540647983244	Std. Dev. = -3.8926843414907752

Ohmic Resistance = 0.010527828784624717	Std. Dev. = 0.0012015479778332571
Zero frequency Impedance = -0.26029072651863033	Std. Dev. = 0.0644854575866369
Polarization Impedance = -0.27081855530325505	Std. Dev. = 0.06447426248213245
Overall Capacitance = -25.803553463048637	Std. Dev. = 3.3398942223787955
Characteristic Frequency = -0.585870729074995	Std. Dev. = -0.016090867360571682
Chi-squared = 0.0028605861340819678
Chi-squared/degrees of freedom = 3.814e-05
