Time domain (s),Current (AC) (A),Potential (AC) (V),Frequency (Hz),Column 5
0,-0.180809344637135,-0.0108837217352789,1,0.4
0.00244140625,-0.175668922327351,-0.0107244158973874,,
0.0048828125,-0.170559873790479,-0.0105330865190365,,
0.00732421875,-0.165388253964934,-0.0103411933459592,,
0.009765625,-0.160157881755658,-0.0101566971596925,,
0.01220703125,-0.155134317937114,-0.00997959796023595,,
0.0146484375,-0.149842666991607,-0.00975951505083827,,
0.01708984375,-0.14440002241991,-0.00956818285351391,,
0.01953125,-0.139141684075977,-0.00936167894010209,,
0.02197265625,-0.133826708434128,-0.00916942775737351,,
0.0244140625,-0.128391877929467,-0.00896514801415726,,
0.02685546875,-0.123057866515289,-0.00875690761298786,,
0.029296875,-0.117617160772255,-0.00857931509314547,,
0.03173828125,-0.112199250954109,-0.00836461924235898,,
0.0341796875,-0.106628114919193,-0.00814873096572644,,
0.03662109375,-0.101009741967756,-0.00791940182281614,,
0.0390625,-0.0955264994989009,-0.00769887069661124,,
0.04150390625,-0.0899109466618834,-0.00748987762948206,,
0.0439453125,-0.0842760642906184,-0.00727676604187666,,
0.04638671875,-0.0786229686803968,-0.00704279123042095,,
0.048828125,-0.0730370270447798,-0.00681045988059292,,
0.05126953125,-0.0673995595686306,-0.0065940782835745,,
0.0537109375,-0.061752574206317,-0.00637913718208161,,
0.05615234375,-0.0560202803828258,-0.00613429522727449,,
0.05859375,-0.0503186553036423,-0.00590282084543059,,
0.06103515625,-0.0445975831854438,-0.00567250224277549,,
0.0634765625,-0.0389110574688792,-0.00545844066105605,,
0.06591796875,-0.0331133722422953,-0.00522067433006512,,
0.068359375,-0.0273962952861905,-0.00496568125120911,,
0.07080078125,-0.021644848185603,-0.00475074014971666,,
0.0732421875,-0.0159196046481596,-0.0045026479183119,,
0.07568359375,-0.0101772054146667,-0.00428060300326694,,
0.078125,-0.0043235291663871,-0.00404290996559054,,
0.08056640625,0.00138955262762398,-0.00377713431259208,,
0.0830078125,0.00718230265397443,-0.00353580761790395,,
0.08544921875,0.0129799878805583,-0.00329274443545868,,
0.087890625,0.0186430126436305,-0.00307408228877204,,
0.09033203125,0.0244117916974186,-0.00279098968075253,,
0.0927734375,0.0301410891493395,-0.00256691510469231,,
0.09521484375,0.0359103675983894,-0.00232804655501129,,
0.09765625,0.0416285608497851,-0.00205794377748791,,
0.10009765625,0.0473712832213885,-0.00183075705453772,,
0.1025390625,0.0530359530512052,-0.00159763921106615,,
0.10498046875,0.0587384887923365,-0.00135755286477623,,
0.107421875,0.0644082994557297,-0.00112319749188039,,
0.10986328125,0.0701338367550918,-0.00082465127040976,,
0.1123046875,0.0757226278813197,-0.000607367601829001,,
0.11474609375,0.0813839782014556,-0.000348315200943361,,
0.1171875,0.0869720349228869,-9.44694443556493E-05,,
0.11962890625,0.0925944030364172,0.000119183386187327,,
0.1220703125,0.0982104258925045,0.000410214223954597,,
0.12451171875,0.103743284749421,0.000647746580134001,,
0.126953125,0.109154349914862,0.00086099629744707,,
0.12939453125,0.114699399891402,0.00112508338524009,,
0.1318359375,0.120088667922479,0.0013788812192761,,
0.13427734375,0.125573996100957,0.00162295923222899,,
0.13671875,0.130970050032355,0.00189240800786949,,
0.13916015625,0.136321246518774,0.00209906696483131,,
0.1416015625,0.141609636706985,0.00235478733888428,,
0.14404296875,0.147128130606079,0.00256653172427823,,
0.146484375,0.152304215612788,0.00284301102015716,,
0.14892578125,0.157596600963093,0.00308846469224244,,
0.1513671875,0.162592228023171,0.00333901506865431,,
0.15380859375,0.167916134027348,0.00358017826287194,,
0.15625,0.173039576898234,0.00380712255408922,,
0.15869140625,0.178008148485604,0.0040476599361603,,
0.1611328125,0.183202593612229,0.00429070056681669,,
0.16357421875,0.188066997223245,0.00450266483215378,,
0.166015625,0.19301233224285,0.00477766134790247,,
0.16845703125,0.197940511566406,0.00499257989760604,,
0.1708984375,0.202808704706172,0.00524114571658085,,
0.17333984375,0.20755284218769,0.00548317151672961,,
0.17578125,0.212439659833099,0.00570871195907863,,
0.17822265625,0.21691820716396,0.00591120447301208,,
0.1806640625,0.221675035160364,0.00613697043325168,,
0.18310546875,0.226223380323098,0.00638348403942235,,
0.185546875,0.230805625611245,0.00660417584712425,,
0.18798828125,0.235351415045287,0.00684527702392179,,
0.1904296875,0.239837512057458,0.00704740870923048,,
0.19287109375,0.244235744879759,0.00728693126079394,,
0.1953125,0.248324646401716,0.00748592824742378,,
0.19775390625,0.252886416484133,0.0077381925598039,,
0.2001953125,0.256976522429956,0.0079044387107774,,
0.20263671875,0.260899771605983,0.00816743767474826,,
0.205078125,0.265037584487397,0.00835381693540116,,
0.20751953125,0.269204068532071,0.00856367824640891,,
0.2099609375,0.27316750433857,0.00873083210689174,,
0.21240234375,0.276806861996408,0.00897951068481229,,
0.21484375,0.280850906073387,0.00915778257729949,,
0.21728515625,0.284668400958698,0.00936343234170112,,
0.2197265625,0.288169102990931,0.00959797094788328,,
0.22216796875,0.291880138556922,0.00976888531919107,,
0.224609375,0.295595639304076,0.00996714937267695,,
0.22705078125,0.298930894623722,0.0101148410392047,,
0.2294921875,0.302463087933635,0.0103539069170395,,
0.23193359375,0.305674963247446,0.0105226619545453,,
0.234375,0.309000348166626,0.0107013566930778,,
0.23681640625,0.312102239018093,0.0108911356359314,,
0.2392578125,0.315214940308166,0.0110791724530799,,
0.24169921875,0.318365008114292,0.0112304216643309,,
0.244140625,0.321699558405333,0.011425770899081,,
0.24658203125,0.324371381807888,0.0116032985825298,,
0.2490234375,0.32685214245855,0.0117382935918191,,
0.25146484375,0.329945572966759,0.0119209630831723,,
0.25390625,0.332610581092801,0.0120957620001452,,
0.25634765625,0.334999218005773,0.0122216911902338,,
0.2587890625,0.337581267765986,0.0123929889419556,,
0.26123046875,0.340038057444086,0.0125592012652458,,
0.263671875,0.342502602436837,0.0127000089981637,,
0.26611328125,0.344487257959274,0.0128350998525564,,
0.2685546875,0.346841348470611,0.0129845280068412,,
0.27099609375,0.349159952542175,0.0131512533833322,,
0.2734375,0.35113074250205,0.0132787893883908,,
0.27587890625,0.352812470733969,0.0133879118576856,,
0.2783203125,0.3550622170118,0.0135162991927813,,
0.28076171875,0.356649001391609,0.0136574282886937,,
0.283203125,0.358414628027496,0.0137894464618271,,
0.28564453125,0.359950885357296,0.0139374707672433,,
0.2880859375,0.361433090494064,0.0140135210378873,,
0.29052734375,0.362789800539182,0.0141345057482254,,
0.29296875,0.36431830255433,0.0142652722970666,,
0.29541015625,0.365614615148973,0.0143552088318217,,
0.2978515625,0.366683673523344,0.0144768926476209,,
0.30029296875,0.367823939786797,0.014560272249708,,
0.302734375,0.368701465390205,0.0146546232971709,,
0.30517578125,0.369716236562008,0.014764676027764,,
0.3076171875,0.370851567625227,0.0148450957075377,,
0.31005859375,0.371047095558285,0.0149353028637615,,
0.3125,0.37186774885424,0.0149934413759478,,
0.31494140625,0.372379834630841,0.0150633970255996,,
0.3173828125,0.373508820436617,0.0151847933060876,,
0.31982421875,0.373369694791942,0.0152350837956825,,
0.322265625,0.374022786289497,0.0153319831953089,,
0.32470703125,0.374112324922303,0.0153790093134378,,
0.3271484375,0.374354854762345,0.0154714265449893,,
0.32958984375,0.374457318919572,0.0154954893039121,,
0.33203125,0.37412031524649,0.0155654393156164,,
0.33447265625,0.374061092843689,0.015597507959654,,
0.3369140625,0.373944293104832,0.0156804139741711,,
0.33935546875,0.373804697441087,0.015683148378594,,
0.341796875,0.373443252776373,0.0157304789458754,,
0.34423828125,0.372588053078784,0.0157978242259436,,
0.3466796875,0.372472193378066,0.0158197389269588,,
0.34912109375,0.371377283954853,0.0158295545931453,,
0.3515625,0.370848042482204,0.0158603321472595,,
0.35400390625,0.370172155059761,0.0158950619024059,,
0.3564453125,0.369208615966571,0.0159059544165197,,
0.35888671875,0.368430969415507,0.0159152683053998,,
0.361328125,0.367213855034133,0.0159324978722388,,
0.36376953125,0.365897096609952,0.0159150427875092,,
0.3662109375,0.36484660398884,0.0159376396801436,,
0.36865234375,0.363552406480012,0.01596519796637,,
0.37109375,0.362125193574416,0.0159327008383401,,
0.37353515625,0.360289534097122,0.0159161929287515,,
0.3759765625,0.359043748552488,0.0159204326650939,,
0.37841796875,0.35720550397031,0.0159154938232904,,
0.380859375,0.355690397498653,0.0158807415163551,,
0.38330078125,0.35400514412371,0.0158427417517961,,
0.3857421875,0.351803104781469,0.0158377578064144,,
0.38818359375,0.349695304262732,0.0158153469660403,,
0.390625,0.347617349954931,0.0157396124204428,,
0.39306640625,0.345394864783151,0.0157319955536894,,
0.3955078125,0.343361797296521,0.0156904269685119,,
0.39794921875,0.3409708102882,0.0156362801229886,,
0.400390625,0.338846559102019,0.0155810958951683,,
0.40283203125,0.335842902236151,0.0155528610552702,,
0.4052734375,0.333448390084807,0.0154906801348957,,
0.40771484375,0.330837669161332,0.0154196476373167,,
0.41015625,0.328061501525271,0.0153723734495079,,
0.41259765625,0.325293559222932,0.0152844722137151,,
0.4150390625,0.322601054981303,0.0152419564533974,,
0.41748046875,0.319539820779379,0.015155199720899,,
0.419921875,0.316421244250932,0.0150710195303003,,
0.42236328125,0.313363065172962,0.0149626356320973,,
0.4248046875,0.310135679229846,0.0148982333605008,,
0.42724609375,0.307006997291398,0.0148313616680027,,
0.4296875,0.303790656796423,0.0146825649638114,,
0.43212890625,0.300275149163489,0.0146451740975562,,
0.4345703125,0.296830144391033,0.01456123633869,,
0.43701171875,0.293362813712759,0.0144175814424035,,
0.439453125,0.289746957008413,0.0143121349147251,,
0.44189453125,0.285995499802416,0.0142272950842965,,
0.4443359375,0.282246627701302,0.0140935291475106,,
0.44677734375,0.278420437463199,0.013995699486586,,
0.44921875,0.274640544103476,0.0138782328553408,,
0.45166015625,0.270700374240934,0.0137582742514049,,
0.4541015625,0.266794515770491,0.0136089193904341,,
0.45654296875,0.262738721216767,0.0135196819611396,,
0.458984375,0.258467657929051,0.0133880246166309,,
0.46142578125,0.254080499931083,0.0132679363399077,,
0.4638671875,0.250091448085277,0.0131295360104713,,
0.46630859375,0.245876552076409,0.0129606061966001,,
0.46875,0.241668911986932,0.0128315141180964,,
0.47119140625,0.23714406777769,0.0126876506177611,,
0.4736328125,0.232564671980154,0.0125593140241911,,
0.47607421875,0.228094555616358,0.0123884165667247,,
0.478515625,0.223444656958344,0.0122174289021024,,
0.48095703125,0.219048069202788,0.0120449979229802,,
0.4833984375,0.214202466354566,0.011923556538914,,
0.48583984375,0.209504831384771,0.0117536062565882,,
0.48828125,0.204733197787667,0.0116023063038115,,
0.49072265625,0.199781546886811,0.0114268759367451,,
0.4931640625,0.194853631948982,0.0112463714171409,,
0.49560546875,0.189916316629756,0.0110753160971515,,
0.498046875,0.185127762346138,0.010866210271077,,
0.50048828125,0.179862373716158,0.0107155643201833,,
0.5029296875,0.174995326247874,0.0105269918980442,,
0.50537109375,0.169954812366625,0.0103451793746752,,
0.5078125,0.164708929528043,0.0101525025269278,,
0.51025390625,0.159475061551935,0.00998904152190283,,
0.5126953125,0.15430203166918,0.00977043011674139,,
0.51513671875,0.149089520184558,0.00958065117388829,,
0.517578125,0.143736502374243,0.0094138750558721,,
0.52001953125,0.13854981256227,0.00919722001841139,,
0.5224609375,0.133152554207006,0.00896956534583859,,
0.52490234375,0.127666050980853,0.00879467622170926,,
0.52734375,0.122272347144805,0.00858898135372987,,
0.52978515625,0.116789339685484,0.00840696586425915,,
0.5322265625,0.111348868951986,0.00816466380469416,,
0.53466796875,0.105790423431955,0.0079707635223909,,
0.537109375,0.100317756392171,0.00777082499856796,,
0.53955078125,0.0946747074395676,0.00754282641121184,,
0.5419921875,0.0891437580351229,0.00731264030031786,,
0.54443359375,0.0835282051981054,0.00714663658107684,,
0.546875,0.0779450836769075,0.00690511255823445,,
0.54931640625,0.0722627881319715,0.00668966404148819,,
0.5517578125,0.0666712062675163,0.00647269327898048,,
0.55419921875,0.0609139426809394,0.0062470626294755,,
0.556640625,0.0552488028320529,0.00600578667631302,,
0.55908203125,0.0495551974532487,0.00580376774994917,,
0.5615234375,0.0438177040437973,0.00556877810798628,,
0.56396484375,0.038086761525132,0.00534597207006016,,
0.56640625,0.0324326671243869,0.00510957857922811,,
0.56884765625,0.0266351875311461,0.00488609034968368,,
0.5712890625,0.0208880587307629,0.00463980226140315,,
0.57373046875,0.0151030640190649,0.00442362081151249,,
0.576171875,0.00941016366886546,0.0041904578644627,,
0.57861328125,0.00362828283350526,0.00395003324133691,,
0.5810546875,-0.00213629542484612,0.00370134902546937,,
0.58349609375,-0.00794249974707099,0.0034709430346318,,
0.5859375,-0.013693829342891,0.00325261916478103,,
0.58837890625,-0.0194388724336518,0.00300239015136317,,
0.5908203125,-0.0252031863062764,0.00276378658520349,,
0.59326171875,-0.0309367139298259,0.0025332396456843,,
0.595703125,-0.0367036129073347,0.00228381122077792,,
0.59814453125,-0.0424493610267003,0.00205410433540099,,
0.6005859375,-0.0481241362665187,0.00181915415906841,,
0.60302734375,-0.0538016728683725,0.00154475526572995,,
0.60546875,-0.0595106419955224,0.00132002104983986,,
0.60791015625,-0.0652224899894751,0.00107994034149739,,
0.6103515625,-0.070845151864924,0.000866256502244589,,
0.61279296875,-0.076490962179563,0.000616720956340355,,
0.615234375,-0.0820745537198308,0.000363847745655566,,
0.61767578125,-0.0877629595126748,0.000106238659268953,,
0.6201171875,-0.0933503112055014,-0.000134769491398679,,
0.62255859375,-0.0989082867064624,-0.000358621368541812,,
0.625,-0.104427955653231,-0.000606488082055989,,
0.62744140625,-0.109925768713251,-0.000832479560186172,,
0.6298828125,-0.115547196788642,-0.0010829622812305,,
0.63232421875,-0.12093884429126,-0.0013196658591621,,
0.634765625,-0.126289952649104,-0.00156999071768382,,
0.63720703125,-0.131807036490988,-0.00180326642367845,,
0.6396484375,-0.13718992988843,-0.0020678440128834,,
0.64208984375,-0.142359610885313,-0.00228628064167946,,
0.64453125,-0.147681519308442,-0.00255401548135215,,
0.64697265625,-0.15303615280931,-0.00278458497266065,,
0.6494140625,-0.158329977593016,-0.00302979057506603,,
0.65185546875,-0.16343796858698,-0.00325546632814921,,
0.654296875,-0.168528451370593,-0.00348035276861536,,
0.65673828125,-0.17369631104358,-0.0037325494256284,,
0.6591796875,-0.178816698790512,-0.00394780625216784,,
0.66162109375,-0.183793495711605,-0.00420304740070332,,
0.6640625,-0.188739036364553,-0.00444708031007801,,
0.66650390625,-0.193737924181929,-0.00467293647747358,,
0.6689453125,-0.198766893219775,-0.0048847654320765,,
0.67138671875,-0.203505390472455,-0.00514934302128101,,
0.673828125,-0.208192244379835,-0.00533769274450302,,
0.67626953125,-0.213021396560612,-0.00561177027484749,,
0.6787109375,-0.217881393742848,-0.0058336094048177,,
0.68115234375,-0.222306153266403,-0.00603276425397103,,
0.68359375,-0.227065625120075,-0.00629831157010496,,
0.68603515625,-0.231790198057811,-0.00648037216315389,,
0.6884765625,-0.236120895015013,-0.00672864480887148,,
0.69091796875,-0.240340079947894,-0.00690779904010563,,
0.693359375,-0.244975408014742,-0.00714630394218796,,
0.69580078125,-0.249227905549198,-0.00738158393843547,,
0.6982421875,-0.253475702892956,-0.0075856099740248,,
0.70068359375,-0.257594068735354,-0.00780364348959184,,
0.703125,-0.26174028320764,-0.00801890031613084,,
0.70556640625,-0.266040722687221,-0.00820389264175736,,
0.7080078125,-0.270076130163791,-0.00844328270156014,,
0.71044921875,-0.274038802189302,-0.00865249282965852,,
0.712890625,-0.277884733228339,-0.0088486708426565,,
0.71533203125,-0.281606520480552,-0.00902969123443542,,
0.7177734375,-0.285334535485441,-0.00926567597409056,,
0.72021484375,-0.289060435404515,-0.00945702790423075,,
0.72265625,-0.292664247870197,-0.0096200294165536,,
0.72509765625,-0.296182575617549,-0.00982349729536391,,
0.7275390625,-0.299728164470953,-0.00999745897716808,,
0.72998046875,-0.303389143006005,-0.0101910435344248,,
0.732421875,-0.306529105402129,-0.0103827337414004,,
0.73486328125,-0.309899377142479,-0.0105935027619175,,
0.7373046875,-0.313235102481195,-0.010747937413373,,
0.73974609375,-0.315895175407004,-0.0109421308689339,,
0.7421875,-0.319117626149887,-0.011109552531912,,
0.74462890625,-0.322348772245562,-0.011279392874266,,
0.7470703125,-0.325130110091392,-0.0114520719230677,,
0.74951171875,-0.327919673270944,-0.0116129789379822,,
0.751953125,-0.330796836254639,-0.0117859286082522,,
0.75439453125,-0.333212146749824,-0.011975744197763,,
0.7568359375,-0.335679688114146,-0.0120978677734485,,
0.75927734375,-0.338480766760909,-0.012288610805284,,
0.76171875,-0.340890319522489,-0.0124254522423017,,
0.76416015625,-0.343248640205455,-0.0125944553494874,,
0.7666015625,-0.345555728809807,-0.0127444472984988,,
0.76904296875,-0.347605716982952,-0.0128789264356128,,
0.771484375,-0.349632674221675,-0.0129966665073007,,
0.77392578125,-0.351615449667832,-0.0131612269120422,,
0.7763671875,-0.353727950377267,-0.0133217054429644,,
0.77880859375,-0.355639987953411,-0.0134440263468041,,
0.78125,-0.357254503458342,-0.0135656735159455,,
0.78369140625,-0.35912723568977,-0.0136785001165927,,
0.7861328125,-0.360292236706774,-0.0138181379754538,,
0.78857421875,-0.362285117562932,-0.0139260933896646,,
0.791015625,-0.363623320607175,-0.0140545258283384,,
0.79345703125,-0.364949244403219,-0.0141469881634682,,
0.7958984375,-0.366363943051079,-0.0143038809599303,,
0.79833984375,-0.367462847636386,-0.0144051835963697,,
0.80078125,-0.368410641090736,-0.0145071627864808,,
0.80322265625,-0.369712593914217,-0.0145904014398868,,
0.8056640625,-0.370457809149462,-0.0147177964962637,,
0.80810546875,-0.371330399552636,-0.0147744691421616,,
0.810546875,-0.372253046986749,-0.0148745088784139,,
0.81298828125,-0.372851146253131,-0.0149747262100051,,
0.8154296875,-0.373173990601734,-0.0150531867031045,,
0.81787109375,-0.373769093496546,-0.015134511273414,,
0.8203125,-0.374094111683346,-0.0152176343489003,,
0.82275390625,-0.374338991618737,-0.0152904315239732,,
0.8251953125,-0.374652435585943,-0.0153549972960403,,
0.82763671875,-0.374807365621842,-0.015417217682046,,
0.830078125,-0.374910064788604,-0.0154855496028854,,
0.83251953125,-0.374761773772066,-0.0155391072829199,,
0.8349609375,-0.37464168389972,-0.0155994586894073,,
0.83740234375,-0.374531640684992,-0.0156547528571989,,
0.83984375,-0.374127248027771,-0.0157070730078086,,
0.84228515625,-0.373814685346321,-0.0157256810527535,,
0.8447265625,-0.373193085126446,-0.0158116061880307,,
0.84716796875,-0.372522602923307,-0.0158408304876736,,
0.849609375,-0.372095825607884,-0.0158581277098793,,
0.85205078125,-0.371289037874489,-0.0159138757324255,,
0.8544921875,-0.370290482360596,-0.0159206187173533,,
0.85693359375,-0.369468183997895,-0.0159677970600587,,
0.859375,-0.368566981183844,-0.0160041505440169,,
0.86181640625,-0.367498099066624,-0.0159903488491144,,
0.8642578125,-0.366352427583868,-0.0159846883500614,,
0.86669921875,-0.365116042420631,-0.0160084128321483,,
0.869140625,-0.363482079876686,-0.0160014443293299,,
0.87158203125,-0.362280946143687,-0.0159937090656839,,
0.8740234375,-0.360634586846775,-0.015964391739911,,
0.87646484375,-0.359183167959082,-0.0159670302992305,,
0.87890625,-0.357396684226971,-0.0159528903274926,,
0.88134765625,-0.355454506677972,-0.0159710670694717,,
0.8837890625,-0.35363982180167,-0.0159429027039142,,
0.88623046875,-0.35177713622786,-0.015886816404532,,
0.888671875,-0.349783785352631,-0.0158712077475318,,
0.89111328125,-0.347621051355106,-0.0158294643859893,,
0.8935546875,-0.345379647915765,-0.0158045700298448,,
0.89599609375,-0.343090655045602,-0.0157663419284213,,
0.8984375,-0.34077916001247,-0.0157154848251269,,
0.90087890625,-0.338490167142306,-0.0157315445179083,,
0.9033203125,-0.335980500318849,-0.0156525230490558,,
0.90576171875,-0.333300921601642,-0.0155888367967618,,
0.908203125,-0.330470466763013,-0.0155349126501556,,
