Time domain (s),Current (AC) (A),Potential (AC) (V),Frequency (Hz),Column 5
0,0.196654891905602,0.00386594325789469,1.5849,0.4
0.00154041658779734,0.201681481471907,0.00408026982313547,,
0.00308083317559467,0.206347390154487,0.00429088098112951,,
0.00462124976339201,0.211076457649578,0.00454091266639312,,
0.00616166635118935,0.215920239173904,0.00474624670574775,,
0.00770208293898669,0.220399990928632,0.00495354275075011,,
0.00924249952678402,0.225179115454662,0.00514144425716445,,
0.0107829161145814,0.229702608359078,0.00537486091184114,,
0.0123233327023787,0.234211266286601,0.00558228662963067,,
0.013863749290176,0.238599129313174,0.00580638375748022,,
0.0154041658779734,0.243120977150845,0.00601742339946609,,
0.0169445824657707,0.247432667711911,0.00623137222223979,,
0.018484999053568,0.251717361552652,0.00640926073431336,,
0.0200254156413654,0.255921917141983,0.00662597778919416,,
0.0215658322291627,0.260205435935049,0.00681919024193123,,
0.0231062488169601,0.264199187971554,0.00702810437779844,,
0.0246466654047574,0.268233126638531,0.00720472998968491,,
0.0261870819925547,0.272216303245963,0.00740404270136175,,
0.0277274985803521,0.276057064075232,0.00760373879345222,,
0.0292679151681494,0.279728148020286,0.00780336723017605,,
0.0308083317559468,0.283632361423984,0.0079899607328251,,
0.0323487483437441,0.287567596086292,0.00818043314319183,,
0.0338891649315414,0.291009780744329,0.00835798337842952,,
0.0354295815193388,0.294539623958893,0.00856712867013476,,
0.0369699981071361,0.298176396511847,0.00877640927257417,,
0.0385104146949334,0.301529042537078,0.00894460051535351,,
0.0400508312827308,0.304935975764877,0.00910235027980022,,
0.0415912478705281,0.308339618859186,0.00927654029846847,,
0.0431316644583254,0.311316484638073,0.00946516346213278,,
0.0446720810461228,0.314487703302342,0.00961684115737604,,
0.0462124976339201,0.317685243034523,0.00978460955411053,,
0.0477529142217175,0.320767628094591,0.00995816812268568,,
0.0492933308095148,0.323416420562723,0.0101406797515158,,
0.0508337473973121,0.326313148090201,0.0102822824349982,,
0.0523741639851095,0.329136082623712,0.0104536083764564,,
0.0539145805729068,0.331898149687678,0.0106009843179371,,
0.0554549971607042,0.334521326116504,0.010757674148298,,
0.0569954137485015,0.336897742533659,0.0109233621424925,,
0.0585358303362988,0.339618917938548,0.0110541794328589,,
0.0600762469240962,0.341919426275923,0.0112359975941754,,
0.0616166635118935,0.344320048675175,0.0113526805507509,,
0.0631570800996908,0.346249476956904,0.0115083329988153,,
0.0646974966874882,0.348603567468241,0.0116395674972791,,
0.0662379132752855,0.350433821726232,0.0117880879420547,,
0.0677783298630829,0.352754305874075,0.0119248194391011,,
0.0693187464508802,0.354404542828314,0.0120449077158242,,
0.0708591630386775,0.356479207002626,0.0121663039963127,,
0.0723995796264749,0.358124038737562,0.0123016090927011,,
0.0739399962142722,0.359777330815755,0.0124173730638728,,
0.0754804128020695,0.360905376583391,0.012556540154137,,
0.0770208293898669,0.362259031504556,0.012667224334824,,
0.0785612459776642,0.363920548916471,0.0127508069030124,,
0.0801016625654615,0.365405574167658,0.0128526225926531,,
0.0816420791532589,0.366574276584837,0.0129937347747235,,
0.0831824957410562,0.367565311793613,0.0130811173193681,,
0.0847229123288536,0.368924136924545,0.0132071198027712,,
0.0862633289166509,0.369792262146556,0.0132684775828453,,
0.0878037455044482,0.370404932004104,0.0133652924132628,,
0.0893441620922456,0.371215479890058,0.0134710603039352,,
0.0908845786800429,0.371868336378078,0.0135706715561956,,
0.0924249952678402,0.372383477278632,0.0136325987689432,,
0.0939654118556376,0.37330541968414,0.0137124546539904,,
0.0955058284434349,0.37367767478746,0.0138104872810167,,
0.0970462450312323,0.373650413681409,0.0139051145878955,,
0.0985866616190296,0.374126542999166,0.0139664103505499,,
0.100127078206827,0.374305150245708,0.0140422689309867,,
0.101667494794624,0.374432760423172,0.0141196441192379,,
0.103207911382422,0.374305855274313,0.0141688972265359,,
0.104748327970219,0.374327241141991,0.0142252428714924,,
0.106288744558016,0.37422219187988,0.0142540640579059,,
0.107829161145814,0.374111267379396,0.0143376127984109,,
0.109369577733611,0.37356839535372,0.0143949845497695,,
0.110909994321408,0.372909193608258,0.014428028558684,,
0.112450410909206,0.372570779877967,0.0144464928359733,,
0.113990827497003,0.372226255899767,0.0144789223086357,,
0.1155312440848,0.37116119268749,0.0145452020166714,,
0.117071660672598,0.370263456264079,0.0145524016753273,,
0.118612077260395,0.369527171391161,0.014594274709657,,
0.120152493848192,0.36856880250774,0.0146080538527702,,
0.12169291043599,0.367640749854323,0.014646549756689,,
0.123233327023787,0.366418465263182,0.0146519170824844,,
0.124773743611584,0.365301934962756,0.0146752807359465,,
0.126314160199382,0.364031003397885,0.0146975393517446,,
0.127854576787179,0.362261851618975,0.0146932545118239,,
0.129394993374976,0.360810902750352,0.0146757317717272,,
0.130935409962774,0.359452077619419,0.0146876165645597,,
0.132475826550571,0.357940966309856,0.0147059511690624,,
0.134016243138368,0.3558451512774,0.0147078229675541,,
0.135556659726166,0.354293383318295,0.0146780546060001,,
0.137097076313963,0.352446443383324,0.014651420943125,,
0.13863749290176,0.350185181638282,0.0146380026286366,,
0.140177909489558,0.348059050375821,0.0146032728734906,,
0.141718326077355,0.346290368615981,0.014616691187979,,
0.143258742665152,0.343923822599292,0.0145681146343524,,
0.14479915925295,0.34160239841331,0.0145534334196769,,
0.146339575840747,0.339122577800788,0.0145118084550266,,
0.147879992428544,0.336409627729621,0.0144603621862429,,
0.149420409016342,0.33423672956971,0.0144357356325937,,
0.150960825604139,0.33183140697976,0.014399049509747,,
0.152501242191936,0.328931389318793,0.0143821807715332,,
0.154041658779734,0.326271551402519,0.014312540846928,,
0.155582075367531,0.3233489728262,0.0142498186836164,,
0.157122491955328,0.320393257905456,0.0141863128456348,,
0.158662908543126,0.31749183018728,0.014117727217168,,
0.160203325130923,0.314087952083436,0.0140560706258892,,
0.16174374171872,0.3112466868062,0.0139821514993108,,
0.163284158306518,0.30810930951496,0.0139192094560556,,
0.164824574894315,0.304654434342037,0.0138511876223153,,
0.166364991482112,0.30122940538005,0.0137917692961,,
0.16790540806991,0.298009304732516,0.0136532111041405,,
0.169445824657707,0.294461130774228,0.0136136778179252,,
0.170986241245504,0.290763255742194,0.0135167051249843,,
0.172526657833302,0.287196516030647,0.0134357216504846,,
0.174067074421099,0.283124035799943,0.0133356819142323,,
0.175607491008896,0.279600067823752,0.0132516313964204,,
0.177147907596694,0.275668123294932,0.0131290455090594,,
0.178688324184491,0.271671081124939,0.0130484003113955,,
0.180228740772288,0.267796008903571,0.0129103100690582,,
0.181769157360086,0.263922581748948,0.0128268458977621,,
0.183309573947883,0.25973870699869,0.0127155810085071,,
0.18484999053568,0.255562587563084,0.012606334504373,,
0.186390407123478,0.251310325038163,0.0124993488170912,,
0.187930823711275,0.247288841876537,0.0123630232522478,,
0.189471240299073,0.242935789637325,0.0122275546553885,,
0.19101165688687,0.238437677762681,0.0121062260302676,,
0.192552073474667,0.233982102613858,0.0119654352111911,,
0.194092490062465,0.229391925753908,0.0118651023016807,,
0.195632906650262,0.22492697959988,0.0117380060565089,,
0.197173323238059,0.220203992976505,0.0115922482058926,,
0.198713739825857,0.215575245176635,0.0114358064452111,,
0.200254156413654,0.210897850403035,0.0113105819985306,,
0.201794573001451,0.205813654124482,0.0111743184511073,,
0.203334989589249,0.201203472077871,0.0110123966056852,,
0.204875406177046,0.196433013528441,0.010861502585112,,
0.206415822764843,0.191375608336869,0.0107061658620942,,
0.207956239352641,0.186412911987872,0.0105717120957425,,
0.209496655940438,0.181523303604235,0.0104164430280922,,
0.211037072528235,0.176486344242202,0.0102458612956728,,
0.212577489116033,0.171257382090135,0.0100404652388981,,
0.21411790570383,0.166077331297524,0.00991947489061262,,
0.215658322291627,0.160963024422308,0.00974882550282619,,
0.217198738879425,0.155806680216533,0.00957805771814702,,
0.218739155467222,0.150501134332273,0.00940922938732669,,
0.220279572055019,0.145227020973308,0.00924503544915734,,
0.221819988642817,0.139915805484018,0.00904750432881629,,
0.223360405230614,0.134509176123548,0.00885924199377675,,
0.224900821818411,0.129219346501936,0.00869901153253405,,
0.226441238406209,0.123713778127263,0.00853158705058243,,
0.227981654994006,0.118259911850274,0.00832654618448547,,
0.229522071581803,0.112822760626456,0.00815381639415858,,
0.231062488169601,0.107372625125833,0.00795608794566283,,
0.232602904757398,0.101766472670212,0.00776272890629715,,
0.234143321345195,0.0962507695093459,0.00757408319084396,,
0.235683737932993,0.0906291358006123,0.0074007501401594,,
0.23722415452079,0.0850920761482595,0.00721411717187959,,
0.238764571108587,0.0794614827010069,0.00702810437779844,,
0.240304987696385,0.0739331184014463,0.0068013292249991,,
0.241845404284182,0.0681725646813805,0.00660011088714718,,
0.243385820871979,0.0624829838408619,0.00637606450082329,,
0.244926237459777,0.0567746022375493,0.00619621398310155,,
0.246466654047574,0.0510105233744596,0.00599252622434809,,
0.248007070635371,0.0454036658902343,0.00578710197783705,,
0.249547487223169,0.0396948142678519,0.00558688719459832,,
0.251087903810966,0.0339511812343006,0.00539461064110691,,
0.252628320398763,0.0281997928860969,0.00516915476796731,,
0.254168736986561,0.0224902656113015,0.00493229896545966,,
0.255709153574358,0.0167303581674567,0.00474396333710558,,
0.257249570162155,0.0109470378986951,0.00451811280765746,,
0.258789986749953,0.00518295903560547,0.00430824585870226,,
0.26033040333775,-0.000550803597478959,0.00410237621435749,,
0.261870819925547,-0.00632915928981529,0.00387840875929557,,
0.263411236513345,-0.0120907705527883,0.00363921884662055,,
0.264951653101142,-0.0178961523416409,0.00345348231195564,,
0.266492069688939,-0.0236482457184494,0.00324610169774386,,
0.268032486276737,-0.0293749580654861,0.0030153743439123,,
0.269572902864534,-0.0351162410036881,0.00279294604845326,,
0.271113319452331,-0.0408737983521836,0.00258010226334271,,
0.272653736040129,-0.0465738958693902,0.00236435493539178,,
0.274194152627926,-0.0522932641684605,0.00212811930708279,,
0.275734569215723,-0.0579116958722808,0.00192639355397706,,
0.277274985803521,-0.0636555051629832,0.00167582062577631,,
0.278815402391318,-0.0693609491471093,0.00148126634159018,,
0.280355818979115,-0.0749564674212745,0.00123143762242828,,
0.281896235566913,-0.0806224885559169,0.00102621634201894,,
0.28343665215471,-0.0862782867757902,0.000815802512179165,,
0.284977068742507,-0.0918346172100068,0.000591192331128809,,
0.286517485330305,-0.0973845436343966,0.000350767708003463,,
0.288057901918102,-0.102944692973556,0.000127820721395722,,
0.289598318505899,-0.108530634609173,-9.28710863057347E-05,,
0.291138735093697,-0.11399249121035,-0.000341597586777986,,
0.292679151681494,-0.119448296316002,-0.000551394061392152,,
0.294219568269291,-0.124951690852477,-0.000780136857786662,,
0.295759984857089,-0.130373595832717,-0.000992261804621197,,
0.297300401444886,-0.135713952504338,-0.00121946826038632,,
0.298840818032683,-0.141080865253405,-0.00142590733740455,,
0.300381234620481,-0.146354009198038,-0.00163771374021859,,
0.301921651208278,-0.151607706103656,-0.00186000954391696,,
0.303462067796075,-0.156905702306607,-0.00211134641397237,,
0.305002484383873,-0.162030085215632,-0.00230953153619629,,
0.30654290097167,-0.167184549345128,-0.00255268774477146,,
0.308083317559468,-0.1721827321339,-0.00274933652636555,,
0.309623734147265,-0.17740135386643,-0.00301041858826689,,
0.311164150735062,-0.182502059564812,-0.00322030808901097,,
0.31270456732286,-0.187459291942122,-0.00342943082892688,,
0.314244983910657,-0.192401777471116,-0.00364331199633394,,
0.315785400498454,-0.19726741488219,-0.00384431609218971,,
0.317325817086252,-0.202244916831888,-0.00406633845544579,,
0.318866233674049,-0.206986704218057,-0.00425518713700068,,
0.320406650261846,-0.211744237243066,-0.00448586656828054,,
0.321947066849644,-0.216321047935717,-0.0047059776674141,,
0.323487483437441,-0.221139389677888,-0.00492136980468771,,
0.325027900025238,-0.225910670760689,-0.00510818600625385,,
0.326568316613036,-0.23046509679514,-0.00533579839422238,,
0.328108733200833,-0.234791328571178,-0.00555320327866893,,
0.32964914978863,-0.239554325567874,-0.00573598270999431,,
0.331189566376428,-0.243867514314725,-0.00595324664575925,,
0.332729982964225,-0.248052681617425,-0.00616945346641273,,
0.334270399552022,-0.252349654706366,-0.00637395027059862,,
0.33581081613982,-0.256498336778769,-0.00656990276570601,,
0.337351232727617,-0.260785321962475,-0.00674860314218551,,
0.338891649315414,-0.264836886344571,-0.00695432056195422,,
0.340432065903212,-0.268707963403845,-0.00713130700246545,,
0.341972482491009,-0.272912989012247,-0.00734390271789609,,
0.343512899078806,-0.27676926047082,-0.00752914311320207,,
0.345053315666604,-0.280645037720793,-0.00773619108852497,,
0.346593732254401,-0.284518641132567,-0.00793911208645071,,
0.348134148842198,-0.287980625343922,-0.00811837343868316,,
0.349674565429996,-0.291839246897845,-0.00830072720498976,,
0.351214982017793,-0.295327258415192,-0.00846632781100132,,
0.35275539860559,-0.298940295005119,-0.00867445827219893,,
0.354295815193388,-0.302268500038718,-0.00885938294245792,,
0.355836231781185,-0.305844640131662,-0.00904964956774945,,
0.357376648368982,-0.308813045567291,-0.00918627394379801,,
0.35891706495678,-0.312007706432669,-0.00936997799847417,,
0.360457481544577,-0.315213060231886,-0.00954921961789124,,
0.361997898132374,-0.318094982158664,-0.00971188285337865,,
0.363538314720172,-0.321391695914583,-0.00985987333111105,,
0.365078731307969,-0.324399994218765,-0.0100403073763742,,
0.366619147895766,-0.327312761147002,-0.0102060404741469,,
0.368159564483564,-0.329922072013267,-0.0103581297395401,,
0.369699981071361,-0.33249072622999,-0.0105129900560139,,
0.371240397659158,-0.335218951920927,-0.0106620602006475,,
0.372780814246956,-0.337716163239033,-0.0108364306336286,,
0.374321230834753,-0.340120075771774,-0.0109845282323588,,
0.37586164742255,-0.342455600529853,-0.0111370234299555,,
0.377402064010348,-0.34476733057252,-0.0112689288441441,,
0.378942480598145,-0.347139164303744,-0.0114124709814853,,
0.380482897185942,-0.348983460381446,-0.0115417406553275,,
0.38202331377374,-0.351246837212303,-0.011692744615873,,
0.383563730361537,-0.352937260797014,-0.0118337835046289,,
0.385104146949334,-0.355367964416736,-0.0119544581278674,,
0.386644563537132,-0.356792357207913,-0.012094191831832,,
0.388184980124929,-0.358356110653299,-0.0122168256417448,,
0.389725396712726,-0.359952765433576,-0.0123291561030325,,
0.391265813300524,-0.361988946796544,-0.0124447340219445,,
0.392806229888321,-0.363452762437204,-0.0125764139182425,,
0.394346646476118,-0.364909880306119,-0.0126789343512907,,
0.395887063063916,-0.366129051020923,-0.0128079305846911,,
0.397427479651713,-0.367368726317649,-0.0129085820382215,,
0.39896789623951,-0.367961420364728,-0.013038525446762,,
0.400508312827308,-0.36943046496754,-0.0131056593038079,,
0.402048729415105,-0.370072981036023,-0.0132147874110498,,
0.403589146002902,-0.371209957165987,-0.0133245215976228,,
0.4051295625907,-0.371977733316585,-0.0134247896707391,,
0.406669979178497,-0.372660201006005,-0.0134936149119644,,
0.408210395766294,-0.373314173789316,-0.0135854965385258,,
0.409750812354092,-0.373913448103373,-0.0136650564313414,,
0.411291228941889,-0.374110679855558,-0.0137585815195305,,
0.412831645529686,-0.374214495317611,-0.0138245426835453,,
0.414372062117484,-0.374635867413731,-0.0138986704141724,,
0.415912478705281,-0.374615245327041,-0.0139740384931977,,
0.417452895293078,-0.374967465867509,-0.014035041082594,,
0.418993311880876,-0.375127331103641,-0.0141381027585799,,
0.420533728468673,-0.375016406603157,-0.0141530743275391,,
0.42207414505647,-0.375011706412458,-0.0142171016756429,,
0.423614561644268,-0.374136295894865,-0.0142991676360174,,
0.425154978232065,-0.373965443962975,-0.0143439554890827,,
0.426695394819862,-0.373214118479822,-0.0143895129219493,,
0.42823581140766,-0.373051726891189,-0.0144324515283119,,
0.429776227995457,-0.372243059081515,-0.0144891016224205,,
0.431316644583254,-0.371799361079577,-0.0145269632572718,,
0.432857061171052,-0.370774014478702,-0.0145473500745785,,
0.434397477758849,-0.369943255772745,-0.0145725178711649,,
0.435937894346646,-0.368939295039548,-0.014584537974732,,
0.437478310934444,-0.367937919411235,-0.0146263264398527,,
0.439018727522241,-0.366738900764051,-0.0146589137750386,,
0.440559144110038,-0.365497815410116,-0.0146486527110179,,
0.442099560697836,-0.364114784297086,-0.0146946583606922,,
0.443639977285633,-0.362909420392459,-0.0146858631629603,,
0.445180393873431,-0.361312471850264,-0.0147129224908538,,
0.446720810461228,-0.359511828793674,-0.0146786691422514,,
0.448261227049025,-0.35793914498596,-0.0146853670236013,,
0.449801643636823,-0.356190027769902,-0.0147106701309219,,
0.45134206022462,-0.354120768814893,-0.0146862916469526,,
0.452882476812417,-0.352317540653418,-0.0146705730499805,,
0.454422893400215,-0.350294872338708,-0.0146562526639298,,
0.455963309988012,-0.348373140619248,-0.014642248002926,,
0.457503726575809,-0.346002305678547,-0.0146339489445535,,
0.459044143163607,-0.344133039837759,-0.0145697891046894,,
0.460584559751404,-0.341223915557314,-0.0145653012986671,,
0.462124976339201,-0.33907663343671,-0.0145463352440709,,
0.463665392926999,-0.336622898882565,-0.0144980744154912,,
0.465205809514796,-0.333953660584894,-0.0144864151405493,,
0.466746226102593,-0.331397050606836,-0.0144319074664012,,
0.468286642690391,-0.328445507105337,-0.0143503404643592,,
0.469827059278188,-0.325702240804165,-0.0143057104738173,,
0.471367475865985,-0.322933828482756,-0.0142796406056687,,
0.472907892453783,-0.320035514640918,-0.0142260096323201,,
0.47444830904158,-0.316990026077833,-0.0141480480975535,,
0.475988725629377,-0.313797127783967,-0.014100734444114,,
0.477529142217175,-0.31065522655918,-0.014050598998069,,
0.479069558804972,-0.307286423628423,-0.0139692800657065,,
0.480609975392769,-0.304061446533039,-0.0138861541712463,,
0.482150391980567,-0.300767729148691,-0.0138044039359184,,
0.483690808568364,-0.297162917892486,-0.0137417776177098,,
0.485231225156161,-0.293551761378839,-0.0136375686194561,,
0.486771641743959,-0.289878092328901,-0.0135588826084661,,
0.488312058331756,-0.286348719133407,-0.0134655182017744,,
0.489852474919553,-0.28280119145134,-0.0133960361396928,,
0.491392891507351,-0.27882089371071,-0.0132828712622097,,
0.492933308095148,-0.27481257108304,-0.013219046880208,,
0.494473724682945,-0.271095660278677,-0.0131061554431673,,
0.496014141270743,-0.267176876283813,-0.0130089572323362,,
0.49755455785854,-0.262849410707716,-0.0128799835507247,,
0.499094974446337,-0.258758893495206,-0.0128018218688304,,
0.500635391034135,-0.254560624410934,-0.0126901200386627,,
0.502175807621932,-0.250447957549758,-0.012550073428625,,
0.503716224209729,-0.245849525979893,-0.0124472598223186,,
0.505256640797527,-0.24158275161619,-0.0123095388655274,,
0.506797057385324,-0.23699148783714,-0.0121951308206731,,
0.508337473973121,-0.232827647649734,-0.012066813959918,,
0.509877890560919,-0.228220755736612,-0.0119673577512076,,
0.511418307148716,-0.223467276626081,-0.0118191896781363,,
0.512958723736513,-0.218963025127337,-0.0116549027138371,,
0.514499140324311,-0.214283750277458,-0.0115377236179022,,
0.516039556912108,-0.209530917443148,-0.0113822515841502,,
0.517579973499905,-0.204774794475349,-0.0112043151495249,,
0.519120390087703,-0.199767916333785,-0.0110635271494219,,
0.5206608066755,-0.194983180955109,-0.0109287125544455,,
0.522201223263297,-0.190030707520881,-0.0107822386845267,,
0.523741639851095,-0.184990986796812,-0.0106612737070044,,
