Time domain (s),Current (AC) (A),Potential (AC) (V),Frequency (Hz),Column 5
0,-0.32540979315994,-0.00492147352683148,1995.3,0.5
1.56618052423195E-05,-0.264509574513988,-0.00398894629822966,,
3.13236104846389E-05,-0.193410664631347,-0.00292766548044154,,
4.69854157269584E-05,-0.114806136516845,-0.00180553849078402,,
6.26472209692778E-05,-0.0324003802784323,-0.000539124545073211,,
7.83090262115972E-05,0.0500908607972973,0.000692110186570893,,
9.39708314539167E-05,0.132694254301299,0.00192028287108936,,
0.000109632636696236,0.210231300678149,0.00310077755949489,,
0.000125294441938556,0.279608594745282,0.00416489386038377,,
0.000140956247180875,0.337812840197467,0.00503522583133043,,
0.000156618052423195,0.383192025753678,0.00571055139971532,,
0.000172279857665514,0.413380516813669,0.00619345545509598,,
0.000187941662907833,0.427726973384047,0.00640290359785833,,
0.000203603468150153,0.425917007910442,0.00639206971811701,,
0.000219265273392472,0.407728968148144,0.00613441492984945,,
0.000234927078634792,0.373865654760094,0.00560693268615298,,
0.000250588883877111,0.325693375048897,0.00490657179300413,,
0.000266250689119431,0.264760157911751,0.00402422163036675,,
0.00028191249436175,0.19405298574451,0.00296679926658072,,
0.00029757429960407,0.115662081302906,0.00178277910463409,,
0.000313236104846389,0.0334682510658194,0.000566183498515116,,
0.000328897910088708,-0.0492261447081101,-0.000685328713367905,,
0.000344559715331028,-0.132276874671518,-0.00191955511997932,,
0.000360221520573347,-0.210221574434764,-0.0031170987512672,,
0.000375883325815667,-0.279954424591905,-0.00415901006131048,,
0.000391545131057986,-0.338551610276855,-0.00504177387493243,,
0.000407206936300306,-0.383794699161987,-0.00571919687694278,,
0.000422868741542625,-0.414396502513615,-0.00617648718273767,,
0.000438530546784945,-0.428687006658409,-0.00641328606594449,,
0.000454192352027264,-0.426671092402142,-0.00637474271938565,,
0.000469854157269584,-0.408271444951938,-0.00611138092064012,,
0.000485515962511903,-0.373986330914387,-0.00562711233192692,,
0.000501177767754222,-0.325470555654979,-0.00492916468892313,,
0.000516839572996542,-0.264525773130245,-0.00399432204464123,,
0.000532501378238861,-0.19322660873834,-0.00295410653199735,,
0.000548163183481181,-0.114855015310876,-0.00177845207503546,,
0.0005638249887235,-0.032363455921726,-0.000566059918138517,,
0.00057948679396582,0.050040567276956,0.000677016216601434,,
0.000595148599208139,0.132575523395683,0.00193274389246545,,
0.000610810404450459,0.210265112636972,0.00308299571631965,,
0.000626472209692778,0.279537292539229,0.00417527461207534,,
0.000642134014935097,0.337978716857384,0.0050390568230263,,
0.000657795820177417,0.383131829149162,0.00572963083685218,,
0.000673457625419736,0.413444179497645,0.00617848506550356,,
0.000689119430662056,0.427971862508409,0.00641532342577511,,
0.000704781235904375,0.425924682800677,0.0063867077028581,,
0.000720443041146695,0.407807909876275,0.00612084855065476,,
0.000736104846389014,0.373740663690554,0.00562268918425612,,
0.000751766651631334,0.325562123815432,0.00490607403870635,,
0.000767428456873653,0.264815579814968,0.00401080972664314,,
0.000783090262115973,0.193932238853902,0.00293566044429383,,
0.000798752067358292,0.115648429194009,0.00176856736124664,,
0.000814413872600611,0.033443528723542,0.00057599955653842,,
0.000830075677842931,-0.049271840367942,-0.000692649134327983,,
0.00084573748308525,-0.132331129425529,-0.00196033149529962,,
0.00086139928832757,-0.210332913395407,-0.00310512003664165,,
0.000877061093569889,-0.279896774494748,-0.00416018235850046,,
0.000892722898812209,-0.338294837451484,-0.00503009896206796,,
0.000908384704054528,-0.384046944863164,-0.00573492591274016,,
0.000924046509296848,-0.41464245268271,-0.00617723209778953,,
0.000939708314539167,-0.428925600250689,-0.00640789487198568,,
0.000955370119781486,-0.426719334569333,-0.00638240813556568,,
0.000971031925023806,-0.408179134060173,-0.00610843215552626,,
0.000986693730266125,-0.374120376232315,-0.00562468706702246,,
0.00100235553550844,-0.325421676860949,-0.00490727551459713,,
0.00101801734075076,-0.264433745183741,-0.00399818221503745,,
0.00103367914599308,-0.193369213150447,-0.0029400595624467,,
0.0010493409512354,-0.114714957406128,-0.00178914864324708,,
0.00106500275647772,-0.0324109199894461,-0.000535871978199154,,
0.00108066456172004,0.0500218221533408,0.000683674109427379,,
0.00109632636696236,0.132645410875426,0.00193723741229501,,
0.00111198817220468,0.210394347885444,0.00307459568345259,,
0.001127649977447,0.279609443581068,0.00413827602023265,,
0.00114331178268932,0.338149757268333,0.00504497151719452,,
0.00115897358793164,0.383034955765045,0.00573395958284539,,
0.00117463539317396,0.41354045162308,0.0062106296947495,,
0.00119029719841628,0.427824730972108,0.00640750696691228,,
0.0012059590036586,0.426214135803823,0.00636589127486253,,
0.00122162080890092,0.407732080546028,0.00613045692498826,,
0.00123728261414324,0.373823920333932,0.00561222604564637,,
0.00125294441938556,0.325872337927185,0.00490653059954482,,
0.00126860622462788,0.26474767295206,0.00400439727817759,,
0.00128426802987019,0.19385442890682,0.00292598341419481,,
0.00129992983511251,0.115603264056544,0.0017460173751811,,
0.00131559164035483,0.0334358892014648,0.000554330080661192,,
0.00133125344559715,-0.0492480022296087,-0.000700796857257657,,
0.00134691525083947,-0.132349025713358,-0.00194800778545412,,
0.00136257705608179,-0.210452457768651,-0.00310527279571904,,
0.00137823886132411,-0.279942823836158,-0.00414169679373178,,
0.00139390066656643,-0.338514968865411,-0.0050629061194476,,
0.00140956247180875,-0.383771143968916,-0.00571943202293834,,
0.00142522427705107,-0.414110727798877,-0.00618737770348554,,
0.00144088608229339,-0.42854270457473,-0.00640770263584312,,
0.00145654788753571,-0.426426769168304,-0.00639235978872499,,
0.00147220969277803,-0.408077698183704,-0.00609274431318818,,
0.00148787149802035,-0.374067819149877,-0.00560410578502291,,
0.00150353330326267,-0.32555154873626,-0.00489255228575924,,
0.00151919510850499,-0.264288594264275,-0.00398123968859077,,
0.00153485691374731,-0.193291332467049,-0.00294779363439135,,
0.00155051871898963,-0.114829408764654,-0.00176807132334389,,
0.00156618052423195,-0.0324296651130614,-0.000560146940364437,,
0.00158184232947426,0.0500187097554575,0.000686140567790705,,
0.00159750413471658,0.132583764176442,0.00193926619015539,,
0.0016131659399589,0.210229037116052,0.00308725580654734,,
0.00162882774520122,0.279525656415324,0.00415211702248808,,
0.00164448955044354,0.338049736118175,0.00503006978336717,,
0.00166015135568586,0.383135790382832,0.00572859756758648,,
0.00167581316092818,0.413643549802964,0.0061926556154317,,
0.0016914749661705,0.428083201469052,0.00639169554419672,,
0.00170713677141282,0.425863036101693,0.00638335730151862,,
0.00172279857665514,0.407680655244638,0.00612235211191159,,
0.00173846038189746,0.373857979869859,0.00563264083741544,,
0.00175412218713978,0.325382029156095,0.00489961009841711,,
0.0017697839923821,0.264942233187923,0.00399892541369473,,
0.00178544579762442,0.193903838223217,0.00296223709098609,,
0.00180110760286674,0.115633928249326,0.00176215834556936,,
0.00181676940810906,0.0334574637777012,0.000553116590011893,,
0.00183243121335138,-0.0492732550942526,-0.000702947499101381,,
0.0018480930185937,-0.132252187697399,-0.00192570152735483,,
0.00186375482383601,-0.210460733917568,-0.00309753872377394,,
0.00187941662907833,-0.280070644358319,-0.00416215277896015,,
0.00189507843432065,-0.33847747861818,-0.00503160080693066,,
0.00191074023956297,-0.383706915394415,-0.00573543568179646,,
0.00192640204480529,-0.414313528815499,-0.00617111143632609,,
0.00194206385004761,-0.428555790793103,-0.00638031241833392,,
0.00195772565528993,-0.4267897879396,-0.00637755588936306,,
0.00197338746053225,-0.40857108398452,-0.00612324978604128,,
0.00198904926577457,-0.374001680694857,-0.00559735177412568,,
0.00200471107101689,-0.325475648669697,-0.0049042563773245,,
0.00202037287625921,-0.264354449774033,-0.00401454460026818,,
0.00203603468150153,-0.193182822959027,-0.00295301662172553,,
0.00205169648674385,-0.11481950568048,-0.00178965841230339,,
0.00206735829198617,-0.0323645877027745,-0.000548968065402722,,
0.00208302009722849,0.0500510716198121,0.000670468172999428,,
0.00209868190247081,0.132509066627243,0.00195201556574487,,
0.00211434370771313,0.21016625863602,0.00309719372855399,,
0.00213000551295545,0.27956827504543,0.00415841618894142,,
0.00214566731819776,0.337988973623135,0.00502215720643306,,
0.00216132912344008,0.383144597054115,0.00573142275232286,,
0.0021769909286824,0.413354415113238,0.00618676838356969,,
0.00219265273392472,0.427991173522548,0.00640279374863439,,
0.00220831453916704,0.425950784501107,0.006385478764662,,
0.00222397634440936,0.407652007036849,0.00612402044700477,,
0.00223963814965168,0.373660307236113,0.0056222326234181,,
0.002255299954894,0.325643081528555,0.0049056071795035,,
0.00227096176013632,0.264874927583697,0.00399909018753108,,
0.00228662356537864,0.193960639484587,0.0029424436338914,,
0.00230228537062096,0.115641886084823,0.00177570756082313,,
0.00231794717586328,0.0334674022300331,0.000553350019613319,,
0.0023336089811056,-0.0491996893261022,-0.000707219604088039,,
0.00234927078634792,-0.132315496699797,-0.00192364871997652,,
0.00236493259159024,-0.210291957068715,-0.00310744918347439,,
0.00238059439683256,-0.279802200040886,-0.00414237305301857,,
0.00239625620207488,-0.338439068798848,-0.00501599706790445,,
0.0024119180073172,-0.383847539189687,-0.00572916397764933,,
0.00242757981255951,-0.414284526926132,-0.00618475848604483,,
0.00244324161780183,-0.428673920440036,-0.00640316792255469,,
0.00245890342304415,-0.426694930540475,-0.00638277887669725,,
0.00247456522828647,-0.408055274771681,-0.00610385453238482,,
0.00249022703352879,-0.374033724245792,-0.00560560934627974,,
0.00250588883877111,-0.32541913035359,-0.0048831653262682,,
0.00252155064401343,-0.26454593298017,-0.00398264713177632,,
0.00253721244925575,-0.19349130403105,-0.00296997287932532,,
0.00255287425449807,-0.114792484407948,-0.00175489284922214,,
0.00256853605974039,-0.0324051903478883,-0.000560105746905126,,
0.00258419786498271,0.0501067764682914,0.000688443968711816,,
0.00259985967022503,0.132586593629063,0.00191944183796622,,
0.00261552147546735,0.21024947991124,0.00310433392813003,,
0.00263118328070967,0.279773622569412,0.00415528548605026,,
0.00264684508595199,0.338046623720292,0.00504621075375544,,
0.00266250689119431,0.383351960563089,0.00570972409774484,,
0.00267816869643663,0.41345549730813,0.00618368230692568,,
0.00269383050167895,0.42781900133055,0.00643322884932829,,
0.00270949230692126,0.425991988404903,0.00638954661874713,,
0.00272515411216358,0.407767024285899,0.00611959558294073,,
0.0027408159174059,0.373685843046019,0.0056074682011209,,
0.00275647772264822,0.325771184995979,0.00488606088316335,,
0.00277213952789054,0.264909871323568,0.00401947751699439,,
0.00278780133313286,0.193932804744426,0.0029581143122881,,
0.00280346313837518,0.11565949942739,0.00180477984457861,,
0.0028191249436175,0.0334392845446102,0.000568637942119476,,
0.00283478674885982,-0.0492195662307659,-0.000684376114626684,,
0.00285044855410214,-0.132276874671518,-0.00194020505774395,,
0.00286611035934446,-0.21034536298694,-0.00308782050021605,,
0.00288177216458678,-0.279976635794981,-0.00419351644887778,,
0.0028974339698291,-0.338448193783551,-0.00502792085791803,,
0.00291309577507142,-0.384158849714331,-0.00572930128917948,,
0.00292875758031374,-0.41443455865137,-0.00617184090383072,,
0.00294441938555606,-0.428760855371822,-0.00641944792086724,,
0.00296008119079838,-0.426752863582893,-0.00636506568928707,,
0.0029757429960407,-0.408388442817824,-0.00611872880390596,,
0.00299140480128301,-0.373989160367008,-0.0056164020325622,,
0.00300706660652533,-0.325393877488946,-0.00491339445966643,,
0.00302272841176765,-0.264697874585927,-0.00399535531390693,,
0.00303839021700997,-0.19325271043877,-0.00298013221617399,,
0.00305405202225229,-0.114730307186597,-0.00179146405892672,,
0.00306971382749461,-0.0324126176610188,-0.000543743361674398,,
0.00308537563273693,0.0500590294553091,0.000675651683268885,,
0.00310103743797925,0.132516741517478,0.00192911886806524,,
0.00311669924322157,0.210387557199153,0.00312028266237574,,
0.00313236104846389,0.279740093555851,0.00415196597980483,,
0.00314802285370621,0.338043511322408,0.00503063619343003,,
0.00316368465894853,0.383108238587933,0.0057325658708125,,
0.00317934646419085,0.413659465473958,0.00618945625677547,,
0.00319500826943317,0.428180074853169,0.00638516294814195,,
0.00321067007467549,0.42611213403683,0.00638236522571178,,
0.00322633187991781,0.407662476011547,0.00613992798779162,,
0.00324199368516013,0.373905974459946,0.00561025562518624,,
0.00325765549040245,0.325489972773592,0.00489085648835941,,
0.00327331729564477,0.26479909825345,0.00401142762852968,,
0.00328897910088708,0.193921734511046,0.00294452390357547,,
0.0033046409061294,0.115746434359175,0.00175369308972551,,
0.00332030271137172,0.0334390015993481,0.000557858986990123,,
0.00333596451661404,-0.0491931815850735,-0.000683591722509647,,
0.00335162632185636,-0.132351006330193,-0.00193706234009383,,
0.00336728812709868,-0.210266138313547,-0.00311519698657214,,
0.003382949932341,-0.280070361413057,-0.00413884414668964,,
0.00339861173758332,-0.338510088059639,-0.00503725289279711,,
0.00341427354282564,-0.384014547630652,-0.00571616400851704,,
0.00342993534806796,-0.414137395389831,-0.00617334446508755,,
0.00344559715331028,-0.42897447904472,-0.00642201049730184,,
0.0034612589585526,-0.426630489757028,-0.00639452416172137,,
0.00347692076379492,-0.408140158350316,-0.0061044758670592,,
0.00349258256903724,-0.373954782517661,-0.00560829721948553,,
0.00350824437427956,-0.325740414698723,-0.00487698974019235,,
0.00352390617952188,-0.264498185967188,-0.00400503234400595,,
0.0035395679847642,-0.193310643481189,-0.00294179655330495,,
0.00355522979000652,-0.114741129842873,-0.00177660351855868,,
0.00357089159524883,-0.0324075246463007,-0.000564903068495326,,
0.00358655340049115,0.0500377378243348,0.000649375405549435,,
0.00360221520573347,0.132526397024548,0.00193490998185597,,
0.00361787701097579,0.210290966760298,0.00309227454298044,,
0.00363353881621811,0.279550661702864,0.00414922318198707,,
0.00364920062146043,0.338161640969342,0.00506370424271729,,
0.00366486242670275,0.383286883152802,0.0057255355204604,,
0.00368052423194507,0.413435337458204,0.00620394605601193,,
0.00369618603718739,0.428029512605565,0.0064394318977099,,
0.00371184784242971,0.426018125473491,0.00640098810201062,,
0.00372750964767203,0.40774771327176,0.00614785429587883,,
0.00374317145291435,0.373896637266296,0.00563250352588529,,
0.00375883325815667,0.325713817844084,0.0048826418260588,,
0.00377449506339899,0.264832874844115,0.00400725335800844,,
0.00379015686864131,0.193975706319795,0.00294167125653333,,
0.00380581867388363,0.11564446796034,0.0017750724949952,,
0.00382148047912595,0.0335440803960668,0.000553502778690707,,
0.00383714228436827,-0.0492298229965177,-0.000705125603250867,,
0.00385280408961058,-0.132216678067003,-0.00195703773496625,,
0.0038684658948529,-0.210337440519601,-0.00311927685541669,,
0.00388412770009522,-0.279771500479946,-0.00414723903037428,,
0.00389978950533754,-0.33837179856278,-0.00505369938134015,,
0.00391545131057986,-0.383865435477516,-0.00571579155099089,,
0.00393111311582218,-0.414310133472354,-0.00617801648990657,,
0.0039467749210645,-0.429053137827589,-0.00638571562705215,,
0.00396243672630682,-0.426644071129609,-0.00638389624927527,,
0.00397809853154914,-0.408126859922996,-0.00611893477120118,,
0.00399376033679146,-0.373940847463502,-0.00561538249444959,,
0.00400942214203378,-0.325662887696903,-0.00490535830235528,,
0.0040250839472761,-0.264441950596343,-0.00401836186081095,,
0.00404074575251842,-0.19337091082202,-0.00294826220998878,,
0.00405640755776074,-0.114774588120119,-0.00177103553600455,,
0.00407206936300306,-0.0323879306868991,-0.000560009628833846,,
0.00408773116824538,0.0500079224673393,0.000667600078410047,,
0.0041033929734877,0.132640848383074,0.00195441508473682,,
0.00411905477873002,0.210251778841495,0.00306949799288958,,
0.00413471658397234,0.279638975992802,0.00413090239105474,,
0.00415037838921465,0.337960820569555,0.00501646564350144,,
0.00416604019445697,0.383087477479326,0.00571660340541369,,
0.00418170199969929,0.413633045460108,0.00620435799060282,,
0.00419736380494161,0.42810933853764,0.00640721861269844,,
0.00421302561018393,0.425748832320271,0.00637631322001342,,
0.00422868741542625,0.407434139185019,0.00611610787007066,,
0.00424434922066857,0.37424260858555,0.00563109608269974,,
0.00426001102591089,0.325662675487957,0.00490551106143222,,
0.00427567283115321,0.264946795680275,0.00399724334744844,,
0.00429133463639553,0.193976272210319,0.00294490837586059,,
0.00430699644163785,0.115709510002469,0.00176146835512947,,
0.00432265824688017,0.0334480912158936,0.00056366211553982,,
0.00433832005212249,-0.0492286912154692,-0.000671074060127452,,
0.00435398185736481,-0.132185129670277,-0.00193871694403436,,
0.00436964366260713,-0.210273494890362,-0.00309799356821827,,
0.00438530546784945,-0.279950463358235,-0.00416277411363497,,
0.00440096727309177,-0.338550478495806,-0.00503387674554556,,
0.00441662907833408,-0.384013698794865,-0.00572770160985137,,
0.0044322908835764,-0.414308718746043,-0.00618080219757777,,
0.00444795268881872,-0.428476212438132,-0.00640669682888362,,
0.00446361449406104,-0.426792971073798,-0.00640920448070625,,
0.00447927629930336,-0.408231125252087,-0.00611947371895782,,
0.00449493810454568,-0.374174348041064,-0.00560806207348996,,
0.004510599909788,-0.3254205450799,-0.00491572532289375,,
0.00452626171503032,-0.264323820949409,-0.00401494452010009,,
0.00454192352027264,-0.193242524409334,-0.00295319684310913,,
0.00455758532551496,-0.114797931104243,-0.00176066851546608,,
0.00457324713075728,-0.0323872940600594,-0.000560919317722064,,
0.0045889089359996,0.050068967907641,0.000681978312027987,,
0.00460457074124192,0.132660760655895,0.00193882336047002,,
0.00462023254648424,0.210387840144415,0.00308769520344443,,
0.00463589435172656,0.279579911169335,0.00415392266911185,,
0.00465155615696888,0.33799633019995,0.00505026487668792,,
0.0046672179622112,0.383229516000908,0.00570608534219152,,
0.00468287976745352,0.413924196134826,0.00616169529813426,,
0.00469854157269583,0.428145131113298,0.0064225048188109,,
0.00471420337793815,0.426136856379107,0.00638541010889648,,
0.00472986518318047,0.407512515022625,0.00610636218420657,,
0.00474552698842279,0.373969637143922,0.00560797968657134,,
0.00476118879366511,0.325714383734609,0.0049136433368151,,
0.00477685059890743,0.264980324693836,0.00401808723774977,,
0.00479251240414975,0.193994168498148,0.00294426301166784,,
0.00480817420939207,0.115641037249036,0.00177452324887417,,
0.00482383601463439,0.0334776236276271,0.000552206901123675,,
0.00483949781987671,-0.0492201321212901,-0.000680709896767162,,
0.00485515962511903,-0.13230785717772,-0.00194824293144968,,
0.00487082143036135,-0.210111084309907,-0.00312382701625236,,
0.00488648323560367,-0.279785152588843,-0.00416506206700884,,
0.00490214504084599,-0.33834109900184,-0.00501490887402678,,
0.00491780684608831,-0.384087264563016,-0.0057195967967747,,
0.00493346865133063,-0.414267833155667,-0.00619905261635045,,
0.00494913045657295,-0.428876721456659,-0.00638943848591733,,
0.00496479226181527,-0.426822751062636,-0.00639136771291859,,
0.00498045406705758,-0.408244706624668,-0.00611078876466564,,
0.0049961158722999,-0.374165576737938,-0.00562893342609749,,
0.00501177767754222,-0.325443605118763,-0.00490047859384646,,
0.00502743948278454,-0.264522377787099,-0.00401328991616001,,
0.00504310128802686,-0.193345870166322,-0.00294261012412189,,
0.00505876309326918,-0.114741695733398,-0.00180688929296347,,
0.0050744248985115,-0.0323910430847824,-0.000566942144720528,,
0.00509008670375382,0.0500593124005713,0.000680682434460955,,
