Time domain (s),Current (AC) (A),Potential (AC) (V),Frequency (Hz),Column 5
0,-0.459837299400651,-0.0325826202312252,0.0031623,0.5
0.772034990355121,-0.460068465679801,-0.0327798707954914,,
1.54406998071024,-0.459965261395444,-0.0329537584855468,,
2.31610497106536,-0.459918221745617,-0.0331560750479114,,
3.08813996142049,-0.459872384613154,-0.0332935845601314,,
3.86017495177561,-0.459786935143994,-0.0335124195099135,,
4.63220994213073,-0.459267164697486,-0.0336380724308385,,
5.40424493248585,-0.458546007960665,-0.0337906452033625,,
6.17627992284097,-0.458174713040452,-0.0339012348639836,,
6.94831491319609,-0.457507245167118,-0.0340342173140726,,
7.72034990355121,-0.456595383323631,-0.0341619181916761,,
8.49238489390633,-0.455745345019916,-0.0342802954770338,,
9.26441988426146,-0.454672487322284,-0.0343745014842298,,
10.0364548746166,-0.45299653179845,-0.0344896721005785,,
10.8084898649717,-0.452127041007964,-0.0345896177758331,,
11.5805248553268,-0.450965267761712,-0.0346484965303304,,
12.3525598456819,-0.449263069064816,-0.0347068363488598,,
13.1245948360371,-0.447524370429108,-0.0347874072760668,,
13.8966298263922,-0.446097972626461,-0.034832974312156,,
14.6686648167473,-0.444299077386237,-0.0348454776266123,,
15.4406998071024,-0.442325887864548,-0.0348797539541734,,
16.2127347974575,-0.440350859198657,-0.034867924309677,,
16.9847697878127,-0.438245463503244,-0.0349298749991918,,
17.7568047781678,-0.436247587007437,-0.0349314379134991,,
18.5288397685229,-0.433792966122256,-0.0349484413432872,,
19.300874758878,-0.431238324086918,-0.0349110930807091,,
20.0729097492332,-0.428619948631288,-0.0348834995591507,,
20.8449447395883,-0.426225665823254,-0.0348647445874661,,
21.6169797299434,-0.423516747883746,-0.0348279622076544,,
22.3890147202985,-0.420633889344352,-0.0347806705764677,,
23.1610497106536,-0.4175794952398,-0.0347076178060135,,
23.9330847010088,-0.414797223741088,-0.0346428646494656,,
24.7051196913639,-0.411880341033924,-0.0345719406760847,,
25.477154681719,-0.408611686629634,-0.0345149751442735,,
26.2491896720741,-0.405320255131743,-0.0343804836734738,,
27.0212246624292,-0.401733075098624,-0.0342995624378877,,
27.7932596527844,-0.398365955743117,-0.0342021497616827,,
28.5652946431395,-0.394630300183702,-0.0340593586769771,,
29.3373296334946,-0.391049627891612,-0.0339258372909201,,
30.1093646238497,-0.387228169181461,-0.0338388260788962,,
30.8813996142048,-0.383364339418307,-0.0336527314891666,,
31.65343460456,-0.379704088771247,-0.0335448634551834,,
32.4254695949151,-0.375421146338582,-0.0333540531757341,,
33.1975045852702,-0.371083878415591,-0.0331914831410054,,
33.9695395756253,-0.366939296216102,-0.0330254100224847,,
34.7415745659805,-0.362778869081935,-0.0328634867109172,,
35.5136095563356,-0.358501019663988,-0.032637430019165,,
36.2856445466907,-0.353827895714865,-0.0324736743253062,,
37.0576795370458,-0.34963973994501,-0.032231530394911,,
37.8297145274009,-0.344751082442468,-0.0319943446754207,,
38.6017495177561,-0.340139003933647,-0.0317988995466472,,
39.3737845081112,-0.335256783435819,-0.0315650821769564,,
40.1458194984663,-0.330488094724415,-0.0313332858171456,,
40.9178544888214,-0.325595405251889,-0.031075701371269,,
41.6898894791766,-0.320365091345341,-0.0308562196983253,,
42.4619244695317,-0.315282262656672,-0.0305776706432956,,
43.2339594598868,-0.310253476513068,-0.0303301643000196,,
44.0059944502419,-0.305002790547648,-0.0300258541057223,,
44.778029440597,-0.299616715274305,-0.0297678385110709,,
45.5500644309522,-0.294168038361719,-0.0294898822856062,,
46.3220994213073,-0.288781043516274,-0.0291767874350315,,
47.0941344116624,-0.283213812538861,-0.0288608092770284,,
47.8661694020175,-0.277553209624949,-0.0285638016650966,,
48.6382043923726,-0.272156877585854,-0.0282330836083706,,
49.4102393827278,-0.266142239412719,-0.0279397407610209,,
50.1822743730829,-0.260450017365765,-0.0275755008870888,,
50.954309363438,-0.25471273628582,-0.0272524121426589,,
51.7263443537931,-0.248631110821878,-0.0269052262237621,,
52.4983793441482,-0.242777256293941,-0.0265342227034324,,
53.2704143345034,-0.236534352030592,-0.0261935915932456,,
54.0424493248585,-0.230700869561527,-0.0258225308109696,,
54.8144843152136,-0.224558906020439,-0.0254725222149408,,
55.5865193055687,-0.218520641917916,-0.025095098619893,,
56.3585542959239,-0.212220511975305,-0.024733934049328,,
57.130589286279,-0.205758678815393,-0.024322506963053,,
57.9026242766341,-0.199575193057089,-0.0239513451302824,,
58.6746592669892,-0.193202346182113,-0.0235886951174558,,
59.4466942573443,-0.186695524725525,-0.0231808250085694,,
60.2187292476995,-0.180224637317226,-0.0227469310291308,,
60.9907642380546,-0.173780983390406,-0.0223814246556739,,
61.7627992284097,-0.167215875209822,-0.0219368833225189,,
62.5348342187648,-0.16061164984675,-0.021514357523654,,
63.3068692091199,-0.153900400438282,-0.0211250066019657,,
64.0789041994751,-0.147238524978054,-0.0206674735436336,,
64.8509391898302,-0.140634087406036,-0.0202405554166298,,
65.6229741801853,-0.133736942960357,-0.0197802198912647,,
66.3950091705404,-0.126992376747275,-0.0193458408694549,,
67.1670441608955,-0.120187189511785,-0.0189191922104355,,
67.9390791512507,-0.11336799648582,-0.0184584019578469,,
68.7111141416058,-0.106622864382214,-0.0180097647113353,,
69.4831491319609,-0.0996312869553038,-0.0175143478228068,,
70.255184122316,-0.0927045039934187,-0.0170545815485572,,
71.0272191126711,-0.0857893217872803,-0.0165900995845885,,
71.7992541030263,-0.0788133063497868,-0.0161541542801218,,
72.5712890933814,-0.0718480428322538,-0.0156576898348058,,
73.3433240837365,-0.0648504528185239,-0.0151925544109757,,
74.1153590740916,-0.0578595120184537,-0.0147208810201844,,
74.8873940644468,-0.0508336982148276,-0.0142119368388607,,
75.6594290548019,-0.043830802977433,-0.0137206428104868,,
76.431464045157,-0.0367079389489008,-0.0132551638149772,,
77.2034990355121,-0.0297223033724953,-0.0127319883557497,,
77.9755340258672,-0.0226109693633944,-0.0122614736772895,,
78.7475690162224,-0.0155060016226911,-0.0117591550400218,,
79.5196040065775,-0.00845267139232412,-0.0112506184290235,,
80.2916389969326,-0.00141221517138348,-0.0107616148785135,,
81.0636739872877,0.00571323073266553,-0.0102256700051955,,
81.8357089776429,0.0127378773870854,-0.00974246001634071,,
82.607743967998,0.0198952607375959,-0.00923346194141983,,
83.3797789583531,0.0269123032380963,-0.0087033106297576,,
84.1518139487082,0.0339149155302288,-0.00819479759720831,,
84.9238489390633,0.0409758145463574,-0.0076998388042524,,
85.6958839294185,0.0480539732234751,-0.00714845341545312,,
86.4679189197736,0.0550534731177243,-0.00664923366000059,,
87.2399539101287,0.0620060040984621,-0.00613638892960866,,
88.0119889004838,0.0689477831592395,-0.00561006069496894,,
88.7840238908389,0.0760188328366465,-0.00509354446329535,,
89.5560588811941,0.0829606472655816,-0.00458309126126144,,
90.3280938715492,0.089813616882212,-0.00407452433511502,,
91.1001288619043,0.0968546743618346,-0.00352809715722069,,
91.8721638522594,0.103678182303047,-0.00303718038402456,,
92.6441988426145,0.110669193839433,-0.00249266642881629,,
93.4162338329697,0.117401876351506,-0.00193273890492529,,
94.1882688233248,0.124237833884251,-0.00144265748247951,,
94.9603038136799,0.130978686440768,-0.00092142556108632,,
95.732338804035,0.137851745171009,-0.000403319468307739,,
96.5043737943902,0.144543966510599,0.000152182043946958,,
97.2764087847453,0.151201951473473,0.000647255360795906,,
98.0484437751004,0.157886214977566,0.00115994514709694,,
98.8204787654555,0.164560080243276,0.00166918574320318,,
99.5925137558106,0.171166250855025,0.00220693605201339,,
100.364548746166,0.177741934114781,0.00270855070417353,,
101.136583736521,0.184079059150414,0.00323051018912324,,
101.908618726876,0.190594722646444,0.00373040024618554,,
102.680653717231,0.197032010304866,0.00425795792850225,,
103.452688707586,0.203247185932527,0.00477384091041344,,
104.224723697941,0.209457303913628,0.00528498799250654,,
104.996758688297,0.215803730774754,0.00580083055421987,,
105.768793678652,0.222243034418169,0.00629062229858324,,
106.540828669007,0.228240306825842,0.00682289567061956,,
107.312863659362,0.234462556085056,0.00727694922360866,,
108.084898649717,0.240178899215605,0.00780098361203496,,
108.856933640072,0.24651489247019,0.00830521884033875,,
109.628968630427,0.252437785642084,0.00880335061880588,,
110.401003620782,0.258141396235838,0.00931406655212452,,
111.173038611137,0.263948246482106,0.00976615972553052,,
111.945073601493,0.269809775900279,0.0102779602674845,,
112.717108591848,0.275353274843832,0.0107469962403823,,
113.489143582203,0.280912265040486,0.0111969201965172,,
114.261178572558,0.286523069588265,0.0116998417683996,,
115.033213562913,0.291881805275656,0.0121680087070493,,
115.805248553268,0.297277819001331,0.0126246693627836,,
116.577283543623,0.302724515297082,0.0131012504392327,,
117.349318533978,0.30807727376581,0.0135733920306458,,
118.121353524334,0.31307069175165,0.0140206549904391,,
118.893388514689,0.318156632838203,0.0144871512275881,,
119.665423505044,0.32331670558343,0.0149456846858107,,
120.437458495399,0.328314650693463,0.0154021365038575,,
121.209493485754,0.333220355648047,0.0158510701651515,,
121.981528476109,0.33819679691816,0.0162669064213139,,
122.753563466464,0.342833703873733,0.0166949832606487,,
123.525598456819,0.347446560482026,0.0171398277452859,,
124.297633447175,0.352098746481752,0.0175309066304212,,
125.06966843753,0.356507882501321,0.0179835050562969,,
125.841703427885,0.360872596114737,0.0183923620916748,,
126.61373841824,0.365242685688133,0.0187894837963509,,
127.385773408595,0.369610511699433,0.0191865448707307,,
128.15780839895,0.373648989425628,0.0195976182802768,,
128.929843389305,0.377844218827036,0.0199887173755111,,
129.70187837966,0.381491666200986,0.0204098486775588,,
130.473913370015,0.385338307039466,0.020796508287757,,
131.245948360371,0.389195699797906,0.0211327504381549,,
132.017983350726,0.392952929933557,0.021572764709179,,
132.790018341081,0.3966422532063,0.0218998112646238,,
133.562053331436,0.400137193083969,0.022263599779683,,
134.334088321791,0.403347490027948,0.0226088152139465,,
135.106123312146,0.406764902903796,0.0229885764437552,,
135.878158302501,0.409849855096658,0.0233257078385001,,
136.650193292856,0.41297640024305,0.0236732878543231,,
137.422228283212,0.416021740099215,0.0240075157315407,,
138.194263273567,0.418960409591561,0.0243358355232095,,
138.966298263922,0.421850412498824,0.0246965723133501,,
139.738333254277,0.424829260218391,0.0250122810033693,,
140.510368244632,0.427177705893962,0.0253162408892873,,
141.282403234987,0.429896809862906,0.0256588761676047,,
142.054438225342,0.432275813626785,0.0259352896888614,,
142.826473215697,0.434482786671298,0.0262157789133757,,
143.598508206053,0.436810860287996,0.0265192537569225,,
144.370543196408,0.438956717155891,0.0267855689654799,,
145.142578186763,0.441141337524696,0.027122073847162,,
145.914613177118,0.442857966429959,0.027360290281691,,
146.686648167473,0.444517157447013,0.027642746622488,,
147.458683157828,0.446626797321357,0.0278822497666407,,
148.230718148183,0.448295891422585,0.0281676163616646,,
149.002753138538,0.449785315282369,0.0284123202379076,,
149.774788128894,0.450960669901203,0.0286410985562982,,
150.546823119249,0.45235841949606,0.0289173840802626,,
151.318858109604,0.453388340250166,0.0291129639430276,,
152.090893099959,0.454636128856102,0.0293410416446598,,
152.862928090314,0.455805824569693,0.029557586116578,,
153.634963080669,0.456738129208369,0.0297945832084796,,
154.406998071024,0.457135384356381,0.0299871180830262,,
155.179033061379,0.458090324616026,0.0301631345701554,,
155.951068051735,0.458434669000022,0.0303807569140093,,
156.72310304209,0.4589957494548,0.0305608625777953,,
157.495138032445,0.458911148821427,0.0307121957975927,,
158.2671730228,0.459316043491516,0.0308825871405563,,
159.039208013155,0.459447330093138,0.0310104766457484,,
159.81124300351,0.459587670943149,0.0312415454420027,,
160.583277993865,0.459482415305641,0.0313640186407169,,
161.35531298422,0.459167214283643,0.0315268311966315,,
162.127347974575,0.458980187465383,0.0316794039691555,,
162.899382964931,0.458492389833494,0.0317597862687737,,
163.671417955286,0.458024964260477,0.0319082631279408,,
164.443452945641,0.457198481149833,0.0320170473530697,,
165.215487935996,0.456686916115925,0.0321162856748662,,
165.987522926351,0.455798185047616,0.0322500563188086,,
166.759557916706,0.454962081798061,0.0323682112930794,,
167.531592907061,0.453479448624568,0.0324434265441051,,
168.303627897416,0.452657492638118,0.0325178536012776,,
169.075662887772,0.451267382565337,0.0326252702763878,,
169.847697878127,0.449820117549609,0.0327006135247059,,
170.619732868482,0.448291930188915,0.0327363988729767,,
171.391767858837,0.446873808535185,0.032738413146157,,
172.163802849192,0.445210090393938,0.0328383588214116,,
172.935837839547,0.443419329829999,0.0328669291644119,,
173.707872829902,0.441612724331383,0.0329127319849873,,
174.479907820257,0.439636634620758,0.0329475741953145,,
175.251942810613,0.437195948789737,0.0329544995225026,,
176.023977800968,0.43520486298022,0.0329937879545654,,
176.796012791323,0.43265609205907,0.0330041624719484,,
177.568047781678,0.430370177286428,0.032968511857669,,
178.340082772033,0.428127836084151,0.0329663561137972,,
179.112117762388,0.425423728214099,0.0329191520597054,,
179.884152752743,0.422524671058449,0.0329071809445174,,
180.656187743098,0.419669187473164,0.0329179057702795,,
181.428222733453,0.41684313019514,0.0328644972158565,,
182.200257723809,0.413869941380815,0.0327891539675385,,
182.972292714164,0.410686807182,0.0327458571992141,,
183.744327704519,0.407823684074638,0.0326903467945163,,
184.516362694874,0.404241314110975,0.0326269072943903,,
185.288397685229,0.401025641207016,0.0325562527889933,,
186.060432675584,0.397378193833067,0.0325180152820681,,
186.832467665939,0.39379525797888,0.0323898024152953,,
187.604502656294,0.390112442447165,0.0323020097461177,,
188.37653764665,0.386487064803661,0.0321920331251602,,
189.148572637005,0.382443777008009,0.0320982380566397,,
189.92060762736,0.378699562354416,0.0319618064163558,,
190.692642617715,0.37445255397004,0.0318452345664904,,
191.46467760807,0.37048962262883,0.0317020662266074,,
192.236712598425,0.366442373599509,0.031564314193202,,
193.00874758878,0.361708982309555,0.0314310083815319,,
193.780782579135,0.35745942741782,0.031293094667336,,
194.552817569491,0.353094996749666,0.0311370727046176,,
195.324852559846,0.348578624475755,0.0310175973372249,,
196.096887550201,0.343908047033991,0.0308239441705451,,
196.868922540556,0.339176070470347,0.0306483386220915,,
197.640957530911,0.334487667477069,0.0304173506662324,,
198.412992521266,0.329510943261694,0.0302488792826545,,
199.185027511621,0.324400951827862,0.0300742640290421,,
199.957062501976,0.319422246995652,0.0298780104963168,,
200.729097492332,0.314427980174025,0.0296733024055942,,
201.501132482687,0.309565565844546,0.0294538139959513,,
202.273167473042,0.304193001207469,0.0291751571537282,,
203.045202463397,0.298821851296703,0.0289458129525713,,
203.817237453752,0.293286593133909,0.0287402358276005,,
204.589272444107,0.287716815649137,0.0285009482578356,,
205.361307434462,0.282591262225888,0.028253576648551,,
206.133342424817,0.276972535210769,0.0279858602064769,,
206.905377415173,0.271183475147857,0.0276761134956032,,
207.677412405528,0.265290574173747,0.0274785328330567,,
208.449447395883,0.259558669053782,0.027170335563091,,
209.221482386238,0.25368953548169,0.0269048018116869,,
209.993517376593,0.247791576861019,0.0266151035188207,,
210.765552366948,0.241945291118843,0.0262930892779765,,
211.537587357303,0.236028056852192,0.0259843867555407,,
212.309622347658,0.229698323761531,0.025700690862017,,
213.081657338013,0.223778825932782,0.0253947032295199,,
213.853692328369,0.217493762825378,0.0250744472672713,,
214.625727318724,0.21111051771202,0.02474583106082,,
215.397762309079,0.204794047680521,0.0244173495883606,,
216.169797299434,0.198650987726542,0.0240765534290337,,
216.941832289789,0.192275983393943,0.0237246215052696,,
217.713867280144,0.185755792773719,0.0233905418354432,,
218.485902270499,0.179247485854505,0.0230640005324685,,
219.257937260854,0.172651748849297,0.0227091920379752,,
220.02997225121,0.16615645741214,0.0223261230886633,,
220.802007241565,0.159540065402797,0.0219306114551916,,
221.57404223192,0.152871611465225,0.0215761061121804,,
222.346077222275,0.146233998561223,0.0212087404096342,,
223.11811221263,0.139545455510041,0.0208268234359537,,
223.890147202985,0.132832296221054,0.0204269598945408,,
224.66218219334,0.12593239305907,0.0200433991661582,,
225.434217183695,0.119104357993663,0.019625750737803,,
226.206252174051,0.11229414847977,0.0192567682273532,,
226.978287164406,0.105562031858222,0.0188328209848727,,
227.750322154761,0.098548950591391,0.01840101875066,,
228.522357145116,0.0917093147702378,0.0179881601157201,,
229.294392135471,0.084744617143229,0.0175584193115848,,
230.066427125826,0.0777762058596549,0.0171586096637686,,
230.838462116181,0.0708072994218721,0.0167117441692515,,
231.610497106536,0.0637243306752984,0.0162714941137412,,
232.382532096891,0.0568416518061457,0.0158164165824126,,
233.154567087247,0.0498215322759197,0.0154076403874299,,
233.926602077602,0.0427343193504143,0.0149477865360859,,
234.698637067957,0.0357379318540483,0.0144812566154386,,
235.470672058312,0.0286377034464855,0.0140500539474901,,
236.242707048667,0.0216013853000033,0.0135810988149876,,
237.014742039022,0.0145597619298565,0.0130896161590246,,
237.786777029377,0.00744963043811952,0.0126391734770208,,
238.558812019732,0.000390429093563632,0.0121422475677817,,
239.330847010088,-0.00670895047821286,0.0116676066608172,,
240.102882000443,-0.0138033077715868,0.0112057115894943,,
240.874916990798,-0.0209483830031952,0.0107057137452382,,
241.646951981153,-0.0279475999521823,0.0102629778475758,,
242.418986971508,-0.0350493138223712,0.00973617467561416,,
243.191021961863,-0.0420471160450477,0.00925274237567253,,
243.963056952218,-0.0491068832801278,0.00873258832621548,,
244.735091942573,-0.0560727126881851,0.00824579441317397,,
245.507126932929,-0.0631211621127806,0.00775681780946202,,
246.279161923284,-0.070082464396644,0.00726315246282949,,
247.051196913639,-0.0770833082808882,0.00671742590169355,,
247.823231903994,-0.0839881629849593,0.00624469821741513,,
248.595266894349,-0.0909409061746437,0.00570409154797469,,
249.367301884704,-0.0979234293531659,0.00522583977002489,,
250.139336875059,-0.104850283051367,0.00471614107834606,,
250.911371865414,-0.111676832654147,0.00417604639807534,,
251.68340685577,-0.118471763123885,0.0036665632807833,,
252.455441846125,-0.125276596677798,0.00314635533772956,,
253.22747683648,-0.132208472654401,0.0025949901590292,,
253.999511826835,-0.138803007142246,0.00209567272143252,,
254.77154681719,-0.145588388209388,0.00156554835656841,,
255.543581807545,-0.15230352811521,0.00105054114560499,,
256.3156167979,-0.158951044103385,0.000501493391567021,,
257.087651788255,-0.165637889482995,1.88560221778822E-05,,
257.85968677861,-0.172067537619341,-0.000530346675950977,,
258.631721768966,-0.178693054613387,-0.00105068935299668,,
259.403756759321,-0.185094620432468,-0.00161129054684794,,
260.175791749676,-0.191452683417498,-0.00213457042491871,,
260.947826740031,-0.198013901100728,-0.00266579960851709,,
261.719861730386,-0.204267557284037,-0.00319675932413155,,
262.491896720741,-0.210591100947089,-0.00371634749082217,,
263.263931711096,-0.216809388972633,-0.00425027135426026,,
264.035966701451,-0.22320847902067,-0.00480011740720077,,
264.808001691807,-0.229230615243252,-0.0053023282572755,,
265.580036682162,-0.235237118740101,-0.00584587212774101,,
266.352071672517,-0.241093731984345,-0.00634481904685957,,
267.124106662872,-0.247267809812683,-0.00689480320214209,,
267.896141653227,-0.253147483095789,-0.00741786750582607,,
268.668176643582,-0.259081411132906,-0.00794758766871428,,
269.440211633937,-0.264888862637856,-0.00846758340573084,,
