Time domain (s),Current (AC) (A),Potential (AC) (V),Frequency (Hz),Column 5
0,0.363124160354996,0.0134637676191489,1.2589,0.4
0.00193931706251489,0.364273591990311,0.0135634690785653,,
0.00387863412502979,0.365671663713576,0.0136787763760085,,
0.00581795118754468,0.366936720040074,0.01376361056849,,
0.00775726825005958,0.368222457205645,0.0138653473268686,,
0.00969658531257447,0.368896934570878,0.0139872679364523,,
0.0116359023750894,0.37016504602133,0.0140709801774284,,
0.0135752194376043,0.371089808541257,0.0141677442663202,,
0.0155145365001192,0.371411536594568,0.0142600036353482,,
0.017453853562634,0.372293762388675,0.0143418891814107,,
0.0193931706251489,0.372862250453657,0.0144350055184228,,
0.0213324876876638,0.373172698049292,0.0144998870155368,,
0.0232718047501787,0.373526857418423,0.0145988668177033,,
0.0252111218126936,0.373945409400123,0.0146206067423535,,
0.0271504388752085,0.374106860950616,0.0147435816480757,,
0.0290897559377234,0.374399917840667,0.0147807018928616,,
0.0310290730002383,0.374322364694142,0.0148448391809368,,
0.0329683900627532,0.374109211045965,0.0149036260570585,,
0.0349077071252681,0.374216375393891,0.0149573275047481,,
0.036847024187783,0.373963975153382,0.0150277511040229,,
0.0387863412502979,0.37372144531334,0.0150743487381595,,
0.0407256583128128,0.373095614921836,0.015085438580428,,
0.0426649753753277,0.372802323022251,0.015157113803995,,
0.0446042924378426,0.372385416107295,0.0151564598021126,,
0.0465436095003575,0.371422347033175,0.0152269059531762,,
0.0484829265628724,0.370646345548855,0.0152323183825493,,
0.0504222436253872,0.369815351833362,0.0152733400868423,,
0.0523615606879021,0.369001513813919,0.015282817476193,,
0.054300877750417,0.368202951414246,0.0153214937944242,,
0.0562401948129319,0.367211211176866,0.0153267709130631,,
0.0581795118754468,0.365827475035231,0.0153595837661396,,
0.0601188289379617,0.364435513559874,0.0153278477609904,,
0.0620581460004766,0.363298772439445,0.0153183816475342,,
0.0639974630629915,0.361739719184757,0.0153505010330974,,
0.0659367801255064,0.360224847722634,0.0153430927703924,,
0.0678760971880213,0.358703866012604,0.0153420102845176,,
0.0698154142505362,0.356857161087168,0.0153515327774465,,
0.0717547313130511,0.355293407641782,0.0153191878739931,,
0.073694048375566,0.353409571209828,0.0153048449361535,,
0.0756333654380809,0.351501293786242,0.0152777884272335,,
0.0775726825005958,0.349426864621465,0.0152736107083111,,
0.0795119995631107,0.347384161743902,0.0152245380153251,,
0.0814513166256256,0.345371775096345,0.0152084191240975,,
0.0833906336881405,0.342862108272888,0.0151993984084751,,
0.0853299507506553,0.340518358181087,0.0151112829306861,,
0.0872692678131702,0.338140531706723,0.0150867071185621,,
0.0892085848756851,0.335709123058395,0.0150445296350803,,
0.0911479019382,0.332888773629768,0.0149651529755506,,
0.0930872190007149,0.330446554542834,0.014915127469477,,
0.0950265360632298,0.327504000156046,0.014894921066483,,
0.0969658531257447,0.324823011381629,0.0148357959135255,,
0.0989051701882596,0.322019817649052,0.0147568646518295,,
0.100844487250774,0.319037076631792,0.0146837686655519,,
0.102783804313289,0.315877373434734,0.0146354007159739,,
0.104723121375804,0.312796868450945,0.0145575293883637,,
0.106662438438319,0.309734694210881,0.0144919262339998,,
0.108601755500834,0.306564180575216,0.0143387319309425,,
0.110541072563349,0.303140091651369,0.014289726893324,,
0.112480389625864,0.299762299605901,0.0142177415826574,,
0.114419706688379,0.296257367402039,0.0141396221853674,,
0.116359023750894,0.292622944944434,0.0140659511284689,,
0.118298340813409,0.289044689765676,0.0139354213734126,,
0.120237657875923,0.285399221859929,0.0138664974681104,,
0.122176974938438,0.28160428788997,0.0137295855567516,,
0.124116292000953,0.277771987403959,0.0136256218092035,,
0.126055609063468,0.273897855220731,0.0135219061313352,,
0.127994926125983,0.270000457093545,0.0134066439374703,,
0.129934243188498,0.266068747574261,0.0133225257642913,,
0.131873560251013,0.261806379639338,0.0131628816495639,,
0.133812877313528,0.257897936064011,0.0130784928549166,,
0.135752194376043,0.253707481046775,0.0129345673371613,,
0.137691511438557,0.249261805674611,0.012824700658828,,
0.139630828501072,0.245127047917152,0.0126749511415487,,
0.141570145563587,0.240847729919522,0.0125157185969718,,
0.143509462626102,0.236141928368389,0.0124074418197671,,
0.145448779688617,0.231722809073671,0.0122570834041835,,
0.147388096751132,0.227263297515138,0.0121383933383816,,
0.149327413813647,0.222585432722469,0.011990521257542,,
0.151266730876162,0.217945610098266,0.0118470749653041,,
0.153206047938677,0.213423821012978,0.0116794475172508,,
0.155145365001192,0.208539118453383,0.0115458789086196,,
0.157084682063706,0.203660085498819,0.0113787870655564,,
0.159023999126221,0.198824999327285,0.0112175868773843,,
0.160963316188736,0.194024665190728,0.0110515211407236,,
0.162902633251251,0.188991495357445,0.0109014333466089,,
0.164841950313766,0.184203881111966,0.0107057740247591,,
0.166781267376281,0.179016486271389,0.0105411234128612,,
0.168720584438796,0.173983081428571,0.0103807350890954,,
0.170659901501311,0.168935811023193,0.0102197604188135,,
0.172599218563826,0.163668512940741,0.010045435089411,,
0.17453853562634,0.158652704436851,0.0098473627261324,,
0.176477852688855,0.153345954128724,0.00965569507094566,,
0.17841716975137,0.1480446090399,0.00946732561490826,,
0.180356486813885,0.142692266881998,0.00929285933682378,,
0.1822958038764,0.137415127775272,0.00914381456295299,,
0.184235120938915,0.132117983481885,0.00896707619212123,,
0.18617443800143,0.126548521889904,0.00875021818855881,,
0.188113755063945,0.121105025408643,0.00856527096651094,,
0.19005307212646,0.115819161572933,0.00838104540171258,,
0.191992389188975,0.110243560356853,0.00815703848101945,,
0.193931706251489,0.104698510380312,0.00796735538326976,,
0.195871023314004,0.0991692060426122,0.00774246894280362,,
0.197810340376519,0.0936297669187183,0.00754617817086034,,
0.199749657439034,0.0880744058988333,0.00736251640078844,,
0.201688974501549,0.082473893672051,0.00716090340662801,,
0.203628291564064,0.0767302606384998,0.00695054031831388,,
0.205567608626579,0.0710996378150553,0.00674516681332848,,
0.207506925689094,0.0654791791539962,0.00651076351788049,,
0.209446242751609,0.0598636263169787,0.00630506301195366,,
0.211385559814123,0.0541232834169164,0.00609891147024566,,
0.213324876876638,0.0484433379673297,0.00584663024402365,,
0.215264193939153,0.0427605724033238,0.00565922487696868,,
0.217203511001668,0.0370139136220104,0.00544087845532859,,
0.219142828064183,0.0312307696104,0.00521355642164423,,
0.221082145126698,0.025542804460434,0.0050084253483913,,
0.223021462189213,0.0198370667143893,0.00476614584061563,,
0.224960779251728,0.014022431425099,0.00455434507574903,,
0.226900096314243,0.00822122105549128,0.00430519291025844,,
0.228839413376758,0.00250202901357215,0.00409586720424127,,
0.230778730439272,-0.00324207403904895,0.00387292585558097,,
0.232718047501787,-0.00904821960889008,0.00367491550972199,,
0.234657364564302,-0.0148329793110531,0.00343726475665029,,
0.236596681626817,-0.0205676819822772,0.00322324827850906,,
0.238535998689332,-0.0263613720467674,0.00298180882487564,,
0.240475315751847,-0.0319884403509961,0.00274918712076344,,
0.242414632814362,-0.0378371226466586,0.00250619159368526,,
0.244353949876877,-0.0434999711525796,0.00229517450348826,,
0.246293266939392,-0.049223040851825,0.00205019441897347,,
0.248232584001906,-0.0549233146261827,0.0018273320015747,,
0.250171901064421,-0.0606466780873467,0.00159530228192528,,
0.252111218126936,-0.0663373752231562,0.00136807045539733,,
0.254050535189451,-0.071969907499072,0.00113251701870754,,
0.255989852251966,-0.0776611334063351,0.000882936369225096,,
0.257929169314481,-0.0833123489402774,0.000653088535166546,,
0.259868486376996,-0.0889455862447979,0.00041449060695431,,
0.261807803439511,-0.0944198983513259,0.000181705402371168,,
0.263747120502026,-0.0999849241383346,-3.54401365014745E-05,,
0.265686437564541,-0.105558175259066,-0.000308722716281906,,
0.267625754627055,-0.111116855788631,-0.000510741642645307,,
0.26956507168957,-0.116576362294459,-0.000752474269536396,,
0.271504388752085,-0.122022943275866,-0.000982051482126156,,
0.2734437058146,-0.127364004976092,-0.00121469573802768,,
0.275383022877115,-0.132848657502156,-0.00146141231030006,,
0.27732233993963,-0.138208519965176,-0.00168435929690736,,
0.279261657002145,-0.143418916363984,-0.00190403345512813,,
0.28120097406466,-0.148846050306376,-0.00214033391983026,,
0.283140291127175,-0.154083414049317,-0.00237327134898946,,
0.285079608189689,-0.159378355128313,-0.00260108670305925,,
0.287018925252204,-0.164587400222296,-0.00283233556701301,,
0.288958242314719,-0.169663136157592,-0.0030889749264702,,
0.290897559377234,-0.174610321877284,-0.003304186649431,,
0.292836876439749,-0.179649455077516,-0.00352812873373054,,
0.294776193502264,-0.184811850778816,-0.0037335304284527,,
0.296715510564779,-0.189679838285239,-0.00398125901225876,,
0.298654827627294,-0.194671205797497,-0.00417010487484015,,
0.300594144689809,-0.199581025001137,-0.00442151503820964,,
0.302533461752323,-0.204396840390807,-0.0046425225709581,,
0.304472778814838,-0.209308833432644,-0.0048781662148043,,
0.306412095877353,-0.214003148892758,-0.00509139619930199,,
0.308351412939868,-0.218744642517009,-0.00531560326712288,,
0.310290730002383,-0.223242431253542,-0.00554716503714969,,
0.312230047064898,-0.22796594664837,-0.00574476381285827,,
0.314169364127413,-0.232421257411466,-0.00597921221188402,,
0.316108681189928,-0.237005353399701,-0.00615213933036518,,
0.318047998252443,-0.241421887589534,-0.0063885018124874,,
0.319987315314958,-0.245609522492351,-0.00658154794578003,,
0.321926632377472,-0.249957610155138,-0.00683065500769242,,
0.323865949439987,-0.254317095780369,-0.00700969366100779,,
0.325805266502502,-0.258562308019242,-0.00721823005440836,,
0.327744583565017,-0.262609877239244,-0.00744877981290148,,
0.329683900627532,-0.266612324628541,-0.00764337638169188,,
0.331623217690047,-0.270648202124181,-0.0078280078786932,,
0.333562534752562,-0.274891475534391,-0.00804324497241682,,
0.335501851815077,-0.278757147374362,-0.00825121757109137,,
0.337441168877592,-0.28252247014292,-0.00843246348076043,,
0.339380485940107,-0.286175458353784,-0.00863028777435959,,
0.341319803002621,-0.289701071396719,-0.008828475715557,,
0.343259120065136,-0.293554522740874,-0.00901804323538791,,
0.345198437127651,-0.29690787379471,-0.00922511376250013,,
0.347137754190166,-0.300503989698122,-0.00941689699560566,,
0.349077071252681,-0.303931368755459,-0.00956956978854118,,
0.351016388315196,-0.307354517641167,-0.00976940119136582,,
0.352955705377711,-0.310333733515403,-0.00992800792379667,,
0.354895022440226,-0.313714110665755,-0.0101146211592611,,
0.356834339502741,-0.31666071896702,-0.0102806953528432,,
0.358773656565255,-0.319826532411986,-0.0104717090061475,,
0.36071297362777,-0.32261439177241,-0.0106474550982605,,
0.362652290690285,-0.325732733291321,-0.0108214647026164,,
0.3645916077528,-0.32861183510368,-0.0109457729828666,,
0.366530924815315,-0.331114451641089,-0.0111144575460318,,
0.36847024187783,-0.333901958487211,-0.0112964504837136,,
0.370409558940345,-0.33643906267387,-0.0114469583048993,,
0.37234887600286,-0.339032157882226,-0.0116067179975454,,
0.374288193065375,-0.341450405996597,-0.0117602731292279,,
0.376227510127889,-0.343717014208559,-0.0119569247297959,,
0.378166827190404,-0.345842969213868,-0.012068488430256,,
0.380106144252919,-0.348470610823858,-0.0122338832511923,,
0.382045461315434,-0.350224016963928,-0.0123588427143515,,
0.383984778377949,-0.352177886237289,-0.0124603032133144,,
0.385924095440464,-0.354366765045575,-0.0126396801434656,,
0.387863412502979,-0.356009951713766,-0.0127378480812261,,
0.389802729565494,-0.357368306825629,-0.0128823599454968,,
0.391742046628009,-0.35954138124269,-0.0130048161600711,,
0.393681363690524,-0.360990685044569,-0.0131419986928982,,
0.395620680753038,-0.362608079416302,-0.0132663943613314,,
0.397559997815553,-0.36374323422237,-0.0133661634761149,,
0.399499314878068,-0.365184723957213,-0.0134753817905131,,
0.401438631940583,-0.366619222158391,-0.0135962819316422,,
0.403377949003098,-0.367814245643481,-0.0137083417714612,,
0.405317266065613,-0.368701406637821,-0.0138116289653376,,
0.407256583128128,-0.369974923307576,-0.0139307052305266,,
0.409195900190643,-0.370875009826336,-0.0140374428481289,,
0.411135217253158,-0.371401196175032,-0.0141061327786196,,
0.413074534315672,-0.372230309814245,-0.0142128929480108,,
0.415013851378187,-0.372661082291761,-0.0142863215731768,,
0.416953168440702,-0.373278922359077,-0.0143764385222447,,
0.418892485503217,-0.373928253704073,-0.0144552570249954,,
0.420831802565732,-0.374500266912079,-0.0145476968083358,,
0.422771119628247,-0.374412608355553,-0.0145814793883416,,
0.424710436690762,-0.374695559835601,-0.0146830751980387,,
0.426649753753277,-0.375078390367993,-0.01476627156684,,
0.428589070815792,-0.374766943981835,-0.0148199194540304,,
0.430528387878307,-0.374725171037002,-0.0148852294351363,,
0.432467704940821,-0.3747667089723,-0.0149324528814199,,
0.434407022003336,-0.37471459560793,-0.0149727303766736,,
0.436346339065851,-0.374239641337848,-0.0150370706308505,,
0.438285656128366,-0.373700529464732,-0.0150819712428607,,
0.440224973190881,-0.373203484298367,-0.0151509797173719,,
0.442164290253396,-0.372681763130835,-0.0151484990205759,,
0.444103607315911,-0.372063218034914,-0.0152131549997994,,
0.446042924378426,-0.371166891668712,-0.0152212933766749,,
0.447982241440941,-0.370609625309023,-0.0152898310825895,,
0.449921558503455,-0.369382464270032,-0.0153067195536192,,
0.45186087556597,-0.368676260617584,-0.0153168227551159,,
0.453800192628485,-0.367392168518757,-0.0153383174290602,,
0.455739509691,-0.366035282216488,-0.0153600348019212,,
0.457678826753515,-0.364954884632057,-0.0153682690239001,,
0.45961814381603,-0.363267104904614,-0.0153669582011613,,
0.461557460878545,-0.361996408349278,-0.0153792968487485,,
0.46349677794106,-0.360301402078636,-0.0153878637096159,,
0.465436095003575,-0.358963551548695,-0.0153916975137558,,
0.46737541206609,-0.357055744144179,-0.0153431012273137,,
0.469314729128604,-0.355263091411776,-0.0153511042934547,,
0.471254046191119,-0.353373144731915,-0.0153288033930523,,
0.473193363253634,-0.351832657230485,-0.0153313263744526,,
0.475132680316149,-0.349307068511037,-0.015311706317974,,
0.477071997378664,-0.347452549518565,-0.0152873052822153,,
0.479011314441179,-0.34486386073899,-0.015257511549899,,
0.480950631503694,-0.3426522447582,-0.0152088476080898,,
0.482889948566209,-0.34007513019822,-0.0151865410697396,,
0.484829265628724,-0.338207509424176,-0.0151619821714579,,
0.486768582691238,-0.335597023510236,-0.0151133407814377,,
0.488707899753753,-0.332806050273475,-0.0150656437475845,,
0.490647216816268,-0.3301534389004,-0.0150223668643856,,
0.492586533878783,-0.327430442171615,-0.0149459162994861,,
0.494525850941298,-0.324489767861107,-0.0149073752919895,,
0.496465168003813,-0.321590925247815,-0.0148594301884564,,
0.498404485066328,-0.318499903587338,-0.0147713203486148,,
0.500343802128843,-0.315656405719521,-0.0147104981735309,,
0.502283119191358,-0.312418268090182,-0.0146527881453364,,
0.504222436253873,-0.309251749616611,-0.0145624907819562,,
0.506161753316387,-0.305739767126702,-0.0144749419178676,,
0.508101070378902,-0.302703443935479,-0.0143993511399252,,
0.510040387441417,-0.299007683989259,-0.0143224720910338,,
0.511979704503932,-0.295516617347957,-0.0142363693604177,,
0.513919021566447,-0.291755054731958,-0.014144944407585,,
0.515858338628962,-0.288173744429246,-0.0140331129046301,,
0.517797655691477,-0.284471169206513,-0.0139496684661493,,
0.519736972753992,-0.281031510900976,-0.0138427250634723,,
0.521676289816506,-0.276772021832856,-0.01374850650777,,
0.523615606879021,-0.273044065580351,-0.0136500453967514,,
0.525554923941536,-0.269072874459199,-0.0135029175249501,,
0.527494241004051,-0.265105443490606,-0.0134049751050802,,
0.529433558066566,-0.260965985542448,-0.0132831277888106,,
0.531372875129081,-0.256814307098475,-0.0131848470921048,,
0.533312192191596,-0.252822376385866,-0.0130447074559372,,
0.535251509254111,-0.248631686359095,-0.0129083170547002,,
0.537190826316626,-0.243846715970884,-0.0127880032600869,,
0.539130143379141,-0.239707963051331,-0.0126470094749087,,
0.541069460441655,-0.235133032434958,-0.0125167728931106,,
0.54300877750417,-0.230667851271396,-0.0123600830627497,,
0.544948094566685,-0.226080700159207,-0.0122412576862136,,
0.5468874116292,-0.221305776428614,-0.0120836657842904,,
0.548826728691715,-0.216759281965968,-0.0119357937034503,,
0.55076604575423,-0.212189051540294,-0.0117842259481789,,
0.552705362816745,-0.207460365935697,-0.0116398268428535,,
0.55464467987926,-0.20241547500186,-0.0114671421561043,,
0.556583996941775,-0.197609353755505,-0.0113083578283351,,
0.55852331400429,-0.19257568452696,-0.0111717841938122,,
0.560462631066804,-0.187758400327697,-0.0109790368717242,,
0.562401948129319,-0.182638012580765,-0.0108151953052591,,
0.564341265191834,-0.177815675676501,-0.0106711119249803,,
0.566280582254349,-0.172793933181854,-0.0105062132434028,,
0.568219899316864,-0.167529543342397,-0.0102983083000958,,
0.570159216379379,-0.162301932495156,-0.0101368797750596,,
0.572098533441894,-0.157118562192865,-0.00995089798968873,,
0.574037850504409,-0.15181909718032,-0.00979247167157027,,
0.575977167566924,-0.146760340683922,-0.0095716924756859,,
0.577916484629438,-0.141453707880563,-0.00939817619171546,,
0.579855801691953,-0.136010710794564,-0.00920044210527271,,
0.581795118754468,-0.130627288625668,-0.00901479859673771,,
0.583734435816983,-0.125205442397812,-0.00880682599806359,,
0.585673752879498,-0.11992947833876,-0.00862825529437083,,
0.587613069942013,-0.114254233079872,-0.00842114248265435,,
0.589552387004528,-0.108786031221252,-0.00823080538302179,,
0.591491704067043,-0.103288218161231,-0.00801133419090272,,
0.593431021129558,-0.0977354128700387,-0.00783880736667752,,
0.595370338192073,-0.0921569915395392,-0.00762709398999339,,
0.597309655254587,-0.0866063600865446,-0.00739835119359888,,
0.599248972317102,-0.0809134303601533,-0.00720591959655748,,
0.601188289379617,-0.0753009326470898,-0.00696885237102762,,
0.603127606442132,-0.0696083554350009,-0.00677650816216913,,
0.605066923504647,-0.0639878086453663,-0.00657146729607216,,
0.607006240567162,-0.0582791920325187,-0.00636784437371229,,
0.608945557629677,-0.0526257439079947,-0.00613592459403423,,
0.610884874692192,-0.0469341067340455,-0.00591254912343464,,
0.612824191754707,-0.0412466997317249,-0.00569401946850867,,
0.614763508817221,-0.035462116286713,-0.0054806147076456,,
0.616702825879736,-0.0297440992924685,-0.00523455495622915,,
0.618642142942251,-0.0240362464606095,-0.00500682417136833,,
0.620581460004766,-0.0182248719286163,-0.00478011103598863,,
0.622520777067281,-0.0124955744766955,-0.00457419065011866,,
0.624460094129796,-0.00667697340150333,-0.00435737775013445,,
0.626399411192311,-0.000947910959117389,-0.00411672760911808,,
0.628338728254826,0.00485285876761235,-0.00388669654177365,,
0.630278045317341,0.0105905578104068,-0.00365644559448564,,
0.632217362379855,0.0164066031569066,-0.00343978773805098,,
0.63415667944237,0.0221053493692873,-0.00318112153655292,,
0.636095996504885,0.0278461622884194,-0.00295375439929035,,
0.6380353135674,0.0335749603450786,-0.00271319446543039,,
0.639974630629915,0.0393296682029632,-0.00245626193271553,,
0.64191394769243,0.0450141082099053,-0.00223778020034127,,
0.643853264754945,0.0506937892737653,-0.00201406645290581,,
0.64579258181746,0.0564277869163847,-0.00177348396725652,,
0.647731898879975,0.0621366385387671,-0.00153921598254314,,
0.64967121594249,0.0677855921059357,-0.001308263110821,,
0.651610533005004,0.0734695327176162,-0.00108714281912725,,
0.653549850067519,0.0790606151868097,-0.000834201953075375,,
0.655489167130034,0.0848228139736199,-0.000588548133862332,,
