Time domain (s),Current (AC) (A),Potential (AC) (V),Frequency (Hz),Column 5
0,0.044743054087562,0.0117723214225309,0.0039811,0.4
0.613249164803698,0.038986260520055,0.0113929326752422,,
1.2264983296074,0.0332174520900749,0.0110245040974348,,
1.83974749441109,0.0275450856979895,0.0106491070168087,,
2.45299665921479,0.021777687325219,0.0102476175162454,,
3.06624582401849,0.0160371094156218,0.00990791427974802,,
3.67949498882219,0.010267595957037,0.0095063627617642,,
4.29274415362588,0.00451036174665197,0.00913534072821554,,
4.90599331842958,-0.00128426835597787,0.00872305455864142,,
5.51924248323328,-0.00704200196162459,0.00836391167997741,,
6.13249164803698,-0.0128012043768646,0.00797270579522369,,
6.74574081284067,-0.018557469172918,0.00758567762939188,,
7.35898997764437,-0.0242922305965259,0.00717861783693152,,
7.97223914244807,-0.0300752864795607,0.00678643094935349,,
8.58548830725177,-0.0357901895974674,0.00636557509993851,,
9.19873747205546,-0.0415698378422459,0.00597538404569198,,
9.81198663685916,-0.047261063749509,0.00557418208043892,,
10.4252358016629,-0.0529440643230497,0.00515950542122479,,
11.0384849664666,-0.0586715404510749,0.00476793870784586,,
11.6517341312703,-0.0643286312233903,0.00434358733112683,,
12.264983296074,-0.070035896531412,0.00393879963141375,,
12.8782324608776,-0.0756899321797734,0.00355785481068027,,
13.4914816256813,-0.0812476726711995,0.00312253762653247,,
14.104730790485,-0.0869088173579923,0.00268954891460504,,
14.7179799552887,-0.0925730171687391,0.00229808368427697,,
15.3312291200924,-0.0980251796266004,0.00186662849400498,,
15.9444782848961,-0.103637266072978,0.00142589888048406,,
16.5577274496998,-0.109089722292758,0.00103123693405749,,
17.1709766145035,-0.114648402822324,0.000621251046966975,,
17.7842257793072,-0.120088168527218,0.000185753448506798,,
18.3974749441109,-0.125586216596773,-0.000239415430565604,,
19.0107241089146,-0.130940850097641,-0.000642300323076661,,
19.6239732737183,-0.136213112756517,-0.00105028755786218,,
20.237222438522,-0.141624912326755,-0.00152421340487363,,
20.8504716033257,-0.147064443022114,-0.00192552249112454,,
21.4637207681294,-0.152293405174181,-0.00234613872778144,,
22.0769699329331,-0.157432064912454,-0.0027493844489177,,
22.6902190977368,-0.162772010317389,-0.00319771683432402,,
23.3034682625405,-0.167866840777397,-0.00361376915267053,,
23.9167174273442,-0.172907031520536,-0.00405441137800899,,
24.5299665921479,-0.17809516076591,-0.00445238279947979,,
25.1432157569516,-0.183063203581827,-0.00488185907026173,,
25.7564649217553,-0.187985008271748,-0.00530802022805243,,
26.369714086559,-0.19303800703454,-0.00572635591504111,,
26.9829632513627,-0.198019680403483,-0.00614627022726344,,
27.5962124161664,-0.202713760854062,-0.00655384589189856,,
28.2094615809701,-0.207594438875371,-0.00697816062196033,,
28.8227107457738,-0.212358845929276,-0.00741226000949879,,
29.4359599105775,-0.217150161574931,-0.00779532469840349,,
30.0492090753812,-0.221668689902921,-0.00822486862455296,,
30.6624582401849,-0.226242680481154,-0.00862971834168569,,
31.2757074049886,-0.230778834524264,-0.009034793576709,,
31.8889565697923,-0.235313754767315,-0.00943756571027521,,
32.502205734596,-0.239896969469794,-0.00984424494129543,,
33.1154548993997,-0.244138421556109,-0.0102497261085217,,
33.7287040642034,-0.248487449257035,-0.0106662802041746,,
34.3419532290071,-0.252970256135717,-0.0110747156557678,,
34.9552023938108,-0.257122698360679,-0.0114593335991438,,
35.5684515586145,-0.261312448349311,-0.0118357511482241,,
36.1817007234182,-0.26513558346346,-0.0122128339750822,,
36.7949498882219,-0.269264465982546,-0.0126280180495497,,
37.4081990530255,-0.273419023293323,-0.0130401942791525,,
38.0214482178292,-0.277245389788577,-0.0134187260584571,,
38.6346973826329,-0.281040735025222,-0.0137896804366386,,
39.2479465474366,-0.284683382816549,-0.0141838406057588,,
39.8611957122403,-0.288379201515154,-0.0145432935715224,,
40.474444877044,-0.292139589083478,-0.0149158744974898,,
41.0876940418477,-0.295699513518512,-0.0152674315181098,,
41.7009432066514,-0.299301680917449,-0.0156853189882904,,
42.3141923714551,-0.302830407836722,-0.016021628180535,,
42.9274415362588,-0.306033822807276,-0.0163882554341916,,
43.5406907010625,-0.309199401242707,-0.016735936366068,,
44.1539398658662,-0.312195302793923,-0.0170935400851286,,
44.7671890306699,-0.315656523224289,-0.0174338240301939,,
45.3804381954736,-0.318866283452285,-0.0177592266134563,,
45.9936873602773,-0.321985329999801,-0.0181041759598828,,
46.606936525081,-0.324802624304475,-0.0184416663020794,,
47.2201856898847,-0.327615688437519,-0.0187828946033117,,
47.8334348546884,-0.330321588222638,-0.0191440840568324,,
48.4466840194921,-0.333092115629861,-0.0194269736987502,,
49.0599331842958,-0.335513888887257,-0.0197364518999654,,
49.6731823490995,-0.338030841006297,-0.0200323341913538,,
50.2864315139032,-0.340405847366242,-0.0203522059483499,,
50.8996806787069,-0.343091066312288,-0.0206550088200048,,
51.5129298435106,-0.345203508269339,-0.0209726958724361,,
52.1261790083143,-0.347237868308412,-0.021243675350759,,
52.739428173118,-0.349581383390678,-0.0215380466722803,,
53.3526773379217,-0.351333614483074,-0.0218281726195122,,
53.9659265027254,-0.353436891068263,-0.0220549759620479,,
54.5791756675291,-0.355181366846006,-0.0223574208240511,,
55.1924248323328,-0.357187173226586,-0.0226505715299901,,
55.8056739971365,-0.358583364873571,-0.0228709025090668,,
56.4189231619402,-0.360446755475987,-0.0231404189400748,,
57.0321723267439,-0.361833487989191,-0.0234055828757951,,
57.6454214915476,-0.363281440486244,-0.0236276954462076,,
58.2586706563513,-0.364864288456343,-0.0238826208696961,,
58.871919821155,-0.366012075024914,-0.0241234063214466,,
59.4851689859587,-0.367482470932552,-0.0243067072628937,,
60.0984181507624,-0.368485491627609,-0.0245646320743269,,
60.7116673155661,-0.369418244471724,-0.0247593216692472,,
61.3249164803698,-0.3704092796805,-0.0250097592867138,,
61.9381656451734,-0.37138715435532,-0.0251782888063294,,
62.5514148099771,-0.372133309628705,-0.0253708359812892,,
63.1646639747808,-0.372670071406472,-0.0255210534481911,,
63.7779131395845,-0.373360705677231,-0.0257419707737836,,
64.3911623043882,-0.373847939195513,-0.0259319019412128,,
65.0044114691919,-0.374002105450423,-0.0261133085323793,,
65.6176606339956,-0.374416897279565,-0.026247514229051,,
66.2309097987993,-0.374609135079133,-0.0264454738333848,,
66.844158963603,-0.374805544297946,-0.026546415641199,,
67.4574081284067,-0.374841324499638,-0.0267254768463037,,
68.0706572932104,-0.374659427119607,-0.0268430618744415,,
68.6839064580141,-0.375141196666202,-0.0269353437952584,,
69.2971556228178,-0.374540982314005,-0.027104369454233,,
69.9104047876215,-0.374166142105801,-0.027195275715918,,
70.5236539524252,-0.37393418769483,-0.0273373294351815,,
71.1369031172289,-0.373431032280557,-0.0274090892279575,,
71.7501522820326,-0.372707437922525,-0.0275516165347911,,
72.3634014468363,-0.372198407269879,-0.0276170843784209,,
72.97665061164,-0.371572576878375,-0.027662323267267,,
73.5898997764437,-0.370584361784018,-0.0277641220430658,,
74.2031489412474,-0.369857007273428,-0.0278080754799359,,
74.8163981060511,-0.368579730451114,-0.0279034695476428,,
75.4296472708548,-0.367861541312385,-0.0279547297641667,,
76.0428964356585,-0.366637141635429,-0.0279814761859871,,
76.6561456004622,-0.365185487738201,-0.0280398627678533,,
77.2693947652659,-0.363765795137723,-0.0280873342838159,,
77.8826439300696,-0.362336760908232,-0.0281585302818659,,
78.4958930948733,-0.360894213630483,-0.0281169222310576,,
79.109142259677,-0.359182874197163,-0.0281489232197281,,
79.7223914244807,-0.357438163409885,-0.028145021760221,,
80.3356405892844,-0.35596136349242,-0.0281484721839469,,
80.9488897540881,-0.353793400532743,-0.0281299120615537,,
81.5621389188918,-0.352042344488022,-0.0281440069297139,,
82.1753880836955,-0.349859164660958,-0.0280682329184856,,
82.7886372484992,-0.347983024791273,-0.028062662626589,,
83.4018864133029,-0.346079153796467,-0.0280258806586384,,
84.0151355781066,-0.343514259732303,-0.0279840921935177,,
84.6283847429103,-0.340975980497969,-0.0279333281163527,,
85.2416339077139,-0.339018116062514,-0.0278741071182917,,
85.8548830725177,-0.336613263491633,-0.027791702881081,,
86.4681322373214,-0.33369990903956,-0.0277416153575878,,
87.081381402125,-0.331120620641381,-0.0276573393218857,,
87.6946305669287,-0.328274890182982,-0.0275797386157439,,
88.3078797317324,-0.32535936189271,-0.0274576432297948,,
88.9211288965361,-0.322768851789239,-0.0274031355556468,,
89.5343780613398,-0.319949207389217,-0.027293759378725,,
90.1476272261435,-0.316560663657526,-0.0271816769871172,,
90.7608763909472,-0.313391971345757,-0.0270513276463733,,
91.3741255557509,-0.310364108497792,-0.0269173249158028,,
91.9873747205546,-0.307076090094665,-0.0267747976089692,,
92.6006238853583,-0.304078543476705,-0.0266478986919512,,
93.213873050162,-0.300524964299114,-0.0265055517994299,,
93.8271222149657,-0.296831260686324,-0.0263404727035401,,
94.4403713797694,-0.293278445289722,-0.0262156259993263,,
95.0536205445731,-0.289750247141902,-0.0260301826379186,,
95.6668697093768,-0.285980459192181,-0.0258297423367893,,
96.2801188741805,-0.282134058134074,-0.0256783521768567,,
96.8933680389842,-0.278488120209257,-0.025508943137468,,
97.5066172037879,-0.274505942392348,-0.0253233644653261,,
98.1198663685916,-0.270562482396317,-0.0251107913016848,,
98.7331155333953,-0.266716668862047,-0.024918334333881,,
99.346364698199,-0.262467285203929,-0.0247150525073305,,
99.9596138630027,-0.258402560287877,-0.0244840770838191,,
100.572863027806,-0.254263043587336,-0.0242524476584252,,
101.18611219261,-0.249863488836401,-0.0240209309919766,,
101.799361357414,-0.245374571709811,-0.0238485451164325,,
102.412610522217,-0.241368364167955,-0.0235938001072564,,
103.025859687021,-0.236679923946214,-0.0233298765199343,,
103.639108851825,-0.232306866520342,-0.0231145294862385,,
104.252358016629,-0.227764367219789,-0.0228293170100478,,
104.865607181432,-0.223175571040856,-0.0225501935169019,,
105.478856346236,-0.218552228460289,-0.0223075588184485,,
106.09210551104,-0.213736648080154,-0.0220260871202673,,
106.705354675843,-0.209081344202838,-0.0217630233199029,,
107.318603840647,-0.204369873046674,-0.0214947472372931,,
107.931853005451,-0.199285676768121,-0.0211960459722729,,
108.545102170254,-0.194578729545504,-0.020933997002416,,
109.158351335058,-0.18937673473757,-0.0206151400759271,,
109.771600499862,-0.184752922137933,-0.0203286618805754,,
110.384849664666,-0.179564205368722,-0.0199974691254732,,
110.998098829469,-0.174491642062148,-0.0197477954498608,,
111.611347994273,-0.169411499698071,-0.0194074466684016,,
112.224597159077,-0.164373659050282,-0.0191025211096019,,
112.83784632388,-0.159161323822811,-0.0187641315148173,,
113.451095488684,-0.153939881975861,-0.0184694050026182,,
114.064344653488,-0.148650522373319,-0.0181395822687009,,
114.677593818291,-0.143370093133104,-0.0177947428622458,,
115.290842983095,-0.138039371852414,-0.0174532636723601,,
115.904092147899,-0.13275359614528,-0.0171291268082587,,
116.517341312703,-0.127228698236359,-0.0167809694698389,,
117.130590477506,-0.121825829028448,-0.0164511974774468,,
117.74383964231,-0.116391057276171,-0.0160520730957607,,
118.357088807114,-0.110905405959583,-0.0157187604724869,,
118.970337971917,-0.105446663234744,-0.0153573229492867,,
119.583587136721,-0.0998925653911093,-0.0149845193244023,,
120.196836301525,-0.0943210180895064,-0.0146248380217751,,
120.810085466328,-0.08873319637761,-0.0142572015755582,,
121.423334631132,-0.0831723420098462,-0.0138618236098287,,
122.036583795936,-0.0774769446833382,-0.0134985622106885,,
122.64983296074,-0.071801464414915,-0.013150404872269,,
123.263082125543,-0.0661661120245801,-0.0127357000233186,,
123.876331290347,-0.0604489175637078,-0.0123768334040708,,
124.489580455151,-0.0547801938194137,-0.0119826957867395,,
125.102829619954,-0.0490993083316873,-0.0115911516251495,,
125.716078784758,-0.0433683658130219,-0.0111750034616995,,
126.329327949562,-0.0376726747245953,-0.0108106567577111,,
126.942577114365,-0.0318402080868426,-0.0104242572229998,,
127.555826279169,-0.0261581475514415,-0.0100295980955463,,
128.169075443973,-0.0204255599660317,-0.00962089202248517,,
128.782324608776,-0.0146732315796883,-0.00917668943344951,,
129.39557377358,-0.00891743680270468,-0.00878505224572956,,
130.008822938384,-0.00313943362467074,-0.00838654240029513,,
130.622072103188,0.00266765198331009,-0.00799813293738394,,
131.235321267991,0.00836240303359708,-0.00757921090388036,,
131.848570432795,0.0141871143566972,-0.00713654183650014,,
132.461819597599,0.0199345369189991,-0.00676860939805213,,
133.075068762402,0.0257145376780799,-0.00634731660772392,,
133.688317927206,0.0312901682703522,-0.0059220603404686,,
134.30156709201,0.0371195797841508,-0.00551628599998466,,
134.914816256813,0.0428608627223528,-0.0050646638723495,,
135.528065421617,0.0485302033666761,-0.00466037794994323,,
136.141314586421,0.0541828877102116,-0.00424210991832208,,
136.754563751225,0.0599387706157708,-0.00380916067202541,,
137.367812916028,0.0656010903502382,-0.00340929490027353,,
137.981062080832,0.0712995721768921,-0.00299382610946886,,
138.594311245636,0.0768601621589292,-0.00254745572971027,,
139.207560410439,0.0825713638766609,-0.00212122409757898,,
139.820809575243,0.0881901774709754,-0.00170356778323555,,
140.434058740047,0.0936849647832337,-0.00129786109811869,,
141.04730790485,0.0992276940406165,-0.000897050970200652,,
141.660557069654,0.104743837844361,-0.00044062249252308,,
142.273806234458,0.11042680904171,-1.89716925431682E-05,,
142.887055399262,0.115876445147071,0.00040872298690342,,
143.500304564065,0.121362037711275,0.00081115402465981,,
144.113553728869,0.126719785088481,0.00124305461276553,,
144.726802893673,0.132139780616249,0.00163937975363515,,
145.340052058476,0.137448910395917,0.00207144384221136,,
145.95330122328,0.142732864779156,0.00250680612993737,,
146.566550388084,0.148150304578233,0.00290137223126052,,
147.179799552887,0.153272807410979,0.00331828715553861,,
147.793048717691,0.158641365226791,0.00373073682558323,,
148.406297882495,0.163788074041634,0.00413062514912399,,
149.019547047298,0.168925617484615,0.00456628624805422,,
149.632796212102,0.173986782828746,0.00496916832159222,,
150.246045376906,0.179084374650791,0.00538095835180696,,
150.85929454171,0.184150005176085,0.00578301728504416,,
151.472543706513,0.189174039013698,0.00619734439152797,,
152.085792871317,0.194139555477115,0.00661373498671036,,
152.699042036121,0.198866302253048,0.00699844595621624,,
153.312291200924,0.203917597196712,0.0073947316314551,,
153.925540365728,0.208657504506602,0.00781089670874691,,
154.538789530532,0.213392006597188,0.00820852985338183,,
155.152038695335,0.217956831803558,0.00859038238362508,,
155.765287860139,0.222728465400662,0.00899437513277368,,
156.378537024943,0.227208481541117,0.0093842673758151,,
156.991786189747,0.231922978445043,0.00977161126669346,,
157.60503535455,0.236410984909685,0.0101234473657033,,
158.218284519354,0.240916793346598,0.0105315896440383,,
158.831533684158,0.245113358611742,0.0108953725533003,,
159.444782848961,0.249447639464352,0.0112747838523779,,
160.058032013765,0.253574641907159,0.0116686959518186,,
160.671281178569,0.258136411989575,0.0119886156313669,,
161.284530343372,0.261886224128828,0.0123708910076545,,
161.897779508176,0.266002181123494,0.0127688398773365,,
162.51102867298,0.269855162448578,0.0131043935846473,,
163.124277837784,0.274140326308389,0.0134448072025002,,
163.737527002587,0.277872042713453,0.0138249627106171,,
164.350776167391,0.281542656639437,0.0141382747159717,,
164.964025332195,0.28544757507174,0.0144868408055681,,
165.577274496998,0.289109963664001,0.0148451661818783,,
166.190523661802,0.292737805854628,0.0151373246090984,,
166.803772826606,0.296326401452923,0.0155042534929337,,
167.417021991409,0.299877630535165,0.0158428009502423,,
168.030271156213,0.303253072485283,0.0161681161453222,,
168.643520321017,0.30660454346284,0.0164657095537049,,
169.256769485821,0.310020877072035,0.0167968600242028,,
169.870018650624,0.31283159110973,0.0171161708054464,,
170.483267815428,0.315964973238877,0.0174241098470582,,
171.096516980232,0.319097415329883,0.0177151519607204,,
171.709766145035,0.322161234636692,0.0179961190626212,,
172.323015309839,0.324875124745999,0.0183315543730402,,
172.936264474643,0.327760806825335,0.0186373791844283,,
173.549513639446,0.330515353584183,0.0188888767359803,,
174.16276280425,0.333318782326296,0.019179185916498,,
174.776011969054,0.335610595310878,0.0194732612457877,,
175.389261133857,0.3380756103227,0.0197464310666229,,
176.002510298661,0.340612538252208,0.0200021458027289,,
176.615759463465,0.342918216799351,0.0202724064427757,,
177.229008628269,0.34503424265181,0.0205143927772933,,
177.842257793072,0.347436040098737,0.020760810538361,,
178.455506957876,0.349303895882316,0.0209928909995361,,
179.06875612268,0.351479614156645,0.0212846660463422,,
179.682005287483,0.353586239627707,0.0214940312179905,,
180.295254452287,0.355109336423552,0.0217148865261629,,
180.908503617091,0.356943585843637,0.0219281362434764,,
181.521752781894,0.358695816936033,0.0221617051227292,,
182.135001946698,0.36025816032421,0.0224102934934933,,
182.748251111502,0.36153238202257,0.0226222126552522,,
183.361500276306,0.363462515332903,0.022794237702171,,
183.974749441109,0.364454960598889,0.0229966625607378,,
184.587998605913,0.365971242118221,0.0232381865835798,,
185.201247770717,0.36720245707169,0.0234041790269264,,
185.81449693552,0.367921821258093,0.0235812274848577,,
186.427746100324,0.369099219028064,0.0237862457991658,,
187.040995265128,0.370301997827807,0.0239554067688745,,
187.654244429931,0.370731830267183,0.024109931627486,,
188.267493594735,0.371659647911065,0.0242423782846117,,
188.880742759539,0.372086660236022,0.0244394132655938,,
189.493991924343,0.372794743964749,0.0246133777663715,,
190.107241089146,0.3732896740453,0.0247523644423238,,
190.72049025395,0.373620802480009,0.0248815467279835,,
191.333739418754,0.374180125173129,0.0250101088394445,,
191.946988583557,0.374112207417535,0.0251732259296862,,
192.560237748361,0.374163204486614,0.0253015456094148,,
193.173486913165,0.374410904536424,0.0253982476808869,,
193.786736077968,0.374322070932223,0.0255003678196797,,
194.399985242772,0.37409669678823,0.0256373191966692,,
195.013234407576,0.373714571284443,0.025764578942312,,
195.62648357238,0.373781784011432,0.025855637428573,,
196.239732737183,0.373276748520879,0.0259319357688965,,
196.852981901987,0.372990506907341,0.0260014854863453,,
197.466231066791,0.371995241526937,0.0261072251872814,,
198.079480231594,0.371455189615681,0.026171368113304,,
198.692729396398,0.370728070114625,0.0262454902059837,,
199.305978561202,0.370004005737523,0.0263025744220315,,
199.919227726005,0.369051747102009,0.0263387474916774,,
200.532476890809,0.368169991326973,0.0264104621808752,,
201.145726055613,0.367009984262586,0.0264540998926988,,
201.758975220416,0.365759028508184,0.0265019153234447,,
202.37222438522,0.364587975995656,0.0265219187603374,,
202.985473550024,0.363286023172175,0.0265884916416304,,
203.598722714828,0.361794182644475,0.0265885141934197,,
204.211971879631,0.360059812276734,0.0266107671712708,,
204.825221044435,0.358771960025348,0.0266319884047723,,
205.438470209239,0.35718047545484,0.0266001283647834,,
206.051719374042,0.355029903200748,0.0266159089791751,,
206.664968538846,0.353508451471647,0.0266096621336067,,
207.27821770365,0.351531786273399,0.026595161333244,,
207.891466868453,0.349528800007238,0.0265551319076693,,
208.504716033257,0.347605481973417,0.026588221020162,,
209.117965198061,0.344967264934357,0.0265233113333117,,
209.731214362865,0.342680387150008,0.0264840768583015,,
210.344463527668,0.340436281101015,0.0264550752575752,,
210.957712692472,0.337892537894994,0.0263942981860694,,
211.570961857276,0.335700603962754,0.026320931578323,,
212.184211022079,0.333082597743697,0.0262696262582209,,
