Time domain (s),Current (AC) (A),Potential (AC) (V),Frequency (Hz),Column 5
0,0.0310953451537816,0.00116408330293938,10000,0.3
3.125E-06,0.0553583212124086,0.00147608907637498,,
6.25E-06,0.07783645855402,0.00177277131826159,,
9.375E-06,0.0971506622496893,0.00194359090001139,,
1.25E-05,0.112982709490554,0.00206907038477366,,
1.5625E-05,0.124064436818486,0.00207733303920321,,
1.875E-05,0.130500860272757,0.00202068578526937,,
2.1875E-05,0.131779598421224,0.00191685222572779,,
2.5E-05,0.127977574713271,0.00169642885010157,,
2.8125E-05,0.119156044698554,0.00138917096789148,,
3.125E-05,0.105835474993621,0.00107789322766649,,
3.4375E-05,0.0883325124815605,0.000719362996996598,,
3.75E-05,0.0673753719070629,0.000347083737223475,,
4.0625E-05,0.0440606920534148,-7.26639845689547E-05,,
4.375E-05,0.0191610419820231,-0.000462962937159972,,
4.6875E-05,-0.00558789020264761,-0.000818260561037842,,
5E-05,-0.0306782729717219,-0.00118346849345352,,
5.3125E-05,-0.0552874730710828,-0.00149001924292813,,
5.625E-05,-0.0779003634861379,-0.00175413157802051,,
5.9375E-05,-0.0973616764269003,-0.0019406508998685,,
6.25E-05,-0.113083751456133,-0.00206933860753589,,
6.5625E-05,-0.124307038029693,-0.00207985851325931,,
6.875E-05,-0.130775185554982,-0.00204720848797812,,
7.1875E-05,-0.132219647144281,-0.00192406637299714,,
7.5E-05,-0.128367262330066,-0.00168239418117411,,
7.8125E-05,-0.119454419978463,-0.00141666554268571,,
8.125E-05,-0.105952481772477,-0.0010948435128495,,
8.4375E-05,-0.088266666191605,-0.000712134916077023,,
8.75E-05,-0.06736587067341,-0.000299367952917073,,
9.0625E-05,-0.0437611519588027,8.01672550752031E-05,,
9.375E-05,-0.0188305086805189,0.00046458272396821,,
9.6875E-05,0.00620448829141965,0.000820765134619261,,
0.0001,0.0310393655295426,0.0011944203423262,,
0.000103125,0.0554952440387296,0.00150810163717052,,
0.00010625,0.0777767104116254,0.00175249089073715,,
0.000109375,0.0973281708745712,0.00196492331810827,,
0.0001125,0.112799605187199,0.00207483194903446,,
0.000115625,0.12410584483919,0.00206785119040198,,
0.00011875,0.130514655333157,0.00204361360628713,,
0.000121875,0.131826739157425,0.00190267473688799,,
0.000125,0.128015945079946,0.00168746254634877,,
0.000128125,0.119198411978425,0.00142539149097631,,
0.00013125,0.105729339818656,0.00111115981695864,,
0.000134375,0.0883271223586228,0.000707167569864442,,
0.0001375,0.0674341607902907,0.000332996817108633,,
0.000140625,0.0441726284623889,-8.31211888678851E-05,,
0.00014375,0.0192172271617979,-0.000463025638584913,,
0.000146875,-0.0056698840219124,-0.000825763831544091,,
0.00015,-0.0306750754411656,-0.00118822335150437,,
0.000153125,-0.055154729873989,-0.00150952983629171,,
0.00015625,-0.0777017968385924,-0.00173781875732359,,
0.000159375,-0.0972143159472634,-0.00197949443255929,,
0.0001625,-0.113174698360955,-0.00205586128460666,,
0.000165625,-0.124337231853946,-0.00209439827699809,,
0.00016875,-0.130726857164574,-0.00203537533574538,,
0.000171875,-0.132097501477031,-0.00188952485473326,,
0.000175,-0.1283071030766,-0.0016949553666179,,
0.000178125,-0.119456795286877,-0.00141950452386608,,
0.00018125,-0.105890129926629,-0.00106322806107784,,
0.000184375,-0.0883292007534844,-0.000717896480337821,,
0.0001875,-0.0672907287053372,-0.000308881152430995,,
0.000190625,-0.0438351519516767,6.12349081849928E-05,,
0.00019375,-0.0187439469604594,0.000488301279621961,,
0.000196875,0.00608595126579729,0.000820611864469356,,
0.0002,0.031128530953055,0.00120042574546142,,
0.000203125,0.0553735323220549,0.00151252557103421,,
0.00020625,0.0779066215102266,0.0017709669105912,,
0.000209375,0.0971898548385078,0.00197565919540654,,
0.0002125,0.112860974934375,0.00203398545416134,,
0.000215625,0.124083028174721,0.00207824569327597,,
0.00021875,0.130502459038035,0.00204044370092005,,
0.000221875,0.131803168789324,0.00188968857512029,,
0.000225,0.128024372856912,0.001720694301516,,
0.000228125,0.119256789750581,0.00139731518629604,,
0.00023125,0.105870259558173,0.00110615415320847,,
0.000234375,0.0883223260627884,0.000704729181120634,,
0.0002375,0.0674141762243139,0.000327116816823292,,
0.000240625,0.044048495758293,-8.78168289064618E-05,,
0.00024375,0.0191358500091404,-0.000464610591268233,,
0.000246875,-0.0056488716782568,-0.000823353310100305,,
0.00025,-0.0306792322308887,-0.0011906965743731,,
0.000253125,-0.0552930915890603,-0.00151730481297241,,
0.00025625,-0.077870123982877,-0.00174047311764181,,
0.000259375,-0.0973678430929731,-0.00195821078223712,,
0.0002625,-0.112942237889513,-0.00206397415229898,,
0.000265625,-0.124387570120703,-0.00209455154714799,,
0.00026875,-0.130755223828509,-0.00204427893807324,,
0.000271875,-0.132165289124824,-0.0019065378413412,,
0.000275,-0.128292303078025,-0.00171096164701545,,
0.000278125,-0.119352053321654,-0.00143072111208786,,
0.00028125,-0.105849978078644,-0.00110090813399655,,
0.000284375,-0.0883128019896314,-0.000715823849905206,,
0.0002875,-0.0673842793136126,-0.000336044803038504,,
0.000290625,-0.0437073877664491,9.14186774223502E-05,,
0.00029375,-0.0188662753437414,0.000472019809637292,,
0.000296875,0.00618190002198987,0.000830215632708242,,
0.0003,0.0310535717010141,0.00117734465429375,,
0.000303125,0.0555108662594474,0.00152572770437676,,
0.00030625,0.0777743122637082,0.00175864956402183,,
0.000309375,0.0972715974232289,0.00195882734624808,,
0.0003125,0.112913140361451,0.00206495995803424,,
0.000315625,0.124187792979447,0.00210203043376689,,
0.00031875,0.130458492992886,0.00202724156757794,,
0.000321875,0.131815159528911,0.00189956056612095,,
0.000325,0.12803976668259,0.00167364733240838,,
0.000328125,0.119215199013845,0.00141155537656079,,
0.00033125,0.105777120060969,0.00109533467401057,,
0.000334375,0.08815041311638,0.000710462878081408,,
0.0003375,0.0674809360944284,0.000322602314234199,,
0.000340625,0.0441150729123757,-6.74214487697E-05,,
0.00034375,0.0192881895006435,-0.000458479785283572,,
0.000346875,-0.00569464204421966,-0.000821768357416541,,
0.00035,-0.0307346408675284,-0.00117880420412764,,
0.000353125,-0.0551731385141916,-0.00150889237180607,,
0.00035625,-0.0778133449759989,-0.00174617546389033,,
0.000359375,-0.097287859150058,-0.00193318246348717,,
0.0003625,-0.113001803315876,-0.00206942917626041,,
0.000365625,-0.124425757771347,-0.00209754031506559,,
0.00036875,-0.13078258555427,-0.00201854696999959,,
0.000371875,-0.132076534812383,-0.00188202506763968,,
0.000375,-0.128341088258512,-0.00169983214410552,,
0.000378125,-0.119640105145768,-0.00141776630103285,,
0.00038125,-0.105866148447457,-0.00107771209021701,,
0.000384375,-0.0883006056945096,-0.000744544585896456,,
0.0003875,-0.0673163089497875,-0.000313726579206364,,
0.000390625,-0.0438361568898516,7.5959292785921E-05,,
0.00039375,-0.0187461395528409,0.000492780948085692,,
0.000396875,0.00611774385532837,0.000835182978920823,,
0.0004,0.0311035445357081,0.0011961550817472,,
0.000403125,0.055471673670629,0.00149515030952774,,
0.00040625,0.0778742579330962,0.0017772161526004,,
0.000409375,0.0972368356981813,0.00193224194211439,,
0.0004125,0.112853574935088,0.00204578028885694,,
0.000415625,0.124005899169802,0.00208342901106295,,
0.00041875,0.13046207879501,0.00201928545344776,,
0.000421875,0.131875136066345,0.00189398710613453,,
0.000425,0.127994978415298,0.00169237415796175,,
0.000428125,0.119184639757529,0.0014337795482553,,
0.00043125,0.105926421898443,0.00111377934315193,,
0.000434375,0.0883453254432897,0.000720920082380339,,
0.0004375,0.0674195663472516,0.000332237433185334,,
0.000440625,0.0440662877318883,-9.36724453044491E-05,,
0.00044375,0.0191574561798993,-0.000486284383789393,,
0.000446875,-0.00558848402975092,-0.000812133238465407,,
0.00045,-0.0306502717398504,-0.00117594083905992,,
0.000453125,-0.0552980706009265,-0.00151017078419047,,
0.00045625,-0.0779169449660226,-0.00176336958794732,,
0.000459375,-0.097405848027585,-0.00196937163585975,,
0.0004625,-0.113152909474164,-0.00205122834599347,,
0.000465625,-0.124525931835774,-0.00206702213822885,,
0.00046875,-0.130818763328564,-0.00200915917333555,,
0.000471875,-0.132194066899831,-0.00189004388319436,,
0.000475,-0.128318705544618,-0.0017047437557185,,
0.000478125,-0.119305049622477,-0.00142669777066073,,
0.00048125,-0.10593950893422,-0.00108258886770463,,
0.000484375,-0.0882766698943454,-0.000730213826907189,,
0.0004875,-0.0674372669628311,-0.000322720750259187,,
0.000490625,-0.0437549396137219,8.54411415871503E-05,,
0.00049375,-0.0188267173228593,0.000484490426356121,,
0.000496875,0.00617829138036206,0.000822318736590333,,
0.0005,0.0310591445399836,0.0012036026176534,,
0.000503125,0.0555022557664494,0.00150304372223298,,
0.00050625,0.0777765048560896,0.00174447904200692,,
0.000509375,0.0972406270558409,0.00193516800860705,,
0.0005125,0.112754611364371,0.002064137872686,,
0.000515625,0.124090039902441,0.00209337067031345,,
0.00051875,0.130483456570729,0.00200550507363229,,
0.000521875,0.131921911370483,0.00191947175192109,,
0.000525,0.128130508031877,0.00167816183499703,,
0.000528125,0.11928017740265,0.00141246803063355,,
0.00053125,0.105790709565833,0.00110335348956569,,
0.000534375,0.0882783600176394,0.000733174727524766,,
0.0005375,0.067451130541743,0.000341046983376003,,
0.000540625,0.0441446500700214,-9.69015686838048E-05,,
0.00054375,0.0192521944423813,-0.000452230543273924,,
0.000546875,-0.0057096704378342,-0.000813718191149171,,
0.00055,-0.0307106137093483,-0.00119831479749166,,
0.000553125,-0.0551939224628075,-0.00151513813040305,,
0.00055625,-0.0778413462078704,-0.00177770034693658,,
0.000559375,-0.097341257910348,-0.00195546933660662,,
0.0005625,-0.113124725526261,-0.00207979581183482,,
0.000565625,-0.124449921966551,-0.00206793827571428,,
0.00056875,-0.130890570729056,-0.00204955282458474,,
0.000571875,-0.132092887897228,-0.00191425011659696,,
0.000575,-0.12832912035843,-0.00169852238100887,,
0.000578125,-0.119530932316774,-0.00141273276998266,,
0.00058125,-0.105937316341839,-0.00109831647510328,,
0.000584375,-0.0883750167984552,-0.000733571836548652,,
0.0005875,-0.0672451867344141,-0.000318237598382787,,
0.000590625,-0.0438479420739019,8.12958807228092E-05,,
0.00059375,-0.0187501136265323,0.000481261302976765,,
0.000596875,0.00608633953736483,0.000801986057878512,,
0.0006,0.0310861636731842,0.00120216745170687,,
0.000603125,0.0554227057741098,0.00152304547675808,,
0.00060625,0.0778790542289306,0.00177645676867755,,
0.000609375,0.0972004295288475,0.00193306402746263,,
0.0006125,0.112973528009957,0.00205980450754684,,
0.000615625,0.124152391748288,0.00208901640469916,,
0.00061875,0.130552637428265,0.00204547374855757,,
0.000621875,0.131917891617783,0.00190099573206748,,
0.000625,0.128105110503458,0.00167374486795824,,
0.000628125,0.119210996545114,0.00142838025889391,,
0.00063125,0.105841093511598,0.00109048576382254,,
0.000634375,0.0883189229766963,0.000710340958644196,,
0.0006375,0.0674393453576927,0.000316718830536633,,
0.000640625,0.0440638895839711,-7.90072787157925E-05,,
0.00064375,0.0191422450702529,-0.000501405877414207,,
0.000646875,-0.00554874329283707,-0.00083259132002711,,
0.00065,-0.030642871740563,-0.00117621602864659,,
0.000653125,-0.0552527113460352,-0.0015198686045661,,
0.00065625,-0.0778929634868504,-0.00177803475453597,,
0.000659375,-0.097326640627805,-0.00194315199003725,,
0.0006625,-0.113046568743664,-0.00204912784826083,,
0.000665625,-0.124299226919334,-0.00211259910726547,,
0.00066875,-0.130866178138812,-0.00203912697099851,,
0.000671875,-0.132192696529592,-0.00190815414473677,,
0.000675,-0.128246167279999,-0.00168696790177503,,
0.000678125,-0.119489181703511,-0.00141196990264714,,
0.00068125,-0.105994323743756,-0.00109962972161215,,
0.000684375,-0.0883471982826155,-0.000678021857549282,,
0.0006875,-0.0673886644983755,-0.00029808605712045,,
0.000690625,-0.0437329680108994,7.95855251891631E-05,,
0.00069375,-0.0188381370748461,0.000461869145637728,,
0.000696875,0.00616431360393029,0.000835336249070284,,
0.0007,0.0310839710808028,0.00118036477292405,,
0.000703125,0.0555192483574057,0.00151127154253761,,
0.00070625,0.0777591011540619,0.00176563032265431,,
0.000709375,0.0973471733418771,0.00194028862496953,,
0.0007125,0.112751025562247,0.00205620265903095,,
0.000715625,0.124162189895493,0.00209135725789356,,
0.00071875,0.130455683733897,0.00203767090457685,,
0.000721875,0.131891123719126,0.00189565914413059,,
0.000725,0.128044745694457,0.00167998714314255,,
0.000728125,0.119159059513078,0.00142408172787967,,
0.00073125,0.105819281785304,0.00107018443582296,,
0.000734375,0.0883463303814645,0.000725493802981259,,
0.0007375,0.0674759570825622,0.000309403664304764,,
0.000740625,0.044095887729038,-8.11426105729041E-05,,
0.00074375,0.0192779802423673,-0.000433576869383057,,
0.000746875,-0.00570925932676268,-0.000806587645779455,,
0.00075,-0.0307610433341218,-0.00119036216677415,,
0.000753125,-0.0552144780163836,-0.00151047732448939,,
0.00075625,-0.0777598091786851,-0.00176272864004901,,
0.000759375,-0.097287859150058,-0.00197458630435898,,
0.0007625,-0.113132125525548,-0.00204601716090602,,
0.000765625,-0.124469107149888,-0.00210714408330404,,
0.00076875,-0.130932138626288,-0.00204409431721109,,
0.000771875,-0.132144870608272,-0.00189327648998638,,
0.000775,-0.128273529005759,-0.00167303425180965,,
0.000778125,-0.11948118787712,-0.00143416620704206,,
0.00078125,-0.105911507702349,-0.00110414422420124,,
0.000784375,-0.0883685760583346,-0.000713082404274701,,
0.0007875,-0.0672639608066803,-0.000324796864104027,,
0.000790625,-0.0438130889908383,6.89820175656664E-05,,
0.00079375,-0.018772770414474,0.000476746800388117,,
0.000796875,0.00610913336233037,0.0008158883571312,,
0.0008,0.031155298851712,0.00117322726072899,,
0.000803125,0.0554344909581601,0.00148246372123406,,
0.00080625,0.0778572425026359,0.00174993406596835,,
0.000809375,0.0971534715086781,0.00192477350573306,,
0.0008125,0.112912135423276,0.00205300488636384,,
0.000815625,0.124016679415678,0.00208248152286528,,
0.00081875,0.130572827549777,0.00204026256347056,,
0.000821875,0.131904713223991,0.00189904502107208,,
0.000825,0.127861047563998,0.00169907624359489,,
0.000828125,0.119275175551279,0.00141319954725683,,
0.00083125,0.105856875608844,0.00111048751834764,,
0.000834375,0.0883293149510042,0.000731070746379903,,
0.0008375,0.0673473935146954,0.000317359778434945,,
0.000840625,0.0440293105749553,-6.94627284896221E-05,,
0.00084375,0.0191696296355171,-0.000472688624835627,,
0.000846875,-0.00560109143594428,-0.000813293214825261,,
0.00085,-0.0306053235960306,-0.0011949324039624,,
0.000853125,-0.055204702708683,-0.00149114786857529,,
0.00085625,-0.0779159400278477,-0.00175080840250352,,
0.000859375,-0.0973478356874924,-0.00196047151694412,,
0.0008625,-0.112953840357531,-0.00208720503020388,,
0.000865625,-0.124317635559536,-0.00210071022043268,,
0.00086875,-0.130818946044595,-0.00201830313112517,,
0.000871875,-0.132140850855572,-0.0018821156363642,,
0.000875,-0.128286319127984,-0.0016756886121283,,
0.000878125,-0.119421165660678,-0.0014243185999292,,
0.00088125,-0.105921100294018,-0.00110194619091919,,
0.000884375,-0.088346787171544,-0.000741890225577801,,
0.0008875,-0.0673498830206285,-0.000329429802717218,,
0.000890625,-0.043786732203253,7.22111409450221E-05,,
0.00089375,-0.0188396901611163,0.000482783554235589,,
0.000896875,0.00623865618936397,0.000840094590533358,,
0.0009,0.0310137852850923,0.00118972121887539,,
0.000903125,0.055480261324123,0.00150789263242102,,
0.00090625,0.0777315110332619,0.00175252572486206,,
0.000909375,0.0972763937190633,0.00197392445598554,,
0.0009125,0.112876574315589,0.00205760995767745,,
0.000915625,0.124200583101672,0.00209361450918788,,
0.00091875,0.13051904051792,0.00203035573834542,,
0.000921875,0.131817557676828,0.00192261378998859,,
0.000925,0.128077543222163,0.00169185164608798,,
0.000928125,0.119264189749868,0.00144691898017291,,
0.00093125,0.105825471290881,0.00110109623827137,,
0.000934375,0.0882973396454414,0.000718112451912223,,
0.0009375,0.0674781496749436,0.000346293002587927,,
0.000940625,0.0441666445123478,-4.95863768139593E-05,,
0.00094375,0.0192665833298846,-0.000481254336151871,,
0.000946875,-0.00570724945041302,-0.000820977622780994,,
0.00095,-0.0307322655591152,-0.00120194451330757,,
0.000953125,-0.0551903138211797,-0.00149681886411113,,
0.00095625,-0.0778357276898929,-0.00176605181556555,,
0.000959375,-0.0972732875465229,-0.0019344016578593,,
0.0009625,-0.113064931704858,-0.00207046723318305,,
0.000965625,-0.124558500968441,-0.00209744974634063,,
0.00096875,-0.130878191717903,-0.00206955109569762,,
0.000971875,-0.132038164445708,-0.00190925141967169,,
0.000975,-0.128307696903703,-0.00168440411018134,,
0.000978125,-0.119441401461198,-0.00141291739084481,,
0.00098125,-0.105931515107829,-0.00108694661673159,,
0.000984375,-0.08831060939725,-0.000744175344172149,,
0.0009875,-0.0672837398171214,-0.000329367101292721,,
0.000990625,-0.0438367507169549,9.18436537462597E-05,,
0.00099375,-0.0187845555985243,0.000460193624229444,,
0.000996875,0.00609115867270324,0.000824241580285268,,
0.001,0.0310973550301312,0.00119768081641825,,
0.001003125,0.0553921008387853,0.00149639737119944,,
0.00100625,0.0779218097803689,0.00174694529805075,,
0.001009375,0.0972142245892475,0.00194496336453298,,
0.0010125,0.112863578637828,0.00205708744580368,,
0.001015625,0.124126811503838,0.00210724161885389,,
0.00101875,0.130590802239404,0.00203334450626258,,
0.001021875,0.131756576201219,0.00186791724704971,,
0.001025,0.127934819161832,0.00168529586377941,,
0.001028125,0.119156044698554,0.00139618656064888,,
0.00103125,0.10596221140117,0.00108499938914886,,
0.001034375,0.0882803470544851,0.000723389821836395,,
0.0010375,0.0673032447535147,0.000332603191496972,,
0.001040625,0.0441128803199942,-8.02856911001903E-05,,
0.00104375,0.0190812864341477,-0.000446956656762421,,
0.001046875,-0.00558528649919463,-0.000816463120192346,,
0.00105,-0.0305979235967432,-0.00118892700082762,,
0.001053125,-0.055233069372618,-0.00150132988328711,,
0.00105625,-0.077882137561967,-0.00176242558316231,,
0.001059375,-0.0973528146993586,-0.00195379381519833,,
0.0010625,-0.113052963804776,-0.00209229777926589,,
0.001065625,-0.124427539252657,-0.00208937171277324,,
0.00106875,-0.13078080407296,-0.00205324175841337,,
0.001071875,-0.132157066903394,-0.00191830480873678,,
0.001075,-0.12818518580439,-0.00170791366108558,,
0.001078125,-0.119411573069009,-0.00141751897874576,,
0.00108125,-0.105907122517586,-0.00109078882070923,,
0.001084375,-0.0883096044590751,-0.000704056882509629,,
0.0010875,-0.0673385089476498,-0.000293425251206791,,
0.001090625,-0.043784950721943,8.43159993526577E-05,,
0.00109375,-0.0188576876902474,0.000484734265230546,,
0.001096875,0.00619950927955343,0.000835855277531383,,
0.0011,0.0310455778746234,0.00120478697790061,,
0.001103125,0.0555426360094746,0.00146898988171795,,
0.00110625,0.077789089422779,0.0017579807488235,,
0.001109375,0.0972630097697349,0.00194556947830637,,
0.0011125,0.112800404569838,0.00205742882022797,,
0.001115625,0.124092849161429,0.00208935081229855,,
0.00111875,0.130444469537446,0.00203663284765465,,
0.001121875,0.131780991630966,0.00189822293572428,,
0.001125,0.127921412373,0.00168819406297205,,
0.001128125,0.119209397779836,0.00142185234388537,,
0.00113125,0.105811493514449,0.0011097560017248,,
0.001134375,0.0883179180385215,0.000732655699063667,,
0.0011375,0.0674877422666125,0.000320163925490391,,
0.001140625,0.044129461799879,-7.88226578536388E-05,,
0.00114375,0.0192256092597561,-0.000466164193239305,,
0.001146875,-0.00568765315600377,-0.00082960255210951,,
0.00115,-0.030722033461335,-0.00118267775881797,,
0.001153125,-0.0551955212280856,-0.0015308413539139,,
0.00115625,-0.0777502165870162,-0.00177089724234136,,
0.001159375,-0.0973310714915758,-0.00196010575863248,,
0.0011625,-0.113111158860901,-0.00206756903398997,,
0.001165625,-0.124553110845503,-0.00208717367949118,,
0.00116875,-0.130859371966628,-0.00201702123532854,,
0.001171875,-0.132249018746391,-0.00188830217694891,,
0.001175,-0.128268367277861,-0.00169172275982588,,
0.001178125,-0.119444233559691,-0.00142495954782751,,
