Time domain (s),Current (AC) (A),Potential (AC) (V),Frequency (Hz),Column 5
0,-0.460124205896438,-0.0171972985295672,1.5849,0.5
0.00154041658779734,-0.460170608919425,-0.0172461497067111,,
0.00308083317559467,-0.459937744968703,-0.0173419489433622,,
0.00462124976339201,-0.459852083290597,-0.0174242175188684,,
0.00616166635118935,-0.459358273071887,-0.0174938244674774,,
0.00770208293898669,-0.459184544680947,-0.0175389839332412,,
0.00924249952678402,-0.458303453134715,-0.0176114977677275,,
0.0107829161145814,-0.457912705727732,-0.017668089412711,,
0.0123233327023787,-0.457022913614689,-0.0177030360418819,,
0.013863749290176,-0.45592105402769,-0.0177391986453306,,
0.0154041658779734,-0.454765222631943,-0.0178003948244903,,
0.0169445824657707,-0.454189711968797,-0.017856225222419,,
0.018484999053568,-0.452968803162762,-0.0178395754693597,,
0.0200254156413654,-0.451240502765436,-0.0178900198759586,,
0.0215658322291627,-0.45002673832727,-0.0178936038001454,,
0.0231062488169601,-0.448617670921928,-0.0179080708625348,,
0.0246466654047574,-0.446936127229167,-0.0179177481315089,,
0.0261870819925547,-0.44490769264505,-0.0179604318601698,,
0.0277274985803521,-0.443667260615929,-0.0179910131080008,,
0.0292679151681494,-0.441575446293099,-0.0179491680984398,,
0.0308083317559468,-0.439617465079249,-0.0179760340564417,,
0.0323487483437441,-0.437220069873333,-0.0179579763331659,,
0.0338891649315414,-0.434772593356021,-0.0179445601959141,,
0.0354295815193388,-0.432639186079659,-0.0179476557093801,,
0.0369699981071361,-0.430107674819499,-0.0179180175994933,,
0.0385104146949334,-0.42761917123918,-0.0178992356810106,,
0.0400508312827308,-0.424896954872353,-0.0178727469781861,,
0.0415912478705281,-0.422151041839823,-0.0178220600504013,,
0.0431316644583254,-0.419153166051379,-0.0177904245090832,,
0.0446720810461228,-0.416285445083508,-0.0177668460604861,,
0.0462124976339201,-0.413172198364435,-0.0177279348836006,,
0.0477529142217175,-0.410179274118077,-0.0176742838079922,,
0.0492933308095148,-0.406585869289192,-0.0176130337352358,,
0.0508337473973121,-0.403712347943448,-0.0175588976172563,,
0.0523741639851095,-0.400051602142179,-0.0175159208421629,,
0.0539145805729068,-0.396739303431207,-0.017441924933765,,
0.0554549971607042,-0.393074596396268,-0.0173798125634597,,
0.0569954137485015,-0.38923425108987,-0.0172949267801594,,
0.0585358303362988,-0.385426727433877,-0.0172317095911203,,
0.0600762469240962,-0.38160519798741,-0.0171434588263701,,
0.0616166635118935,-0.377377995771383,-0.0170581722094436,,
0.0631570800996908,-0.373574645558007,-0.01698544280057,,
0.0646974966874882,-0.369163528921604,-0.0168715386837461,,
0.0662379132752855,-0.365186450317288,-0.0167555057698485,,
0.0677783298630829,-0.360718178737937,-0.0166580930936435,,
0.0693187464508802,-0.356026026719936,-0.016582588164535,,
0.0708591630386775,-0.35160988780513,-0.0164583634239248,,
0.0723995796264749,-0.347287969662609,-0.0163707054887396,,
0.0739399962142722,-0.342236689370666,-0.0162517892674137,,
0.0754804128020695,-0.337713880092042,-0.0161051447905374,,
0.0770208293898669,-0.332707446624145,-0.0159729168508034,,
0.0785612459776642,-0.327995842119373,-0.0158616804670206,,
0.0801016625654615,-0.322788517515373,-0.0157354616633292,,
0.0816420791532589,-0.317954963602629,-0.0156097817956056,,
0.0831824957410562,-0.312914010812753,-0.0154399091785109,,
0.0847229123288536,-0.307538899668317,-0.0153115885245443,,
0.0862633289166509,-0.302158412563901,-0.0151509317125016,,
0.0878037455044482,-0.296809049438318,-0.0150145270190158,,
0.0893441620922456,-0.291541740438749,-0.014856729935953,,
0.0908845786800429,-0.285942465910401,-0.0146779042450911,,
0.0924249952678402,-0.280460472193201,-0.014520777463638,,
0.0939654118556376,-0.274697726039665,-0.0143911667316985,,
0.0955058284434349,-0.269190196512558,-0.0142035092276616,,
0.0970462450312323,-0.26334030321829,-0.0140230465187972,,
0.0985866616190296,-0.257564824527959,-0.0138502367006774,,
0.100127078206827,-0.251594750233607,-0.0136743785259887,,
0.101667494794624,-0.245675676822751,-0.0134992815983548,,
0.103207911382422,-0.239583653120426,-0.0132968841955949,,
0.104748327970219,-0.233685093241074,-0.0131268802128583,,
0.106288744558016,-0.227713816429358,-0.0129330485236387,,
0.107829161145814,-0.221595973971865,-0.0127456335407881,,
0.109369577733611,-0.215135555538264,-0.0125480057213445,,
0.110909994321408,-0.208985315848259,-0.0123243472946495,,
0.112450410909206,-0.20258261824813,-0.0121494895198513,,
0.113990827497003,-0.196284539658669,-0.0119255852036209,,
0.1155312440848,-0.189901223808995,-0.0117262092106314,,
0.117071660672598,-0.183359317139904,-0.0115093683239307,,
0.118612077260395,-0.17708755245982,-0.0112940128794921,,
0.120152493848192,-0.170421362084345,-0.0110737969062922,,
0.12169291043599,-0.163797896443449,-0.0108592229190068,,
0.123233327023787,-0.157128239988512,-0.0106248969284963,,
0.124773743611584,-0.150500317959738,-0.0104146546390531,,
0.126314160199382,-0.143816938659589,-0.0101682497461613,,
0.127854576787179,-0.137093451868535,-0.00994079518924229,,
0.129394993374976,-0.13034103392443,-0.00972225665424231,,
0.130935409962774,-0.123505713018524,-0.00945718436676124,,
0.132475826550571,-0.116725990856624,-0.00924367814636229,,
0.134016243138368,-0.109895692229121,-0.00898973488661881,,
0.135556659726166,-0.103040848100129,-0.00877566952015307,,
0.137097076313963,-0.0960760797368043,-0.00850568617866365,,
0.13863749290176,-0.0892093519068035,-0.00827577946309033,,
0.140177909489558,-0.0820934907735087,-0.00804228545498065,,
0.141718326077355,-0.0752575332407631,-0.00776971858919495,,
0.143258742665152,-0.0681961390704258,-0.00754217982353111,,
0.14479915925295,-0.0612121304292775,-0.00726966685134212,,
0.146339575840747,-0.0542301731412795,-0.00701086979953747,,
0.147879992428544,-0.0472453864006604,-0.00675377039603164,,
0.149420409016342,-0.0400747046228304,-0.00648834443182134,,
0.150960825604139,-0.0331397869846594,-0.00625870381588234,,
0.152501242191936,-0.0260686312027791,-0.00598735292437436,,
0.154041658779734,-0.0189449183384605,-0.00570257579056532,,
0.155582075367531,-0.0118579883582172,-0.00544706624816493,,
0.157122491955328,-0.004825879022509,-0.00519226069087297,,
0.158662908543126,0.00228899180236839,-0.00490748355706394,,
0.160203325130923,0.00933800711748807,-0.00465353692897041,,
0.16174374171872,0.0164736036828155,-0.00437299717920947,,
0.163284158306518,0.0235039799787933,-0.00412247279451261,,
0.164824574894315,0.0305676730793852,-0.00382335659560606,,
0.166364991482112,0.0375615140683921,-0.0035859586700786,,
0.16790540806991,0.0446430680886552,-0.00329127185115885,,
0.169445824657707,0.0517303163823185,-0.00298410192788179,,
0.170986241245504,0.0586828119948985,-0.00273877827527569,,
0.172526657833302,0.0655906022560641,-0.00247362177904931,,
0.174067074421099,0.0726209785520418,-0.00218852128365921,,
0.175607491008896,0.0796634861261328,-0.00194643461521071,,
0.177147907596694,0.0866035675153374,-0.00165233725750591,,
0.178688324184491,0.0934881916331671,-0.00138707297408613,,
0.180228740772288,0.100494199268445,-0.00109647870017282,,
0.181769157360086,0.107374579207343,-0.000799582243784513,,
0.183309573947883,0.114063122258526,-0.000536386127141686,,
0.18484999053568,0.120953971172122,-0.000256627834533951,,
0.186390407123478,0.127844572508614,1.09808203467843E-05,,
0.187930823711275,0.134603250616644,0.000291059106185543,,
0.189471240299073,0.141147208638885,0.000601142652039144,,
0.19101165688687,0.148044848238772,0.000843097954845717,,
0.192552073474667,0.154690100664851,0.00111914095762433,,
0.194092490062465,0.161353992110071,0.00142126846125157,,
0.195632906650262,0.167918357559342,0.00166643043306713,,
0.197173323238059,0.174458106770809,0.00195470728231806,,
0.198713739825857,0.181098549127432,0.00223832233544652,,
0.200254156413654,0.187511468125155,0.00253517500328737,,
0.201794573001451,0.193926403107871,0.002798364383231,,
0.203334989589249,0.200356617134741,0.0030713287142925,,
0.204875406177046,0.206617629894865,0.00331180194318748,,
0.206415822764843,0.213057464060646,0.00361444143598399,,
0.207956239352641,0.219246042833669,0.00390511655029213,,
0.209496655940438,0.225361621729064,0.00415153828493331,,
0.211037072528235,0.231337991555499,0.00441490281906631,,
0.212577489116033,0.237509911926214,0.00471274578174796,,
0.21411790570383,0.243488474578429,0.00496111442257297,,
0.215658322291627,0.249686425913259,0.00524078850643583,,
0.217198738879425,0.255332881564065,0.00549012723200315,,
0.218739155467222,0.261283220426384,0.00576045751352172,,
0.220279572055019,0.266879877711058,0.00601391236254445,,
0.221819988642817,0.27258462008586,0.00628928843206289,,
0.223360405230614,0.278269556292314,0.0065406549042093,,
0.224900821818411,0.283880926730617,0.00679790925180601,,
0.226441238406209,0.289473339836359,0.00705886204748252,,
0.227981654994006,0.294664536560418,0.00728330193133075,,
0.229522071581803,0.300299957346002,0.00758044427725446,,
0.231062488169601,0.305510111402623,0.00781409322945503,,
0.232602904757398,0.310914648854319,0.00804966887774139,,
0.234143321345195,0.315837047579368,0.00831029831183683,,
0.235683737932993,0.320826504331538,0.0085696073528112,,
0.23722415452079,0.325895751647626,0.00880380197767927,,
0.238764571108587,0.330906995184979,0.0090257897028736,,
0.240304987696385,0.335689053060018,0.00929533852723896,,
0.241845404284182,0.340582874313592,0.00952640732349286,,
0.243385820871979,0.3453233392351,0.00976283853262805,,
0.244926237459777,0.349695126480069,0.00997105644384177,,
0.246466654047574,0.354310246650459,0.0102429765864658,,
0.248007070635371,0.358942060591313,0.0104425984689906,,
0.249547487223169,0.362702969015372,0.01068215550674,,
0.251087903810966,0.367390240227601,0.0108791904966186,,
0.252628320398763,0.371807581659771,0.0110869435755596,,
0.254168736986561,0.375510486305096,0.0113167256621907,,
0.255709153574358,0.379778998529392,0.0115318958473907,,
0.257249570162155,0.383486996189435,0.011768488737316,,
0.258789986749953,0.387434931431753,0.0119417094941117,,
0.26033040333775,0.391013057216484,0.0122077484979854,,
0.261870819925547,0.394650318560997,0.012356791239919,,
0.263411236513345,0.398300312442306,0.0125820125809213,,
0.264951653101142,0.401675000583575,0.0127554691222027,,
0.266492069688939,0.405362060294221,0.0129356825731821,,
0.268032486276737,0.408306671637072,0.0131286351231035,,
0.269572902864534,0.411760018561209,0.0133453412758122,,
0.271113319452331,0.414520998428946,0.0135453943071115,,
0.272653736040129,0.417600574661827,0.0137156104958858,,
0.274194152627926,0.420447003998724,0.0138746505000249,,
0.275734569215723,0.423411138564661,0.0140533077733966,,
0.277274985803521,0.426243703583714,0.0142064194818885,,
0.278815402391318,0.428632327486505,0.0143822473414286,,
0.280355818979115,0.431115738052106,0.0145705246218286,,
0.281896235566913,0.433484272841287,0.0147650198759584,,
0.28343665215471,0.435828757283188,0.0148749089198215,,
0.284977068742507,0.437797490416998,0.0150172486456537,,
0.286517485330305,0.440199412747108,0.0151844063728097,,
0.288057901918102,0.441678933522718,0.0153136095344237,,
0.289598318505899,0.444093588389624,0.0154607929472683,,
0.291138735093697,0.445747120501436,0.0156172191119626,,
0.292679151681494,0.447482989684523,0.0157437073836384,,
0.294219568269291,0.448746057334613,0.0158783335884296,,
0.295759984857089,0.450335926762448,0.0159807044755396,,
0.297300401444886,0.451594184343082,0.0161185912429369,,
0.298840818032683,0.452976371948524,0.0162400067798143,,
0.300381234620481,0.454087497992857,0.0163507850680245,,
0.301921651208278,0.455009899547358,0.0164746056066587,,
0.303462067796075,0.456088203941286,0.0165621018610538,,
0.305002484383873,0.456783683395569,0.0166843190651833,,
0.30654290097167,0.457330333641979,0.0168083821250029,,
0.308083317559468,0.458123995102217,0.0168920721441244,,
0.309623734147265,0.458833338874345,0.0169632723221889,,
0.311164150735062,0.45874987002202,0.0170525942221751,,
0.31270456732286,0.459563337650606,0.0171669294877734,,
0.314244983910657,0.459524857094959,0.0172309281339667,,
0.315785400498454,0.459709054460597,0.0173051935103485,,
0.317325817086252,0.459338679112486,0.0173657968599432,,
0.318866233674049,0.459062241591397,0.0174387148964055,,
0.320406650261846,0.458957551844414,0.0174977822784919,,
0.321947066849644,0.458490126271397,0.0175857366284595,,
0.323487483437441,0.458010251106846,0.0176117941825096,,
0.325027900025238,0.457768898798261,0.0176531844648471,,
0.326568316613036,0.457057574409299,0.0176994251708966,,
0.328108733200833,0.456264761784847,0.017748683918366,,
0.32964914978863,0.455314065704134,0.0178142724256642,,
0.331189566376428,0.45453030732807,0.0178273146760888,,
0.332729982964225,0.453115015126961,0.0178528871877672,,
0.334270399552022,0.452152435345239,0.0179124396122248,,
0.33581081613982,0.450542193858532,0.0179390899958394,,
0.337351232727617,0.449445215077304,0.0179099807168708,,
0.338891649315414,0.44773254740571,0.017925077660673,,
0.340432065903212,0.44589736443562,0.0179676805489386,,
0.341972482491009,0.443990313368951,0.0179577573904286,,
0.343512899078806,0.442438924496764,0.0179518627782795,,
0.345053315666604,0.440511784316486,0.0179617185697931,,
0.346593732254401,0.438590303041449,0.0179745250357315,,
0.348134148842198,0.436110287818994,0.0179511284780229,,
0.349674565429996,0.434211442164927,0.017953452639385,,
0.351214982017793,0.431502807170682,0.0178909360671038,,
0.35275539860559,0.429204159861244,0.0178863820581747,,
0.354295815193388,0.426608985917107,0.0178214672208363,,
0.355836231781185,0.424040125882347,0.0177982390806184,,
0.357376648368982,0.421277165397775,0.017777786460635,,
0.35891706495678,0.418493266963806,0.0177464473340994,,
0.360457481544577,0.415532810686277,0.0176887205552334,,
0.361997898132374,0.412460591030211,0.0176677896295785,,
0.363538314720172,0.409247464633611,0.0176085875135001,,
0.365078731307969,0.405918613624805,0.0175266961931717,,
0.366619147895766,0.402421410185039,0.0174637215253179,,
0.368159564483564,0.399192155908498,0.0174003696022869,,
0.369699981071361,0.395427003305508,0.0173346733077948,,
0.371240397659158,0.392169454502756,0.0172662014930682,,
0.372780814246956,0.388128996159725,0.017163999023448,,
0.374321230834753,0.384413358977606,0.0170895382827774,,
0.37586164742255,0.380759969753151,0.0170122077080777,,
0.377402064010348,0.376611709265255,0.0169181566449725,,
0.378942480598145,0.372666603475558,0.0168425776121688,,
0.380482897185942,0.36859700177053,0.0167135765515427,,
0.38202331377374,0.36416098595106,0.0166407865123728,,
0.383563730361537,0.359545299890147,0.0165323323855247,,
0.385104146949334,0.355356578229767,0.0164094482481345,,
0.386644563537132,0.351093441965451,0.0163398514045747,,
0.388184980124929,0.345963644363271,0.0162102911978819,,
0.389725396712726,0.341686643781111,0.0160492032370647,,
0.391265813300524,0.336733121077229,0.0159166788825487,,
0.392806229888321,0.332093384669035,0.0158131223363087,,
0.394346646476118,0.327090346544283,0.015691464278246,,
0.395887063063916,0.322054203823864,0.0155652656846534,,
0.397427479651713,0.317162646132386,0.015404231617433,,
0.39896789623951,0.311945135498949,0.0152805525494903,,
0.400508312827308,0.30679807823578,0.015120912979087,,
0.402048729415105,0.301343742417951,0.0149851819555615,,
0.403589146002902,0.296037104026948,0.0148588014710795,,
0.4051295625907,0.290558682493681,0.0146516883786001,,
0.406669979178497,0.285231707411963,0.0144773695397702,,
0.408210395766294,0.279627410605213,0.0142403724478686,,
0.409750812354092,0.27382363738867,0.0141266569586334,,
0.411291228941889,0.268258952918616,0.0139792040778048,,
0.412831645529686,0.262441881274753,0.0138323777100395,,
0.414372062117484,0.256622546068794,0.0136644115789313,,
0.415912478705281,0.25093191558894,0.0134986348751931,,
0.417452895293078,0.244843534806865,0.0132755423312645,,
0.418993311880876,0.238793316267018,0.0130846714215189,,
0.420533728468673,0.232880326179298,0.0128924935920511,,
0.42207414505647,0.22682190222685,0.0127115121573174,,
0.423614561644268,0.220547308094144,0.0125132443514122,,
0.425154978232065,0.214200845864861,0.0123179339566306,,
0.426695394819862,0.208053824677213,0.012109446577433,,
0.42823581140766,0.201644018077373,0.0119249485855084,,
0.429776227995457,0.195300385300711,0.0117514853075273,,
0.431316644583254,0.188934682793603,0.0115249166266058,,
0.432857061171052,0.182494035160193,0.0112745202392013,,
0.434397477758849,0.175882417852148,0.0110843836297119,,
0.435937894346646,0.169510207604012,0.0108588995574257,,
0.437478310934444,0.162904036992264,0.0106683317991623,,
0.439018727522241,0.156119257183803,0.0104364545989561,,
0.440559144110038,0.149573035599466,0.0102051702283146,,
0.442099560697836,0.142880495946455,0.00996949352953447,,
0.443639977285633,0.136118174918176,0.00974610457082381,,
0.445180393873431,0.129290387429874,0.00944023146221928,,
0.446720810461228,0.122507871183511,0.00923764543187078,,
0.448261227049025,0.115691189296747,0.00903136095344248,,
0.449801643636823,0.108931626984773,0.00881894607837852,,
0.45134206022462,0.102044173414322,0.00857647878640222,,
0.452882476812417,0.0951793554648402,0.00832808319877909,,
0.454422893400215,0.088196832286318,0.00809749944489591,,
0.455963309988012,0.081268068707598,0.00785692516550718,,
0.457503726575809,0.0743248749205101,0.00756850684556465,,
0.459044143163607,0.0672370961044804,0.00735988473237503,,
0.460584559751404,0.0602511775828128,0.0071002792766186,,
0.462124976339201,0.0532658249516694,0.00684471584062152,,
0.463665392926999,0.0462179414175982,0.00658958355339889,,
0.465205809514796,0.0391632671972362,0.00633431653218386,,
0.466746226102593,0.0322039101620498,0.00609602599395931,,
0.468286642690391,0.0250794191982605,0.00582067687123944,,
0.469827059278188,0.0180646048916992,0.00557050953162141,,
0.471367475865985,0.0109360819579246,0.00529193352979318,,
0.472907892453783,0.00386669458393253,0.0050550981186821,,
0.47444830904158,-0.00324909581304675,0.00477964794546804,,
0.475988725629377,-0.0102447052099418,0.00451036858908704,,
0.477529142217175,-0.0173595760348192,0.00424356833815853,,
0.479069558804972,-0.0244119866930843,0.00398134904295722,,
0.480609975392769,-0.0315243817469182,0.00371618581003164,,
0.482150391980567,-0.0385043584180813,0.00346019796195973,,
0.483690808568364,-0.0456121556114058,0.00318738857498868,,
0.485231225156161,-0.0526386060418716,0.00294352004949561,,
0.486771641743959,-0.0596089625741228,0.00266109065549713,,
0.488312058331756,-0.0666296833630308,0.00240298748375078,,
0.489852474919553,-0.0736105088699803,0.00209954632370213,,
0.491392891507351,-0.0805794506759209,0.00183684198612966,,
0.492933308095148,-0.0875283033682511,0.0015565144424059,,
0.494473724682945,-0.0944612403895873,0.00127026533973451,,
0.496014141270743,-0.101509760550498,0.00101035673249594,,
0.49755455785854,-0.108407117205123,0.00076112579412202,,
0.499094974446337,-0.115206574799056,0.0004618277043269,,
0.500635391034135,-0.1220343269192,0.00019100564373753,,
0.502175807621932,-0.128928854121204,-7.37399138133199E-05,,
0.503716224209729,-0.135643074454924,-0.000356573509788127,,
0.505256640797527,-0.142275948025785,-0.000635691815934258,,
0.506797057385324,-0.149031549104089,-0.00091404887502522,,
0.508337473973121,-0.155681540863308,-0.00117610312108596,,
0.509877890560919,-0.162375813556049,-0.00144118214526712,,
0.511418307148716,-0.169023046598963,-0.00172167136978141,,
0.512958723736513,-0.175392144449215,-0.001994049607978,,
0.514499140324311,-0.182139610851234,-0.00225349338294434,,
0.516039556912108,-0.188531556531402,-0.00253646508126071,,
0.517579973499905,-0.194739375582248,-0.00278491119413138,,
0.519120390087703,-0.201130260217684,-0.00307601745721398,,
0.5206608066755,-0.207499287331621,-0.00335119816244411,,
0.522201223263297,-0.213750538480202,-0.00359695296382467,,
0.523741639851095,-0.220073162571152,-0.00387302291340186,,
