Time domain (s),Current (AC) (A),Potential (AC) (V),Frequency (Hz),Column 5
0,-0.135538090034604,-0.00415649866145618,0.0079433,0.3
0.307354153815165,-0.139277053872086,-0.00443718216607092,,
0.61470830763033,-0.143166118929682,-0.0047286365143453,,
0.922062461445495,-0.146860043265329,-0.00500014160503826,,
1.22941661526066,-0.150500020692591,-0.00530334900429086,,
1.53677076907582,-0.154345599334621,-0.00557146025522748,,
1.84412492289099,-0.157928295285917,-0.00586981722216873,,
2.15147907670615,-0.161490892473717,-0.00612253289583675,,
2.45883323052132,-0.165097569904185,-0.00641412099149052,,
2.76618738433648,-0.1686326683292,-0.00668671277964217,,
3.07354153815165,-0.172083854416617,-0.00692602027850997,,
3.38089569196681,-0.175528097294825,-0.00721676827343654,,
3.68824984578198,-0.179023774735982,-0.00751514613840554,,
3.99560399959714,-0.182449152183909,-0.00773601112751443,,
4.30295815341231,-0.185764534580699,-0.00800903968445255,,
4.61031230722747,-0.188908026870585,-0.00830855022254218,,
4.91766646104264,-0.192328790738709,-0.00856807029414508,,
5.2250206148578,-0.195326795388284,-0.00881556982001097,,
5.53237476867297,-0.198611892602805,-0.00908968507440777,,
5.83972892248813,-0.201725739216534,-0.00936704370275887,,
6.1470830763033,-0.204698483374714,-0.00958143866238181,,
6.45443723011846,-0.207883726277863,-0.00987852711902004,,
6.76179138393363,-0.210777263036264,-0.0101019688349879,,
7.06914553774879,-0.213561672644678,-0.0103747633340117,,
7.37649969156396,-0.216425198294857,-0.0106143884829062,,
7.68385384537912,-0.219287810364878,-0.0108519238289948,,
7.99120799919429,-0.222059064419004,-0.0110897601066875,,
8.29856215300945,-0.224663909847179,-0.0113383128931672,,
8.60591630682462,-0.227430550321503,-0.0115628245881716,,
8.91327046063978,-0.230093819200842,-0.0118266580127653,,
9.22062461445495,-0.232611646118879,-0.0120503505050702,,
9.52797876827011,-0.235170949576131,-0.0122549004036765,,
9.83533292208528,-0.237433704913791,-0.0124874202230316,,
10.1426870759004,-0.239732820741778,-0.0127352875541913,,
10.4500412297156,-0.242320627899989,-0.012925225551581,,
10.7573953835308,-0.244400119057766,-0.0131401743089472,,
11.0647495373459,-0.246810920060183,-0.0133688154542955,,
11.3721036911611,-0.248923985288801,-0.013586873838237,,
11.6794578449763,-0.25090755052989,-0.0137764105934881,,
11.9868119987914,-0.253057387359906,-0.0140021928885985,,
12.2941661526066,-0.254696532881075,-0.0141887872014994,,
12.6015203064218,-0.257053021543042,-0.014368677427,,
12.9088744602369,-0.2586708349675,-0.0145916363985199,,
13.2162286140521,-0.260239452100398,-0.0147763394398819,,
13.5235827678673,-0.26200846304116,-0.0149725802825333,,
13.8309369216824,-0.26393593446049,-0.0151312736381777,,
14.1382910754976,-0.265535065170697,-0.0153270630834226,,
14.4456452293128,-0.267353774872106,-0.0155025041187504,,
14.7529993831279,-0.268267537747077,-0.0156706245748506,,
15.0603535369431,-0.269885899319629,-0.015841252794317,,
15.3677076907582,-0.271450313983797,-0.0159799133002676,,
15.6750618445734,-0.272649844732484,-0.0161832929093024,,
15.9824159983886,-0.273821054496244,-0.0163057574435097,,
16.2897701522037,-0.27487733587601,-0.0164809665107262,,
16.5971243060189,-0.276010357989126,-0.0166069544524636,,
16.9044784598341,-0.277044713445077,-0.0167783705275881,,
17.2118326136492,-0.278031380016731,-0.0169352415751858,,
17.5191867674644,-0.279075967570462,-0.0170623329328046,,
17.8265409212796,-0.279779241576814,-0.017181552003255,,
18.1338950750947,-0.280605300756527,-0.0172927127940872,,
18.4412492289099,-0.281074150094094,-0.0174507353230307,,
18.7486033827251,-0.282054649999676,-0.0175473176494916,,
19.0559575365402,-0.282530762299507,-0.0176636611512815,,
19.3633116903554,-0.283275923956146,-0.0177917409856274,,
19.6706658441706,-0.283506694304294,-0.0179201551884218,,
19.9780199979857,-0.283735774529148,-0.018007559100961,,
20.2853741518009,-0.283790269585628,-0.0180933078896777,,
20.5927283056161,-0.284266564601491,-0.0182054717858566,,
20.9000824594312,-0.284505191739006,-0.0182969048382042,,
21.2074366132464,-0.284862036149088,-0.0183694627916129,,
21.5147907670615,-0.284752771962079,-0.0184298998887491,,
21.8221449208767,-0.284464263347886,-0.0185204468647071,,
22.1294990746919,-0.284356095457067,-0.0186122310039267,,
22.436853228507,-0.28426638188546,-0.0186690067665474,,
22.7442073823222,-0.284388253478662,-0.0187572800370535,,
23.0515615361374,-0.283870984392671,-0.0187960500587017,,
23.3589156899525,-0.283397019006213,-0.0188261766559465,,
23.6662698437677,-0.282953749913096,-0.0188934683062847,,
23.9736239975829,-0.282610974637462,-0.018922223992889,,
24.280978151398,-0.282052822839358,-0.0189794177160709,,
24.5883323052132,-0.281392943890556,-0.019018856474617,,
24.8956864590284,-0.280732425435643,-0.0190565565172287,,
25.2030406128435,-0.28000270328369,-0.0191082665978493,,
25.5103947666587,-0.279038693499978,-0.0190727901054224,,
25.8177489204739,-0.278226886170744,-0.0191138505509456,,
26.125103074289,-0.277035349248448,-0.0191082331610044,,
26.4324572281042,-0.27647171596939,-0.0191077316083308,,
26.7398113819194,-0.275085266720184,-0.0191204710462336,,
27.0471655357345,-0.273996096454697,-0.0191274593468154,,
27.3545196895497,-0.272653864485183,-0.0191102728085424,,
27.6618738433648,-0.271351647326632,-0.0191060430476639,,
27.96922799718,-0.27014042275191,-0.0190988875628579,,
28.2765821509952,-0.268854056209116,-0.0190813499377138,,
28.5839363048103,-0.267020181077069,-0.0190439508267057,,
28.8912904586255,-0.265736783669791,-0.0190249586988092,,
29.1986446124407,-0.263989287541772,-0.0189645048832507,,
29.5059987662558,-0.262523722250802,-0.0189540391508003,,
29.813352920071,-0.260738586620235,-0.018903482641329,,
30.1207070738862,-0.258852820135161,-0.0188635088932645,,
30.4280612277013,-0.256868843783,-0.0188071510912047,,
30.7354153815165,-0.25513961925816,-0.0187520638892509,,
31.0427695353317,-0.253490241639211,-0.0186476239042412,,
31.3501236891468,-0.251155313468995,-0.0185991237607301,,
31.657477842962,-0.249153156871671,-0.018548767872328,,
31.9648319967772,-0.246945901528666,-0.0184413185712784,,
32.2721861505923,-0.244772859762614,-0.0183786913608022,,
32.5795403044075,-0.24267815749519,-0.0183206282796529,,
32.8868944582226,-0.240161472552352,-0.0181904920793463,,
33.1942486120378,-0.237792193768159,-0.0181249057080972,,
33.501602765853,-0.235389112518085,-0.0180131430540573,,
33.8089569196681,-0.232815146099282,-0.0178923357334746,,
34.1163110734833,-0.23046053027664,-0.0178028252997078,,
34.4236652272985,-0.227647434251235,-0.0176986528094574,,
34.7310193811136,-0.225074061659535,-0.0175587864872884,,
35.0383735349288,-0.222321490319659,-0.0174519557678692,,
35.345727688744,-0.219606832556379,-0.0173306970498803,,
35.6530818425591,-0.216951922935494,-0.0172095553608491,,
35.9604359963743,-0.214050118276655,-0.0170806730422259,,
36.2677901501895,-0.21110217781979,-0.0169327818772835,,
36.5751443040046,-0.208158713905704,-0.0168103695881463,,
36.8824984578198,-0.205063550006226,-0.0166676611341616,,
37.189852611635,-0.202147036706829,-0.0164820030529178,,
37.4972067654501,-0.199062241942154,-0.0163376561935333,,
37.8045609192653,-0.195791579294144,-0.0162127716676772,,
38.1119150730805,-0.192646168485925,-0.0160626548627469,,
38.4192692268956,-0.189392544107878,-0.0158667985438119,,
38.7266233807108,-0.186010104927422,-0.0156882625105292,,
39.033977534526,-0.182592218836799,-0.0155581597470675,,
39.3413316883411,-0.179424653709725,-0.0153505169403094,,
39.6486858421563,-0.176011152803864,-0.0151567190771376,,
39.9560399959714,-0.172502456845442,-0.01500944231422,,
40.2633941497866,-0.169088590507518,-0.0148114314085928,,
40.5707483036018,-0.165471955053318,-0.0146109461764432,,
40.8781024574169,-0.161900359100953,-0.014404605316833,,
41.1854566112321,-0.158288976732666,-0.0142312687129302,,
41.4928107650473,-0.154726927692963,-0.0140481372032779,,
41.8001649188624,-0.150953293488448,-0.0138004349665404,,
42.1075190726776,-0.147290567915229,-0.0136112158613155,,
42.4148732264928,-0.143491170750233,-0.0134194701844992,,
42.7222273803079,-0.139725941483181,-0.0131978361479579,,
43.0295815341231,-0.135961762833312,-0.0129742774030324,,
43.3369356879383,-0.132048213827456,-0.0127717169966974,,
43.6442898417534,-0.128237716663529,-0.0125301211637572,,
43.9516439955686,-0.124270860255399,-0.0122913800014497,,
44.2589981493838,-0.120302496440007,-0.0120642435141214,,
44.5663523031989,-0.116419049900388,-0.0118405343033943,,
44.8737064570141,-0.112399297201055,-0.01160234693883,,
45.1810606108292,-0.108294216114878,-0.0113639923900415,,
45.4884147646444,-0.1042719053911,-0.0111534740146229,,
45.7957689184596,-0.100154719367817,-0.0108890220083988,,
46.1031230722747,-0.0961423209887641,-0.0106590747362971,,
46.4104772260899,-0.0920555571847735,-0.0104270919962626,,
46.7178313799051,-0.0878245390736864,-0.0101718539306082,,
47.0251855337202,-0.0837631271191063,-0.00989944186549785,,
47.3325396875354,-0.0794338534619252,-0.00963060963259332,,
47.6398938413506,-0.0752894884289135,-0.00939116838634568,,
47.9472479951657,-0.0710979826597004,-0.00915000723238935,,
48.2546021489809,-0.0668997163973113,-0.00886293311079545,,
48.5619563027961,-0.0625865217509275,-0.00860578705517945,,
48.8693104566112,-0.0583285073461437,-0.00835439213688449,,
49.1766646104264,-0.0539767596170528,-0.00809266523351893,,
49.4840187642416,-0.0497094266946478,-0.00782853087732116,,
49.7913729180567,-0.045439353031766,-0.00753386868174033,,
50.0987270718719,-0.0410152040750791,-0.00729421009600095,,
50.4060812256871,-0.0367395118942198,-0.00700543278512056,,
50.7134353795022,-0.0324175925573182,-0.00672085179827375,,
51.0207895333174,-0.0280882732211292,-0.00646974318296278,,
51.3281436871325,-0.0236632563632914,-0.00618307030350751,,
51.6354978409477,-0.0193689271471897,-0.00591435718936317,,
51.9428519947629,-0.0150112868260736,-0.00563162985760446,,
52.250206148578,-0.0106105712004635,-0.00536204529569018,,
52.5575603023932,-0.00622214322799115,-0.00508565633584057,,
52.8649144562084,-0.00187583130084587,-0.00476964471479846,,
53.1722686100235,0.00250643000555365,-0.00450104653980832,,
53.4796227638387,0.00687423390593797,-0.00423794872580219,,
53.7869769176539,0.0112667501496216,-0.00392569874980975,,
54.094331071469,0.0156371349139549,-0.00363404796007138,,
54.4016852252842,0.0199563591893876,-0.00336922605875101,,
54.7090393790994,0.0243059143260971,-0.00307723881076116,,
55.0163935329145,0.0286881756324967,-0.00277349851179309,,
55.3237476867297,0.0330320894117247,-0.00248828222489283,,
55.6311018405449,0.0373297303559025,-0.00220559041978197,,
55.93845599436,0.0416650336421326,-0.0018994259495595,,
56.2458101481752,0.0459246924912025,-0.00162007782893747,,
56.5531643019904,0.0502086525725001,-0.00134189999788692,,
56.8605184558055,0.0545735330163758,-0.00104170609427978,,
57.1678726096207,0.0589015505008383,-0.000779325082636007,,
57.4752267634358,0.0631487846597467,-0.000485400587445284,,
57.782580917251,0.0674526607885092,-0.000165773607549102,,
58.0899350710662,0.0716167591529541,0.000100649082720228,,
58.3972892248813,0.0758338451666174,0.000379712990160819,,
58.7046433786965,0.0800189558747178,0.000683369697016545,,
59.0119975325117,0.0842493801587017,0.000948289819069359,,
59.3193516863268,0.0884218834606088,0.00123902318537583,,
59.626705840142,0.0926027916999781,0.00156754018640637,,
59.9340599939572,0.0966305839047092,0.00183331294800348,,
60.2414141477723,0.100765995852163,0.00212857282718693,,
60.5487683015875,0.10483526459611,0.0024192769362541,,
60.8561224554027,0.10885718704832,0.00272323457471391,,
61.1634766092178,0.112872394686362,0.00299283167544528,,
61.470830763033,0.116972359723649,0.0032844385793247,,
61.7781849168482,0.120899109962802,0.00356379087955228,,
62.0855390706633,0.124761544158765,0.00383228456440232,,
62.3928932244785,0.12885822030748,0.00408797611726541,,
62.7002473782937,0.132691237222325,0.0043736270831487,,
63.0076015321088,0.136489355375099,0.00464821045337427,,
63.314955685924,0.140342653769473,0.00493776935050416,,
63.6223098397391,0.143971028728716,0.00524020979212736,,
63.9296639935543,0.14775690490736,0.00551519858409666,,
64.2370181473695,0.15148924528869,0.00578426069531002,,
64.5443723011846,0.155159827651276,0.00606315741852592,,
64.8517264549998,0.158847060012258,0.0063116558701326,,
65.159080608815,0.16230292819799,0.00659435185484902,,
65.4664347626301,0.166034537715193,0.00685987384010911,,
65.7737889164453,0.169345717643252,0.00712557972801653,,
66.0811430702605,0.173033658028858,0.00740132920820757,,
66.3884972240756,0.176480618808039,0.00764611199042564,,
66.6958513778908,0.179827040090729,0.0078940754525143,,
67.003205531706,0.183086534221297,0.00817099940188193,,
67.3105596855211,0.186462190069073,0.00840084427364607,,
67.6179138393363,0.189839147768576,0.00866487831930884,,
67.9252679931515,0.192974554874055,0.00893409507592979,,
68.2326221469666,0.196242065670517,0.00918234693080544,,
68.5399763007818,0.19937582833171,0.00942265753501959,,
68.8473304545969,0.202504657660045,0.00965676142490191,,
69.1546846084121,0.205272440109567,0.00992133881929425,,
69.4620387622273,0.208325990432806,0.0101637852019758,,
69.7693929160424,0.211376982731599,0.0103983446688698,,
70.0767470698576,0.214092873828094,0.0106185095740385,,
70.3841012236728,0.216994587128916,0.0108151349404064,,
70.6914553774879,0.219588058484113,0.0110938352221583,,
70.9988095313031,0.222639233498938,0.0112908409326367,,
71.3061636851183,0.225316206080662,0.0115283929971479,,
71.6135178389334,0.227774102140272,0.0117690170717832,,
71.9208719927486,0.230250817951156,0.0119651617835053,,
72.2282261465638,0.232923953496212,0.0121775526222376,,
72.5355803003789,0.235362664372484,0.012398854380133,,
72.8429344541941,0.237681513531904,0.0126104427345881,,
73.1502886080093,0.240058466389432,0.0128083052642167,,
73.4576427618244,0.242514900720787,0.0130142218938576,,
73.7649969156396,0.244522767194104,0.0132340775082116,,
74.0723510694548,0.247053201518334,0.0133906580732193,,
74.3797052232699,0.248991087751476,0.0136012934775951,,
74.6870593770851,0.251111507300373,0.0138056594735545,,
74.9944135309002,0.253373714489939,0.0139800660564933,,
75.3017676847154,0.255023640256983,0.0141579166344559,,
75.6091218385306,0.256855368475656,0.0143550644515247,,
75.9164759923457,0.258757076934504,0.0145353893560092,,
76.2238301461609,0.260477896521882,0.0147290179451534,,
76.5311842999761,0.262159432162425,0.0148651685979342,,
76.8385384537912,0.264083980125246,0.0150418029106638,,
77.1458926076064,0.265526523196211,0.0152211372486186,,
77.4532467614216,0.267157811928013,0.0153855503945413,,
77.7606009152367,0.268468799456091,0.0155226414585847,,
78.0679550690519,0.270051668439469,0.0156639288466618,,
78.3753092228671,0.271235485609422,0.015838719953317,,
78.6826633766822,0.272615357081484,0.015954340383336,,
78.9900175304974,0.273818724866839,0.0161122166260834,,
79.2973716843126,0.274992492655044,0.0162672089409588,,
79.6047258381277,0.275725366658545,0.016390494767669,,
79.9120799919429,0.276730670265442,0.0165148171365703,,
80.2194341457581,0.277609534378341,0.0166381614777587,,
80.5267882995732,0.278670931806997,0.0167736183160083,,
80.8341424533884,0.279518734194492,0.0168834541718619,,
81.1414966072036,0.280470867436139,0.0170284530497211,,
81.4488507610187,0.281102699474061,0.0171204712468547,,
81.7562049148339,0.281643721644185,0.0172250449792437,,
82.063559068649,0.282071277158568,0.0173395118381143,,
82.3709132224642,0.282641899325842,0.0174242282642454,,
82.6782673762794,0.283115316564204,0.0174967402419917,,
82.9856215300945,0.283217637542005,0.0176097902145602,,
83.2929756839097,0.283749889342603,0.0176993131871437,,
83.6003298377249,0.284038032524733,0.0177910806079407,,
83.90768399154,0.284237558431445,0.01786029487686,,
84.2150381453552,0.284283237439392,0.0179427166995105,,
84.5223922991704,0.28431265472051,0.018006246704799,,
84.8297464529855,0.284279400402724,0.0180613673435976,,
85.1371006068007,0.284133775725389,0.0181475508112983,,
85.4444547606159,0.283948136237093,0.0181824087220948,,
85.751808914431,0.283638067131149,0.0182737749007527,,
86.0591630682462,0.283569914051292,0.0182953876413676,,
86.3665172220613,0.283384822711091,0.0183438250907946,,
86.6738713758765,0.282589459824719,0.0183881121918494,,
86.9812255296917,0.282068901850155,0.0184143768335092,,
87.2885796835069,0.281330911797764,0.0184380166828455,,
87.595933837322,0.280833193327174,0.0184984537799817,,
87.9032879911372,0.280205015609887,0.0185222231970918,,
88.2106421449523,0.279479084815594,0.0185547739655911,,
88.5179962987675,0.278450210840597,0.0185726501387897,,
88.8253504525827,0.277812349173626,0.0185662135461486,,
89.1327046063978,0.276720438167662,0.0185753919600704,,
89.440058760213,0.27557462593232,0.0185611269661199,,
89.7474129140282,0.274547944549704,0.0185713461018389,,
90.0547670678433,0.273542092794712,0.0186183624853582,,
90.3621212216585,0.272011663312457,0.0185778161313248,,
90.6694753754737,0.27069464615533,0.0185784806886171,,
90.9768295292888,0.269614063543337,0.0185496455895064,,
91.284183683104,0.26814776738824,0.0185383104990891,,
91.5915378369192,0.266543520629142,0.0184992186478086,,
91.8988919907343,0.265141723233266,0.018486211715147,,
92.2062461445495,0.263466217221772,0.0184539953150966,,
92.5136002983647,0.261950039589996,0.0184090561955665,,
92.8209544521798,0.260059476809087,0.0183391773693549,,
93.128308605995,0.258220622665175,0.0183373049060411,,
93.4356627598101,0.256452845057627,0.0182286518785757,,
93.7430169136253,0.254339916866033,0.0181993235860025,,
94.0503710674405,0.252841645405372,0.0181296453808604,,
94.3577252212556,0.250490090076263,0.0180867960641358,,
94.6650793750708,0.248426495213251,0.0180039729993466,,
94.972433528886,0.246276292951172,0.0179446727549366,,
95.2797876827011,0.244226767222608,0.017856353508769,,
95.5871418365163,0.242120416808157,0.0177904285894654,,
95.8944959903315,0.239526580020897,0.0177138247778257,,
96.2018501441466,0.237117651857806,0.0176213719017086,,
96.5092042979618,0.234535326180549,0.0175401872423189,,
96.816558451777,0.232401933793394,0.0174256326117308,,
97.1239126055921,0.22992521798251,0.0173387302518653,,
97.4312667594073,0.227137336769491,0.0172349924405983,,
97.7386209132225,0.224521208626353,0.0171455655989434,,
98.0459750670376,0.221864700240189,0.0170440346194392,,
98.3533292208528,0.219148809143695,0.0169269555070617,,
98.660683374668,0.216417204468467,0.016776071744502,,
98.9680375284831,0.213536868943363,0.0167078940177738,,
99.2753916822983,0.21064429144413,0.0165552255636183,,
99.5827458361134,0.207740750982989,0.0164295322840764,,
99.8900999899286,0.204470864878114,0.0162729809763076,,
100.197454143744,0.20165996144509,0.0161459042473084,,
100.504808297559,0.198615546923441,0.0160290424744227,,
100.812162451374,0.195382752173019,0.0158704013638489,,
101.119516605189,0.192093132736711,0.0157058795481801,,
101.426870759004,0.188772817007062,0.01558259372147,,
101.73422491282,0.185547696329975,0.0153950339196731,,
102.041579066635,0.18208266950315,0.0152577882102221,,
102.34893322045,0.178841104383202,0.0151142438351153,,
102.656287374265,0.175476731250389,0.014965148943757,,
102.96364152808,0.172068917381018,0.0147687200188531,,
103.270995681895,0.16854834488053,0.0146156670409812,,
103.578349835711,0.165165722984042,0.0144202119641847,,
103.885703989526,0.16135353569682,0.0142247777854161,,
104.193058143341,0.157830199616351,0.0140650917734395,,
104.500412297156,0.154149042563426,0.0138935607591608,,
104.807766450971,0.150438810821942,0.0136907537560944,,
105.115120604786,0.1468299864781,0.0134975765643564,,
105.422474758602,0.143041004126916,0.0132817041141498,,
105.729828912417,0.139267735354465,0.0130905122350766,,
106.037183066232,0.135495928310269,0.0128974311742671,,
106.344537220047,0.131661997815264,0.0127019259422037,,
106.651891373862,0.12767878832229,0.0124585558666817,,
