Time domain (s),Current (AC) (A),Potential (AC) (V),Frequency (Hz),Column 5
0,-0.314903858736748,-0.00556644438262,15.849,0.5
0.000231062488169601,-0.322583488304811,-0.00578050903986727,,
0.000462124976339201,-0.329838275561806,-0.00598207347120727,,
0.000693187464508802,-0.337276835766545,-0.00619379861465186,,
0.000924249952678403,-0.344347708603163,-0.00638743402810649,,
0.001155312440848,-0.351354565074227,-0.00659003729256868,,
0.0013863749290176,-0.357888549275978,-0.00679467030346093,,
0.0016174374171872,-0.364832450426222,-0.00699438639909689,,
0.00184849990535681,-0.371099051355272,-0.00717984977275021,,
0.00207956239352641,-0.377073723510134,-0.00739068326535985,,
0.00231062488169601,-0.383020384084046,-0.00757387558208844,,
0.00254168736986561,-0.388574882524664,-0.00776043255436676,,
0.00277274985803521,-0.394338477513986,-0.00791158362938615,,
0.00300381234620481,-0.399688689475356,-0.00808019463111842,,
0.00323487483437441,-0.405114164876448,-0.00826313879166474,,
0.00346593732254401,-0.4099327226903,-0.00842395597784584,,
0.00369699981071361,-0.414444850785279,-0.00861022885408103,,
0.00392806229888321,-0.418965467238122,-0.00871892468483804,,
0.00415912478705281,-0.423157301296384,-0.00889283253749928,,
0.00439018727522241,-0.427327065624202,-0.00901898487212494,,
0.00462124976339201,-0.431078000227771,-0.00916236095723511,,
0.00485231225156161,-0.434471999383179,-0.00931141896321197,,
0.00508337473973121,-0.438414558665517,-0.00943091728930456,,
0.00531443722790081,-0.441011713226489,-0.0095652159924029,,
0.00554549971607042,-0.444332924713217,-0.00968192127787626,,
0.00577656220424002,-0.44688339330594,-0.00979913314424596,,
0.00600762469240962,-0.44923721494149,-0.00988132247187368,,
0.00623868718057922,-0.451595563701235,-0.0100068860773495,,
0.00646974966874882,-0.453041131045391,-0.0101079695032822,,
0.00670081215691842,-0.455045868963805,-0.0102117210360317,,
0.00693187464508802,-0.456506361670537,-0.010304755644543,,
0.00716293713325762,-0.457487049949035,-0.010370460555968,,
0.00739399962142722,-0.458912245234318,-0.0104636029840623,,
0.00762506210959682,-0.45959555804233,-0.0105346064578384,,
0.00785612459776642,-0.459853038230856,-0.0105846758183472,,
0.00808718708593602,-0.460260196463043,-0.0106382347682077,,
0.00831824957410562,-0.460124382737227,-0.0106822953262569,,
0.00854931206227522,-0.459778057736395,-0.0107548185427224,,
0.00878037455044482,-0.459505086294768,-0.0107785320052334,,
0.00901143703861442,-0.45854102105042,-0.0108416629380486,,
0.00924249952678403,-0.457555522702467,-0.010875466944364,,
0.00947356201495363,-0.4565895475776,-0.01091103713813,,
0.00970462450312323,-0.455252348268835,-0.0109143778337724,,
0.00993568699129283,-0.453325420297503,-0.0109396110389723,,
0.0101667494794624,-0.451562176160305,-0.0109689105827213,,
0.010397811967632,-0.449359164349463,-0.0109211824474373,,
0.0106288744558016,-0.44689018399223,-0.0109348190575185,,
0.0108599369439712,-0.444337451837411,-0.01092042942178,,
0.0110909994321408,-0.441516770519367,-0.0109487431864865,,
0.0113220619203104,-0.43806406022207,-0.0108850919813994,,
0.01155312440848,-0.434852772969673,-0.0108689224668352,,
0.0117841868966496,-0.431151565995921,-0.0108263149060193,,
0.0120152493848192,-0.427750351736329,-0.0108246856323251,,
0.0122463118729888,-0.423357697278279,-0.0107509438834326,,
0.0124773743611584,-0.419367886137168,-0.0107101162014427,,
0.012708436849328,-0.414904919781481,-0.0106833084880504,,
0.0129394993374976,-0.409997800100587,-0.0106429582927836,,
0.0131705618256672,-0.405457377479396,-0.0105504199966373,,
0.0134016243138368,-0.400383603039115,-0.0104884237365734,,
0.0136326868020064,-0.394818069733275,-0.0103842066970539,,
0.013863749290176,-0.388963366369551,-0.0103228556430643,,
0.0140948117783456,-0.38341792217732,-0.0102318901436882,,
0.0143258742665152,-0.377278858825169,-0.0101414842792886,,
0.0145569367546848,-0.371374922985836,-0.0100499454535594,,
0.0147879992428544,-0.365278301423002,-0.00994157992723821,,
0.015019061731024,-0.358373588191562,-0.00982649022408388,,
0.0152501242191936,-0.351857924695533,-0.00970434603965975,,
0.0154811867073632,-0.344843216493445,-0.00962347279551024,,
0.0157122491955328,-0.337962695081916,-0.00950331728338982,,
0.0159433116837024,-0.330464504163186,-0.00935130194028666,,
0.016174374171872,-0.322871809526908,-0.00919813652163448,,
0.0164054366600416,-0.315287532512179,-0.00908036330886564,,
0.0166364991482112,-0.307384376187044,-0.00894464070270695,,
0.0168675616363808,-0.299359907080776,-0.00879300700669816,,
0.0170986241245504,-0.291265762703712,-0.00863817295164671,,
0.01732968661272,-0.283039978043448,-0.00847100296719461,,
0.0175607491008896,-0.274597740257664,-0.0083170811000417,,
0.0177918115890593,-0.266043385411767,-0.00816056300579326,,
0.0180228740772289,-0.25737889412259,-0.00797059516957299,,
0.0182539365653985,-0.248498303389472,-0.00780632604532272,,
0.0184849990535681,-0.239612973323213,-0.00762896967743654,,
0.0187160615417377,-0.230520173643507,-0.0074398626864558,,
0.0189471240299073,-0.221234617503984,-0.00727518282093786,,
0.0191781865180769,-0.212013289938962,-0.00708746208173494,,
0.0194092490062465,-0.202479237122984,-0.00690707649700117,,
0.0196403114944161,-0.192775275677106,-0.00666821675857188,,
0.0198713739825857,-0.18327347862101,-0.00646680293236379,,
0.0201024364707553,-0.173524033724246,-0.00627513907699306,,
0.0203334989589249,-0.163676123876265,-0.00604531393502716,,
0.0205645614470945,-0.153668349955189,-0.00584160166914272,,
0.0207956239352641,-0.143680948092984,-0.00562553635963825,,
0.0210266864234337,-0.133596991160083,-0.00544155165454763,,
0.0212577489116033,-0.123310303946874,-0.00520089834591753,,
0.0214888113997729,-0.113114937317014,-0.00497707173787898,,
0.0217198738879425,-0.102830796611165,-0.00472230262102213,,
0.0219509363761121,-0.0924786075697761,-0.00451385142776362,,
0.0221819988642817,-0.0819773771115674,-0.00431444852234453,,
0.0224130613524513,-0.0716263905875429,-0.00406426772772983,,
0.0226441238406209,-0.0610433889485825,-0.00381783665860302,,
0.0228751863287905,-0.0505681894544886,-0.00359531073124542,,
0.0231062488169601,-0.0399427460262106,-0.00333996486519172,,
0.0233373113051297,-0.0294164041759891,-0.00310563868350267,,
0.0235683737932993,-0.0188282387859951,-0.00288063461716437,,
0.0237994362814689,-0.00821064708874083,-0.00260694401925088,,
0.0240304987696385,0.00237539621178736,-0.00237082426736057,,
0.0242615612578081,0.0129894864614229,-0.00212328248538984,,
0.0244926237459777,0.0236378484559323,-0.00188888784682284,,
0.0247236862341473,0.0342644944015743,-0.00163169364506555,,
0.0249547487223169,0.0448528366323572,-0.00137830735714273,,
0.0251858112104865,0.0553506717474204,-0.00113676410909935,,
0.0254168736986561,0.0657851271237695,-0.000888157822676927,,
0.0256479361868257,0.0763067296408505,-0.000649061908018833,,
0.0258789986749953,0.0867550493350433,-0.000392719994391832,,
0.0261100611631649,0.0972338917493869,-0.000126176294533042,,
0.0263411236513345,0.107614339948829,0.000136722076576667,,
0.0265721861395041,0.117750005128383,0.000377529413182476,,
0.0268032486276737,0.128042421983149,0.000634475458757056,,
0.0270343111158433,0.138209246509693,0.000908576797937766,,
0.0272653736040129,0.14826876404558,0.00113332072814032,,
0.0274964360921825,0.15826097597724,0.00138871964827425,,
0.0277274985803521,0.16814764932613,0.00164978679789973,,
0.0279585610685217,0.177831132608663,0.00189995218971672,,
0.0281896235566913,0.187651915079638,0.00215562836020622,,
0.0284206860448609,0.19735520453052,0.00239621321195838,,
0.0286517485330305,0.206942557160248,0.0026415763537897,,
0.0288828110212001,0.216147049482175,0.00284830243372447,,
0.0291138735093697,0.225585785112977,0.00310668949657922,,
0.0293449359975393,0.23450284041675,0.00335707395040563,,
0.0295759984857089,0.243614526692702,0.00359389367387264,,
0.0298070609738785,0.252637332788192,0.00383160333675292,,
0.0300381234620481,0.261281062968761,0.00406883722433138,,
0.0302691859502177,0.269958711212626,0.00430878884996311,,
0.0305002484383873,0.278595615338746,0.00453766757559171,,
0.0307313109265569,0.286648520443856,0.00477667791915204,,
0.0309623734147265,0.29492099107237,0.00498767570826875,,
0.0311934359028961,0.303014640295225,0.00523268287433476,,
0.0314244983910657,0.310941634758694,0.00541965229930241,,
0.0316555608792353,0.318589079303191,0.0056588508992772,,
0.0318866233674049,0.32608316751562,0.00588970802867772,,
0.0321176858555745,0.333493220985201,0.00610383771995915,,
0.0323487483437441,0.34084951485498,0.00628857545070671,,
0.0325798108319137,0.347804875288339,0.00647815992841094,,
0.0328108733200833,0.354431453327118,0.00669505870040377,,
0.0330419358082529,0.360836768170922,0.00689518553730739,,
0.0332729982964225,0.367487396556981,0.00708338718607759,,
0.0335040607845921,0.373449619120309,0.00727788686761599,,
0.0337351232727617,0.37967017070795,0.00745688448915027,,
0.0339661857609313,0.385754908569775,0.00764178993924869,,
0.0341972482491009,0.391381275106971,0.00781638236068893,,
0.0344283107372705,0.396488720033444,0.00800173620333799,,
0.0346593732254401,0.40179168013604,0.00819471271934269,,
0.0348904357136097,0.406883280127835,0.00830677662849366,,
0.0351214982017793,0.411756729322537,0.00850218336366471,,
0.0353525606899489,0.41614238088535,0.00863693388215703,,
0.0355836231781185,0.420698365495957,0.00879313878618859,,
0.0358146856662881,0.424732316097958,0.0089354880181296,,
0.0360457481544577,0.428844076647042,0.00908231432988682,,
0.0362768106426273,0.432359105638321,0.00923639707070301,,
0.0365078731307969,0.435854328461252,0.00938753958861271,,
0.0367389356189665,0.439260706471878,0.00949861429587751,,
0.0369699981071361,0.44209581799829,0.00961870135111997,,
0.0372010605953057,0.444931212469964,0.00973288742348588,,
0.0374321230834753,0.447316441029609,0.00983638053152136,,
0.0376631855716449,0.449558216341362,0.00993717643856673,,
0.0378942480598145,0.45166304614625,0.0100450644781644,,
0.0381253105479841,0.453527655423601,0.01018305985267,,
0.0383563730361537,0.454977184001426,0.0102395128170447,,
0.0385874355243233,0.456417375385601,0.010329858781676,,
0.0388184980124929,0.4572217887658,0.0104216628778069,,
0.0390495605006625,0.45849023237587,0.0104972803451542,,
0.0392806229888321,0.459108750718858,0.0105805752513604,,
0.0395116854770017,0.459274273697196,0.0106257430994101,,
0.0397427479651713,0.459444323799728,0.0106989474618109,,
0.0399738104533409,0.459371323922102,0.010753274840126,,
0.0402048729415105,0.458995006723487,0.0107936507067214,,
0.0404359354296801,0.458525034643111,0.0108033613148542,,
0.0406669979178497,0.457701946875612,0.0108842499618014,,
0.0408980604060193,0.45664571221213,0.010905947369257,,
0.0411291228941889,0.454945211186807,0.0108880150900865,,
0.0413601853823585,0.453689783058794,0.0109578684883136,,
0.0415912478705281,0.452177723578041,0.0109430544199323,,
0.0418223103586977,0.450008948143914,0.0109485583529167,,
0.0420533728468673,0.447750762006959,0.010963276581669,,
0.0422844353350369,0.444988933303435,0.0109401381569332,,
0.0425154978232065,0.442451197247508,0.0109354009409812,,
0.0427465603113761,0.439354078408376,0.0109169586580702,,
0.0429776227995457,0.436396451583468,0.0109055811249603,,
0.0432086852877153,0.432982999941289,0.010884427949684,,
0.0434397477758849,0.429314614617943,0.0108704353638376,,
0.0436708102640545,0.425158714607969,0.0108064829484871,,
0.0439018727522241,0.420898690741536,0.0107348496714348,,
0.0441329352403937,0.416811263484994,0.0107449128324886,,
0.0443639977285633,0.412391375545465,0.0106721979367648,,
0.0445950602167329,0.407489631824551,0.0106101760053714,,
0.0448261227049025,0.402505551032361,0.010522072003492,,
0.0450571851930721,0.397265687723217,0.0104652117206938,,
0.0452882476812417,0.391739200863549,0.0103718365392149,,
0.0455193101694113,0.386377388146433,0.0102854439592832,,
0.0457503726575809,0.380602192401364,0.0102164976146888,,
0.0459814351457505,0.37430779210031,0.0101058678771304,,
0.0462124976339201,0.368334251726497,0.0100162441325611,,
0.0464435601220897,0.361856785840853,0.00989767682000853,,
0.0466746226102593,0.355097506474141,0.00979297887092168,,
0.0469056850984289,0.348257870652988,0.00967579438730315,,
0.0471367475865985,0.341346649680519,0.00956641741061048,,
0.0473678100747681,0.334208789553095,0.0094166577216348,,
0.0475988725629377,0.327005003179597,0.00929529736846302,,
0.0478299350511073,0.319382740763429,0.00915714796598222,,
0.0480609975392769,0.311974950855945,0.00899191017690937,,
0.0482920600274465,0.304015134742071,0.0088843370389502,,
0.0485231225156161,0.295895737500363,0.00871971193893462,,
0.0487541850037857,0.287890933089812,0.0085594406963545,,
0.0489852474919553,0.279509528535383,0.00842130840809308,,
0.0492163099801249,0.270915632089105,0.00822005887839161,,
0.0494473724682945,0.262488355034056,0.00806078710622948,,
0.0496784349564641,0.253650029249466,0.00788906987366156,,
0.0499094974446337,0.244641335048925,0.00773137260969126,,
0.0501405599328033,0.235755722037404,0.00755405560451017,,
0.0503716224209729,0.226666388437159,0.00735355567762186,,
0.0506026849091425,0.217386597307351,0.00716515208106205,,
0.0508337473973121,0.207886179609408,0.00697896306450252,,
0.0510648098854817,0.198571303267098,0.00677124093699399,,
0.0512958723736513,0.188783979073368,0.00656175604487963,,
0.0515269348618209,0.179096216243746,0.00636594541412894,,
0.0517579973499905,0.169390910807872,0.00617967424931587,,
0.0519890598381601,0.15935569119637,0.00593921261994357,,
0.0522201223263297,0.149480052712702,0.00569752903530052,,
0.0524511848144993,0.139443135429628,0.00550113994393131,,
0.0526822473026689,0.129210985915692,0.00529239096325407,,
0.0529133097908385,0.119041367304685,0.00507115202520092,,
0.0531443722790081,0.108789128677139,0.00483629359128646,,
0.0533754347671778,0.0983979639258938,0.00463003986380928,,
0.0536064972553474,0.087990671294708,0.00439467484899803,,
0.053837559743517,0.0776162003139278,0.00415276193381375,,
0.0540686222316865,0.0671118574578359,0.00390564629590795,,
0.0542996847198561,0.0566624059825946,0.0036680838153158,,
0.0545307472080258,0.0461026058551278,0.00345217424520827,,
0.0547618096961954,0.0355377127129428,0.00321533056183387,,
0.054992872184365,0.024982722654932,0.00299108978968432,,
0.0552239346725346,0.014364635803469,0.00271105666203209,,
0.0554549971607042,0.00381869999384594,0.00248307472150389,,
0.0556860596488738,-0.00678722021134596,0.00222870265453867,,
0.0559171221370434,-0.0174754774878139,0.00195485802865036,,
0.056148184625213,-0.0280904519413935,0.00176332937561341,,
0.0563792471133826,-0.038700050434993,0.001470375012254,,
0.0566103096015522,-0.0493254938632709,0.00123002633673019,,
0.0568413720897218,-0.0598190140630869,0.000980059469859018,,
0.0570724345778914,-0.0703262571081155,0.000733423030098823,,
0.057303497066061,-0.0807235759188117,0.000466276909714569,,
0.0575345595542306,-0.0913069312393498,0.000236792340716274,,
0.0577656220424002,-0.101649995296035,-3.87568614326206E-05,,
0.0579966845305698,-0.111988249283264,-0.000264842546442434,,
0.0582277470187394,-0.122133605338045,-0.000518228834365253,,
0.058458809506909,-0.132358822693059,-0.000790016331072785,,
0.0586898719950786,-0.142539829850867,-0.00104076018350785,,
0.0589209344832482,-0.152460668840158,-0.00129184803175519,,
0.0591519969714178,-0.162428052325067,-0.00151627534889709,,
0.0593830594595874,-0.172361977532731,-0.00179174582563624,,
0.059614121947757,-0.182141131682018,-0.00201651713858997,,
0.0598451844359266,-0.191794021508084,-0.0022814726388809,,
0.0600762469240962,-0.20140008389327,-0.0025308062796312,,
0.0603073094122658,-0.210714924867422,-0.00275337328111602,,
0.0605383719004354,-0.22010531222656,-0.00300614174571567,,
0.060769434388605,-0.229348214367819,-0.00322888844650526,,
0.0610004968767746,-0.238357262249938,-0.00347488139161323,,
0.0612315593649442,-0.247546475527711,-0.00369931042017724,,
0.0614626218531138,-0.256387666133079,-0.00396092693624794,,
0.0616936843412834,-0.26511963986727,-0.00419517096968303,,
0.061924746829453,-0.273752016869197,-0.00443143105817345,,
0.0621558093176226,-0.28219821588865,-0.00465105270248545,,
0.0623868718057922,-0.290287903877836,-0.00487325174825148,,
0.0626179342939618,-0.298642428632363,-0.00509432467837589,,
0.0628489967821314,-0.30656185431007,-0.00532347894293794,,
0.063080059270301,-0.314184611880447,-0.00554188205482342,,
0.0633111217584706,-0.322050207222036,-0.00574525374773982,,
0.0635421842466402,-0.329516566798779,-0.00596832733012143,,
0.0637732467348098,-0.336955127003518,-0.00617855840220516,,
0.0640043092229794,-0.343880000084884,-0.00639121284776767,,
0.064235371711149,-0.350897325530646,-0.00654391275964983,,
0.0644664341993186,-0.357627178590098,-0.00676460404267942,,
0.0646974966874882,-0.36406764938272,-0.00698385773127308,,
0.0649285591756578,-0.37057475378457,-0.00716766444848105,,
0.0651596216638274,-0.376770972079669,-0.00737502033169246,,
0.065390684151997,-0.382923899749664,-0.00754786025705823,,
0.0656217466401666,-0.388402002969511,-0.00775431250948122,,
0.0658528091283362,-0.394144589273121,-0.00790866907780918,,
0.0660838716165058,-0.399389050442774,-0.00805868548007682,,
0.0663149341046754,-0.404689746983273,-0.00822848592006276,,
0.066545996592845,-0.409626010026165,-0.00839068593517833,,
0.0667770590810146,-0.414383663872346,-0.00855797058490104,,
0.0670081215691842,-0.418610724615743,-0.00872078671191723,,
0.0672391840573538,-0.423143507714856,-0.00884543128380733,,
0.0674702465455234,-0.427131550448079,-0.00901541142309759,,
0.067701309033693,-0.430833040367093,-0.00915287283395561,,
0.0679323715218626,-0.434573293787017,-0.0092836922162336,,
0.0681634340100322,-0.437940342406209,-0.00942226433993598,,
0.0683944964982018,-0.440853334616019,-0.00953352045792721,,
0.0686255589863714,-0.443779766725779,-0.00968389283596016,,
0.068856621474541,-0.446322312851162,-0.00978199325343754,,
0.0690876839627106,-0.448969760932474,-0.00991043033636396,,
0.0693187464508802,-0.451069214777382,-0.0100136769996388,,
0.0695498089390498,-0.453449704003888,-0.0100879116380526,,
0.0697808714272194,-0.454972020250392,-0.0101918702528576,,
0.070011933915389,-0.456317990862283,-0.0103014012575251,,
0.0702429964035586,-0.457687162985667,-0.010362505866754,,
0.0704740588917282,-0.458784636921103,-0.0104501443618639,,
0.0707051213798978,-0.459398628139897,-0.0105031573681229,,
0.0709361838680674,-0.459966216335703,-0.0105653025218966,,
0.071167246356237,-0.460357812578473,-0.0106431790662151,,
0.0713983088444066,-0.460017995318671,-0.010683157882919,,
0.0716293713325762,-0.460186913640154,-0.0107406633717915,,
0.0718604338207458,-0.459410228895643,-0.0107841180864714,,
0.0720914963089154,-0.459009861349748,-0.0108376376736268,,
0.072322558797085,-0.458055840662205,-0.0108440880229486,,
0.0725536212852546,-0.456768368983257,-0.0108918965950644,,
0.0727846837734242,-0.455272437382445,-0.0109211002991838,,
0.0730157462615938,-0.453448572222839,-0.0109355583917998,,
0.0732468087497634,-0.451629517132689,-0.010952029116627,,
0.073477871237933,-0.449671252973578,-0.0109524672406454,,
0.0737089337261026,-0.446880563853318,-0.0109359554416919,,
0.0739399962142722,-0.44424634346301,-0.0109379663624805,,
0.0741710587024418,-0.441500359694165,-0.010924345155197,,
0.0744021211906114,-0.438424532486007,-0.0108952372907067,,
0.074633183678781,-0.435212962288348,-0.0108944431909226,,
0.0748642461669506,-0.431392423150298,-0.0108544506828436,,
0.0750953086551202,-0.427615386846299,-0.0108153618055526,,
0.0753263711432898,-0.423604354810529,-0.0107643357601752,,
0.0755574336314594,-0.419666393388701,-0.0107171946426194,,
0.075788496119629,-0.415059407894597,-0.0106416319407741,,
0.0760195586077986,-0.410126823140112,-0.0106196709743385,,
0.0762506210959682,-0.405444927887863,-0.0105372488933257,,
0.0764816835841378,-0.40071641740368,-0.010475185887806,,
0.0767127460723074,-0.394989534562117,-0.0104154504161356,,
