Time domain (s),Current (AC) (A),Potential (AC) (V),Frequency (Hz),Column 5
0,0.356173577102457,0.00820224604058595,7.9433,0.4
0.000307354153815165,0.358442359152617,0.00829292463013465,,
0.00061470830763033,0.359807764550527,0.00836386996105665,,
0.000922062461445495,0.361231687322634,0.00844401930497218,,
0.00122941661526066,0.362899079972922,0.00852329726304202,,
0.00153677076907582,0.364110319115922,0.00862966079781025,,
0.00184412492289099,0.36532954858311,0.00868043717718292,,
0.00215147907670615,0.366829849454067,0.0087780868534959,,
0.00245883323052132,0.36787799197983,0.00885019403221232,,
0.00276618738433648,0.368804634576036,0.00888817193197911,,
0.00307354153815165,0.370026449148108,0.00898627545508646,,
0.00338089569196681,0.370678835617058,0.00901704626775635,,
0.00368824984578198,0.371200791794125,0.00905918140416118,,
0.00399560399959714,0.371951412248673,0.0091479901449163,,
0.00430295815341231,0.372565492163431,0.00921332592945801,,
0.00461031230722747,0.372879229892555,0.00925498906519673,,
0.00491766646104264,0.373399070983807,0.00929044357678599,,
0.0052250206148578,0.373985184763909,0.00934739227256465,,
0.00553237476867297,0.374109739817419,0.00939854988324518,,
0.00583972892248813,0.374070963244156,0.00941951760515281,,
0.0061470830763033,0.374283176854193,0.00949937648711963,,
0.00645443723011846,0.374258500853026,0.00955011655874882,,
0.00676179138393363,0.374146636314402,0.00957560459473017,,
0.00706914553774879,0.374173662410918,0.00959969478258449,,
0.00737649969156396,0.373737719723633,0.0096282462844286,,
0.00768385384537912,0.37337674507799,0.00969681799661526,,
0.00799120799919429,0.372999319764901,0.00972409872743496,,
0.00829856215300945,0.372359623810837,0.00976901594469082,,
0.00860591630682462,0.371918040894714,0.00976246239697742,,
0.00891327046063978,0.371063546225729,0.0097819551168028,,
0.00922062461445495,0.370095541951376,0.00984248466379034,,
0.00952797876827011,0.369241517301461,0.00984208527861119,,
0.00983533292208528,0.368399713147362,0.00986202276829529,,
0.0101426870759004,0.366980020546884,0.00988382102983687,,
0.0104500412297156,0.365908142058094,0.00986318007762144,,
0.0107573953835308,0.365016750892126,0.00990814721802424,,
0.0110647495373459,0.363614213987697,0.00992013331186792,,
0.0113721036911611,0.362046465380217,0.00991018045166392,,
0.0116794578449763,0.360513028164835,0.00993460194767781,,
0.0119868119987914,0.358856680962688,0.00991070691394524,,
0.0122941661526066,0.35760925035131,0.00992397739421769,,
0.0126015203064218,0.355687812393768,0.00992343277806418,,
0.0129088744602369,0.35383288213461,0.00991435584217371,,
0.0132162286140521,0.351920844558466,0.00989848935823634,,
0.0135235827678673,0.34984124518392,0.00988769234299447,,
0.0138309369216824,0.347757180628211,0.0098952443536553,,
0.0141382910754976,0.345871229110443,0.00987164432033971,,
0.0144456452293128,0.343773298992173,0.00987216624415321,,
0.0147529993831279,0.341218040318941,0.00983972527527976,,
0.0150603535369431,0.33867194701757,0.00980627222805408,,
0.0153677076907582,0.336366268470428,0.00978473265918556,,
0.0156750618445734,0.333663188799728,0.00975859108382027,,
0.0159824159983886,0.330728389727592,0.00971037440036815,,
0.0162897701522037,0.328256089420188,0.00968594382741816,,
0.0165971243060189,0.325473106507614,0.0096347499089946,,
0.0169044784598341,0.322500940919425,0.00960205478591591,,
0.0172118326136492,0.319893745138975,0.00959072676992401,,
0.0175191867674644,0.316805014821464,0.0095607728814846,,
0.0178265409212796,0.313746835743493,0.00948763093207683,,
0.0181338950750947,0.310636719558304,0.00947196414072948,,
0.0184412492289099,0.307006762281863,0.00941347236584944,,
0.0187486033827251,0.303910276649699,0.00936229660129717,,
0.0190559575365402,0.300335076594895,0.0093071269849534,,
0.0193633116903554,0.297190414008072,0.00926197830583275,,
0.0196706658441706,0.293490188880688,0.0091646009375963,,
0.0199780199979857,0.289799129125166,0.00912940058021183,,
0.0202853741518009,0.286415931860395,0.00906226756236395,,
0.0205927283056161,0.282561305468566,0.00903498229307642,,
0.0209000824594312,0.278834524263736,0.00893757315556476,,
0.0212074366132464,0.274919500421431,0.00888154576877875,,
0.0215147907670615,0.27105429860053,0.00880951574401756,,
0.0218221449208767,0.267056081382862,0.00874573665398115,,
0.0221294990746919,0.263160798341491,0.00866561000240562,,
0.022436853228507,0.258928276617503,0.00856795578762481,,
0.0227442073823222,0.254720900913752,0.00850263815695484,,
0.0230515615361374,0.250599303690249,0.00842978213102752,,
0.0233589156899525,0.246283823600433,0.00834533485796785,,
0.0236662698437677,0.2420052400076,0.00825632642462315,,
0.0239736239975829,0.237513297133248,0.00819157156397843,,
0.024280978151398,0.232855349398663,0.008100293896661,,
0.0245883323052132,0.228373276924778,0.00800155952650927,,
0.0248956864590284,0.223761449811422,0.00792561734237918,,
0.0252030406128435,0.219133172030622,0.00783531998413745,,
0.0255103947666587,0.214576366524631,0.00776014480109044,,
0.0258177489204739,0.209714459889924,0.00761299405489746,,
0.026125103074289,0.204994557766695,0.00754549795961346,,
0.0264324572281042,0.200260966338057,0.00744060488845966,,
0.0267398113819193,0.195185230402761,0.00735425599733119,,
0.0270471655357345,0.190407721567283,0.00722230004181901,,
0.0273545196895497,0.185268533057557,0.00713036429664937,,
0.0276618738433648,0.180255280282359,0.00701267728435795,,
0.02796922799718,0.175312354110487,0.00689422327098344,,
0.0282765821509952,0.170254214514118,0.00679517574654342,,
0.0285839363048103,0.16520033446557,0.00671644694309492,,
0.0288912904586255,0.160111232362975,0.00656146280122805,,
0.0291986446124407,0.154669821591337,0.00647140144331981,,
0.0295059987662558,0.149388687322516,0.00634065725874899,,
0.029813352920071,0.144265479461165,0.00620924138092249,,
0.0301207070738862,0.13884615958581,0.00610013661151587,,
0.0304280612277013,0.133412504128824,0.0059932829222098,,
0.0307354153815165,0.128088862510374,0.00588484530759059,,
0.0310427695353317,0.122509001746473,0.00576390421378203,,
0.0313501236891468,0.117120938139263,0.0056359239561905,,
0.031657477842962,0.111635580584593,0.00552852565073092,,
0.0319648319967772,0.106158918382716,0.00536826327064333,,
0.0322721861505923,0.100674500866186,0.00524792579307176,,
0.0325795403044075,0.0951346210994146,0.00509559211648503,,
0.0328868944582226,0.0895120473525412,0.00497029409344885,,
0.0331942486120378,0.0838948200725874,0.00485267515817611,,
0.033501602765853,0.0782651372872826,0.00471574050332801,,
0.0338089569196681,0.0727081312006531,0.00459423663949465,,
0.0341163110734833,0.0670176103219948,0.004466651228614,,
0.0344236652272985,0.0612878428510041,0.00430920723712047,,
0.0347310193811136,0.0556360985456082,0.0042121339462371,,
0.0350383735349288,0.049889616021446,0.00402328375656147,,
0.035345727688744,0.044256261212158,0.00391424706417398,,
0.0356530818425591,0.0385711161766111,0.00375423429982336,,
0.0359604359963743,0.0327694064117416,0.00360045739043002,,
0.0362677901501895,0.0270549439367129,0.00344273201392431,,
0.0365751443040046,0.0213251764657222,0.00331916314717517,,
0.0368824984578198,0.0155300763440225,0.00318172018391749,,
0.037189852611635,0.00978617892474442,0.0030304076626182,,
0.0374972067654501,0.00401413911365919,0.00288149145239469,,
0.0378045609192653,-0.00170693300453933,0.0027577365084599,,
0.0381119150730805,-0.00751607494595074,0.00261486553753931,,
0.0384192692268956,-0.0132769811803189,0.00242192618824522,,
0.0387266233807108,-0.0190370061289312,0.00231952019752546,,
0.0390339775345259,-0.0248220595930128,0.00213948825106813,,
0.0393413316883411,-0.0305054714332397,0.00200064743968298,,
0.0396486858421563,-0.0363440483189004,0.00185267976925951,,
0.0399560399959714,-0.042036273016687,0.00171774204030761,,
0.0402633941497866,-0.0476954201224329,0.00157392706805437,,
0.0405707483036018,-0.0534675480620938,0.00141841646390573,,
0.0408781024574169,-0.0590911499756824,0.0012578817757416,,
0.0411854566112321,-0.0648011178933557,0.00110282501838777,,
0.0414928107650473,-0.0703995737867075,0.000953041960786383,,
0.0418001649188624,-0.076174169326485,0.000820899928088537,,
0.0421075190726776,-0.0818119893169366,0.000661708626436663,,
0.0424148732264928,-0.087426014591977,0.000502667094226528,,
0.0427222273803079,-0.092938339490779,0.000332529007890159,,
0.0430295815341231,-0.0985733981191952,0.000194060350876324,,
0.0433369356879383,-0.104074736322239,3.20778914377762E-05,,
0.0436442898417534,-0.109634826909015,-0.000127403872162812,,
0.0439516439955686,-0.115088869443155,-0.000268041916854589,,
0.0442589981493837,-0.120556425025554,-0.000405702726573587,,
0.0445663523031989,-0.126009351264404,-0.000560282944793489,,
0.0448737064570141,-0.131403818881442,-0.000713885123170943,,
0.0451810606108293,-0.136869846901863,-0.000885672942605442,,
0.0454884147646444,-0.142210849849706,-0.00100194849136637,,
0.0457957689184596,-0.147454676354856,-0.00117453508115917,,
0.0461031230722747,-0.152612665627376,-0.00133819450450368,,
0.0464104772260899,-0.157970824271268,-0.00146726853287049,,
0.0467178313799051,-0.163107310171342,-0.00162010597939899,,
0.0470251855337202,-0.168314827703347,-0.00180258869854688,,
0.0473325396875354,-0.173408130601379,-0.00192124240451097,,
0.0476398938413506,-0.178473114850452,-0.00203461333378652,,
0.0479472479951657,-0.183444976571312,-0.00221404393324143,,
0.0482546021489809,-0.18853175795475,-0.00235025243321818,,
0.0485619563027961,-0.193291641075108,-0.00252592971968202,,
0.0488693104566112,-0.198322725198768,-0.00264333080849299,,
0.0491766646104264,-0.203250405127062,-0.00280929350431958,,
0.0494840187642416,-0.207883853117631,-0.00295265462977845,,
0.0497913729180567,-0.212764296129405,-0.00309369205964938,,
0.0500987270718719,-0.217392103891135,-0.00321495992314969,,
0.0504060812256871,-0.221998525785187,-0.00335596104527713,,
0.0507134353795022,-0.226797185478808,-0.00351620527149255,,
0.0510207895333174,-0.23128046237656,-0.00365174207821317,,
0.0513281436871325,-0.23577031954129,-0.00380831922232883,,
0.0516354978409477,-0.240168757996934,-0.00393485170864638,,
0.0519428519947629,-0.244527244831641,-0.00405631926473626,,
0.052250206148578,-0.248815463815406,-0.00421398564115893,,
0.0525575603023932,-0.253049395596603,-0.00436769447353313,,
0.0528649144562084,-0.257353653981126,-0.00449881988941137,,
0.0531722686100235,-0.261596457372267,-0.00463827793243698,,
0.0534796227638387,-0.265682333146462,-0.00474168238610462,,
0.0537869769176539,-0.269840650609797,-0.00489406825507244,,
0.054094331071469,-0.273852909647177,-0.00501894646982359,,
0.0544016852252842,-0.277669699503883,-0.00513378559347988,,
0.0547090393790994,-0.281442542577559,-0.00528079791640046,,
0.0550163935329145,-0.285093004435923,-0.0053828226758128,,
0.0553237476867297,-0.288707392330675,-0.00553776824070207,,
0.0556311018405449,-0.29265343743159,-0.00565563906094546,,
0.05593845599436,-0.29601378001909,-0.00581746267400618,,
0.0562458101481752,-0.299569004263426,-0.00592809236864245,,
0.0565531643019904,-0.302987100444133,-0.00599961862346188,,
0.0568605184558055,-0.30629433087674,-0.00612417233775497,,
0.0571678726096207,-0.309667892750579,-0.00626644423090683,,
0.0574752267634358,-0.312986168631327,-0.00635085973469085,,
0.057782580917251,-0.315715451865171,-0.00649365809012448,,
0.0580899350710662,-0.319164393047337,-0.0066197730373907,,
0.0583972892248813,-0.321951371122005,-0.0067192381008816,,
0.0587046433786965,-0.324966778464619,-0.00683117487428664,,
0.0590119975325117,-0.32778119390249,-0.00693550517541475,,
0.0593193516863268,-0.33049954919296,-0.00704889425856248,,
0.059626705840142,-0.333307795630538,-0.00714077100364863,,
0.0599340599939572,-0.33569801885787,-0.00725902532443357,,
0.0602414141477723,-0.338399688471361,-0.00737304979309306,,
0.0605487683015875,-0.340620528576396,-0.00745169236565069,,
0.0608561224554027,-0.342861579501434,-0.00755473374188265,,
0.0611634766092178,-0.345249511385801,-0.0076405289399224,,
0.061470830763033,-0.347538327998813,-0.00772822802526507,,
0.0617781849168482,-0.349671274537786,-0.00784648688451783,,
0.0620855390706633,-0.351778311275534,-0.00794048536336867,,
0.0623928932244785,-0.353498581071181,-0.00802822302568851,,
0.0627002473782936,-0.355512142766412,-0.00812596347136019,,
0.0630076015321088,-0.357364487920686,-0.00822225160728962,,
0.063314955685924,-0.3592202994656,-0.00829855233038712,,
0.0636223098397391,-0.360290121620959,-0.00837436289894677,,
0.0639296639935543,-0.36235327032806,-0.00844311161138345,,
0.0642370181473695,-0.363969430899735,-0.00851670740758603,,
0.0645443723011846,-0.364645553331713,-0.00858482073451006,,
0.0648517264549998,-0.366460120703247,-0.00867065224029329,,
0.065159080608815,-0.367423189777367,-0.00874107110893396,,
0.0654664347626301,-0.368600998814024,-0.00882924446417688,,
0.0657737889164453,-0.369660891816533,-0.00887900422672994,,
0.0660811430702605,-0.370352289868281,-0.00894054585206927,,
0.0663884972240756,-0.37153485784802,-0.00901528761142778,,
0.0666958513778908,-0.372371961811421,-0.00907550173489291,,
0.067003205531706,-0.372541344933717,-0.0091142602511467,,
0.0673105596855211,-0.373323691675481,-0.00919437328731876,,
0.0676179138393363,-0.374022140013276,-0.00923810596444019,,
0.0679252679931514,-0.374180360182664,-0.00928543310817487,,
0.0682326221469666,-0.374790914954397,-0.00935685043976342,,
0.0685399763007818,-0.374694561045078,-0.00940802620431525,,
0.068847330454597,-0.374760363714857,-0.00945718461986589,,
0.0691546846084121,-0.374816766003239,-0.00949835987030045,,
0.0694620387622273,-0.374850842385803,-0.00951395177692671,,
0.0697693929160425,-0.374884918768367,-0.00957213720522043,,
0.0700767470698576,-0.374655490709897,-0.00958863907466956,,
0.0703841012236728,-0.374395863926189,-0.00963843514496654,,
0.0706914553774879,-0.373647358557455,-0.00967990085734938,,
0.0709988095313031,-0.373408588869972,-0.00970565893217357,,
0.0713061636851183,-0.372946560124311,-0.00974285621545379,,
0.0716135178389334,-0.372190534450459,-0.00975345807657435,,
0.0719208719927486,-0.371624631490361,-0.00978718797034439,,
0.0722282261465638,-0.370476374902721,-0.00980940830940513,,
0.0725355803003789,-0.369931387791231,-0.00985038159801599,,
0.0728429344541941,-0.36867667188427,-0.00986270807695533,,
0.0731502886080093,-0.367783635651557,-0.00987701332791913,,
0.0734576427618244,-0.36615625337459,-0.0098863262641431,,
0.0737649969156396,-0.364888788200359,-0.00992352354742376,,
0.0740723510694548,-0.363869610599776,-0.00987510717138207,,
0.0743797052232699,-0.362314258745263,-0.00989818074241677,,
0.0746870593770851,-0.360876176648677,-0.00988071671776281,,
0.0749944135309003,-0.359236808885429,-0.00989956043667206,,
0.0753017676847154,-0.357736508014471,-0.00989391458254785,,
0.0756091218385306,-0.355885807926942,-0.00989070134724246,,
0.0759164759923457,-0.353752156359364,-0.00990206567097784,,
0.0762238301461609,-0.352072308203725,-0.00988656226447659,,
0.0765311842999761,-0.349718217692387,-0.00987051424182139,,
0.0768385384537912,-0.347843546632296,-0.00984811236404326,,
0.0771458926076064,-0.345679755091863,-0.00985027267478511,,
0.0774532467614216,-0.343314912894303,-0.00984602466878837,,
0.0777606009152367,-0.340824751862245,-0.00978740581680571,,
0.0780679550690519,-0.338464316093465,-0.00976518547774496,,
0.0783753092228671,-0.336058523484444,-0.00978577196834518,,
0.0786826633766822,-0.333431410645908,-0.0097091989371707,,
0.0789900175304974,-0.330685500487469,-0.0096837109011898,,
0.0792973716843126,-0.32806984436376,-0.00968923194744509,,
0.0796047258381277,-0.325309657376074,-0.00964760285021615,,
0.0799120799919429,-0.322346422150213,-0.00961394557193307,,
0.0802194341457581,-0.31910728573035,-0.00957502594006776,,
0.0805267882995732,-0.31653111120851,-0.00953325161186447,,
0.0808341424533884,-0.312917369589978,-0.00945422780799943,,
0.0811414966072035,-0.309763247869374,-0.00943374797139596,,
0.0814488507610187,-0.306814641987062,-0.00937647477515924,,
0.0817562049148339,-0.303327570507854,-0.00932077869653325,,
0.082063559068649,-0.300013701055886,-0.00927730017361661,,
0.0823709132224642,-0.29652239940505,-0.0092272317952431,,
0.0826782673762794,-0.292977515580251,-0.00916677940221078,,
0.0829856215300945,-0.289330226350609,-0.00911122855455915,,
0.0832929756839097,-0.285738516875976,-0.00904037399299584,,
0.0836003298377249,-0.282024896205101,-0.00899201434780394,,
0.08390768399154,-0.277938550411837,-0.00893237660976753,,
0.0842150381453552,-0.274195318539561,-0.00885202757326242,,
0.0845223922991704,-0.269996403179068,-0.00878903136894671,,
0.0848297464529855,-0.266181199636722,-0.00873335571342659,,
0.0851371006068007,-0.262139564407477,-0.00864509158882498,,
0.0854444547606159,-0.258034417851418,-0.00860493522444417,,
0.085751808914431,-0.253952537239317,-0.00851051693730831,,
0.0860591630682462,-0.249430483768303,-0.00841384757007191,,
0.0863665172220613,-0.244968592738229,-0.00834400735609409,,
0.0866738713758765,-0.240685132697546,-0.00827023229040824,,
0.0869812255296917,-0.236266894688585,-0.00818949975336158,,
0.0872885796835068,-0.231601955420336,-0.00808072402288085,,
0.087595933837322,-0.227175550830036,-0.00797216386962729,,
0.0879032879911372,-0.222628527595936,-0.00790074653803874,,
0.0882106421449523,-0.217929335687972,-0.00778995345855593,,
0.0885179962987675,-0.213335134289736,-0.00770404706805206,,
0.0888253504525827,-0.208573606102634,-0.00760598212192187,,
0.0891327046063978,-0.203915952129968,-0.0075401017212271,,
0.089440058760213,-0.199034804089589,-0.00741709108603539,,
0.0897474129140282,-0.194036680053201,-0.00731900798603347,,
0.0900547670678433,-0.189061939465539,-0.00720314770708974,,
0.0903621212216585,-0.184136844642129,-0.00711096234618358,,
0.0906694753754737,-0.17900846657101,-0.00700069572898254,,
0.0909768295292888,-0.173910404729896,-0.00689855977710563,,
0.091284183683104,-0.168794717173663,-0.00680339945046082,,
0.0915915378369192,-0.163825440557687,-0.00668453016726911,,
0.0918988919907343,-0.158512521249268,-0.00657720220806279,,
0.0922062461445495,-0.153236380933065,-0.00644064878452211,,
0.0925136002983647,-0.14798650293239,-0.00634201879913343,,
0.0928209544521798,-0.142666298328389,-0.00621526846635456,,
0.093128308605995,-0.137371122239857,-0.00608793720967915,,
0.0934356627598101,-0.132125298153659,-0.00597852382445163,,
0.0937430169136253,-0.126696284134988,-0.00586569524209546,,
0.0940503710674405,-0.121170504940312,-0.00573792829249697,,
0.0943577252212556,-0.115665230327557,-0.00559970698198642,,
0.0946650793750708,-0.110224700841675,-0.00549005986565998,,
0.094972433528886,-0.104647689568385,-0.00536809988579767,,
0.0952797876827011,-0.0990659781043966,-0.00521791290454932,,
0.0955871418365163,-0.0936081166653134,-0.00510131058609664,,
0.0958944959903315,-0.0880390957162109,-0.00494393467162224,,
0.0962018501441466,-0.0824126736882032,-0.00483542897998435,,
0.0965092042979618,-0.0768554619682307,-0.00468064679994118,,
0.096816558451777,-0.0711539543938146,-0.00455756354926207,,
0.0971239126055921,-0.0654447502571298,-0.00443903918963473,,
0.0974312667594073,-0.0598217358673785,-0.00428653078203212,,
0.0977386209132225,-0.0541401453510473,-0.00415502186561278,,
0.0980459750670376,-0.0483817067167958,-0.00401343981958835,,
0.0983533292208528,-0.0426982948765689,-0.00387481685466495,,
0.0986606833746679,-0.0369606545861582,-0.00372363141046828,,
0.0989680375284831,-0.0312100300189429,-0.00360363431799238,,
0.0992753916822983,-0.0254450111177136,-0.00344667594256931,,
0.0995827458361134,-0.0197316943141676,-0.00330694559146671,,
0.0998900999899286,-0.0140416434545791,-0.00317135432313043,,
0.100197454143744,-0.00819883639728973,-0.00302517934754576,,
0.100504808297559,-0.00252171106212207,-0.0028626295796137,,
0.100812162451374,0.00331639580446878,-0.00272433338438205,,
0.101119516605189,0.00900715169266205,-0.00256548700629367,,
0.101426870759004,0.0148739297225137,-0.00243606805436336,,
