Time domain (s),Current (AC) (A),Potential (AC) (V),Frequency (Hz),Column 5
0,-0.398581029510483,-0.0077183504000895,39.811,0.5
0.000239167174273442,-0.410973466100682,-0.00803191028370165,,
0.000478334348546884,-0.42104688332257,-0.00836361295138399,,
0.000717501522820326,-0.429951453666652,-0.00863202894685378,,
0.000956668697093768,-0.437677556994018,-0.00891823517347268,,
0.00119583587136721,-0.443750694100096,-0.00912230512654411,,
0.00143500304564065,-0.447919326646865,-0.00930225087583736,,
0.00167417021991409,-0.450574980140779,-0.00949692683383674,,
0.00191333739418754,-0.451787471325266,-0.00963836216645753,,
0.00215250456846098,-0.451728052820221,-0.00972389047830546,,
0.00239167174273442,-0.449269541437687,-0.0097563253470625,,
0.00263083891700786,-0.445763000804272,-0.00976730583028074,,
0.0028700060912813,-0.440330381035311,-0.00978094244036187,,
0.00310917326555475,-0.43339008743716,-0.00971942708986528,,
0.00334834043982819,-0.425117333863384,-0.00964356317775739,,
0.00358750761410163,-0.414918288945116,-0.00948934352318531,,
0.00382667478837507,-0.403573810869484,-0.00934974625773632,,
0.00406584196264851,-0.390790414663355,-0.00917128088842789,,
0.00430500913692196,-0.376458105356083,-0.0089573377421388,,
0.0045441763111954,-0.361095309404181,-0.00871613677848515,,
0.00478334348546884,-0.344127364980289,-0.008423839601154,,
0.00502251065974228,-0.325972748127079,-0.0081025851644636,,
0.00526167783401572,-0.306667392892839,-0.00778419222527038,,
0.00550084500828917,-0.286236481405898,-0.00740704959344818,,
0.00574001218256261,-0.264841858356187,-0.0070381217869766,,
0.00597917935683605,-0.242492295046831,-0.00660398195860079,,
0.00621834653110949,-0.219346523769878,-0.00615802647309627,,
0.00645751370538294,-0.195183281330352,-0.00568875457497331,,
0.00669668087965638,-0.170587132639787,-0.00518989732563613,,
0.00693584805392982,-0.145186075414815,-0.0047027171082501,,
0.00717501522820326,-0.119438551716381,-0.00418934186652864,,
0.0074141824024767,-0.0932081111918291,-0.00362881866156384,,
0.00765334957675015,-0.0665201481784338,-0.00310751953622379,,
0.00789251675102359,-0.039678828832971,-0.00253322109600029,,
0.00813168392529703,-0.0126267152672312,-0.00196156509126411,,
0.00837085109957047,0.0144106851448786,-0.00139382481994454,,
0.00861001827384391,0.0414710041232198,-0.000831508044778495,,
0.00884918544811735,0.0682789359277527,-0.000219091103508262,,
0.0090883526223908,0.0948316511058562,0.000378566534882552,,
0.00932751979666424,0.12128816489484,0.00096754041830982,,
0.00956668697093768,0.147089625033865,0.00152721646941023,,
0.00980585414521112,0.172312214534757,0.00211917678413664,,
0.0100450213194846,0.197064902691588,0.00268691705545621,,
0.010284188493758,0.221007094145084,0.0032484688250114,,
0.0105233556680314,0.244242311493024,0.00379550773644866,,
0.0107625228423049,0.2665165759945,0.00432281737566997,,
0.0110016900165783,0.28787133913041,0.00483979002632573,,
0.0112408571908518,0.308108150167539,0.00532523143901287,,
0.0114800243651252,0.327056145535725,0.00581490348675517,,
0.0117191915393987,0.345221231363633,0.00628721487025796,,
0.0119583587136721,0.361858978666635,0.00670627707127247,,
0.0121975258879455,0.37734117751915,0.00711845935605604,,
0.012436693062219,0.391473161580844,0.0075254765694015,,
0.0126758602364924,0.404243330095968,0.00788325959614822,,
0.0129150274107659,0.415597357574197,0.00821871198931845,,
0.0131541945850393,0.425141384210664,0.00855663909862558,,
0.0133933617593128,0.433310862763767,0.00880677368484761,,
0.0136325289335862,0.439919615251033,0.0090673582134837,,
0.0138716961078596,0.445561543777645,0.00926667725922758,,
0.0141108632821331,0.448716383450249,0.009419801603753,,
0.0143500304564065,0.450949670404138,0.00959631081777479,,
0.01458919763068,0.451151976266551,0.00970063909972074,,
0.0148283648049534,0.45020552436477,0.00977091693059062,,
0.0150675319792268,0.447240823908309,0.00977815966827444,,
0.0153066991535003,0.442701816013429,0.00981798787984678,,
0.0155458663277737,0.436602647943236,0.0097736552057075,,
0.0157850335020472,0.429289078808037,0.0097100587661223,,
0.0160242006763206,0.420246997066565,0.00960054487567419,,
0.0162633678505941,0.409640793916111,0.00944667435117941,,
0.0165025350248675,0.397526209573311,0.00930753232396864,,
0.0167417021991409,0.383787236480699,0.00910303451541017,,
0.0169808693734144,0.368825373965216,0.00885545679357858,,
0.0172200365476878,0.353052024437982,0.00861133956692539,,
0.0174592037219613,0.335638441226257,0.00831069065048817,,
0.0176983708962347,0.316843236299614,0.00796602396155022,,
0.0179375380705082,0.297192121955067,0.00763009237023438,,
0.0181767052447816,0.276491245319909,0.00724992394440882,,
0.018415872419055,0.254564437600313,0.00681711560230802,,
0.0186550395933285,0.23184934438046,0.00637855003677501,,
0.0188942067676019,0.208227340859206,0.00592020727921128,,
0.0191333739418754,0.183828970906861,0.00543435170241313,,
0.0193725411161488,0.158851730316382,0.0049452683838207,,
0.0196117082904222,0.133285326953861,0.0044324613341864,,
0.0198508754646957,0.107166366862583,0.00390388866556712,,
0.0200900426389691,0.0807491824650333,0.0033514964262773,,
0.0203292098132426,0.0539070142837842,0.00281478081203002,,
0.020568376987516,0.0269482726545429,0.00222867698320961,,
0.0208075441617895,-0.000136910138706842,0.0016898837027175,,
0.0210467113360629,-0.0271587839295579,0.00111068375003498,,
0.0212858785103363,-0.0540230925775677,0.000474308612915753,,
0.0215250456846098,-0.0806948569747068,-8.58586162837405E-05,,
0.0217642128588832,-0.107392157181752,-0.000669361083743603,,
0.0220033800331567,-0.133456225892179,-0.00125066779684424,,
0.0222425472074301,-0.159255670046212,-0.0018499119233808,,
0.0224817143817036,-0.184318183265061,-0.00240326255896184,,
0.022720881555977,-0.208503495435032,-0.00297155048530451,,
0.0229600487302504,-0.232159699964844,-0.00352308016793312,,
0.0231992159045239,-0.255041412575927,-0.00405423708369312,,
0.0234383830787973,-0.276771679442824,-0.00460916051604432,,
0.0236775502530708,-0.297643419648143,-0.00508997595520633,,
0.0239167174273442,-0.317540696370732,-0.00559150473420367,,
0.0241558846016176,-0.336300816084872,-0.00602541180919491,,
0.0243950517758911,-0.353701383814541,-0.0064953562961434,,
0.0246342189501645,-0.370059086044362,-0.00694573409596133,,
0.024873386124438,-0.384748896690319,-0.00733222622588459,,
0.0251125532987114,-0.398345901997664,-0.00771102380273048,,
0.0253517204729849,-0.410320145490454,-0.00805610294435777,,
0.0255908876472583,-0.420788554298257,-0.00837616623137238,,
0.0258300548215317,-0.429747803814244,-0.00866933965674077,,
0.0260692219958052,-0.437579304251748,-0.00892038471943923,,
0.0263083891700786,-0.443713911216021,-0.00914944143295049,,
0.0265475563443521,-0.448112295315629,-0.00934199693915616,,
0.0267867235186255,-0.450642957740003,-0.00948475691236483,,
0.027025890692899,-0.451890180455415,-0.00963754068392264,,
0.0272650578671724,-0.451316084518579,-0.00971445712052832,,
0.0275042250414458,-0.449594079653335,-0.00978072337835245,,
0.0277433922157193,-0.445785070534717,-0.00977711056662045,,
0.0279825593899927,-0.44046456782587,-0.00976663495287688,,
0.0282217265642662,-0.433708400857041,-0.00975173873624202,,
0.0284608937385396,-0.425669360069774,-0.00966672898524434,,
0.028700060912813,-0.415524640641833,-0.0095311826555462,,
0.0289392280870865,-0.403747892942001,-0.00940737154614535,,
0.0291783952613599,-0.391127968361061,-0.00919969049276359,,
0.0294175624356334,-0.377038709033947,-0.00897762836075344,,
0.0296567296099068,-0.36122348360792,-0.00874584706350134,,
0.0298958967841803,-0.344535867202471,-0.00843939300381669,,
0.0301350639584537,-0.326708688753845,-0.00814437124274425,,
0.0303742311327271,-0.30708049297553,-0.00783052384024474,,
0.0306133983070006,-0.286876715797754,-0.00744478302455631,,
0.030852565481274,-0.265456132520243,-0.00704145050266503,,
0.0310917326555475,-0.243122767827143,-0.00662947529993696,,
0.0313308998298209,-0.21983998030701,-0.00619224122067941,,
0.0315700670040944,-0.195972910820605,-0.00572652908020777,,
0.0318092341783678,-0.171218666464832,-0.00520544901687714,,
0.0320484013526412,-0.146059810384233,-0.00471711872394209,,
0.0322875685269147,-0.120170460373162,-0.00418757567907857,,
0.0325267357011881,-0.0938419085789711,-0.00367005708482138,,
0.0327659028754616,-0.0672515616810061,-0.00310096136731941,,
0.033005070049735,-0.0404173867034118,-0.0025692020310335,,
0.0332442372240084,-0.0133736200229044,-0.0020046809443981,,
0.0334834043982819,0.0137483102862628,-0.00140654410786167,,
0.0337225715725553,0.0407741099426258,-0.000822141432457624,,
0.0339617387468288,0.0674937628253782,-0.000237026805522955,,
0.0342009059211022,0.0941763498787933,0.000347115733745351,,
0.0344400730953757,0.120559863790151,0.000934379906646576,,
0.0346792402696491,0.146477366854802,0.00153129649933437,,
0.0349184074439225,0.171802099595318,0.0020886039424588,,
0.035157574618196,0.19635555891946,0.00266127310898812,,
0.0353967417924694,0.220394800597863,0.00321406582101424,,
0.0356359089667429,0.2436379757813,0.00376477059826374,,
0.0358750761410163,0.266138030601945,0.00431326421835676,,
0.0361142433152898,0.287157468234089,0.00483710651671121,,
0.0363534104895632,0.30750010079925,0.00533994966776508,,
0.0365925776638366,0.326764428970482,0.00581763833902782,,
0.0368317448381101,0.344937720210992,0.00629746971056999,,
0.0370709120123835,0.361519727297356,0.00670543162883019,,
0.037310079186657,0.376862151190386,0.00714749876366882,,
0.0375492463609304,0.391362529983356,0.00752392944396041,,
0.0377884135352038,0.40393746626762,0.00788323221339704,,
0.0380275807094773,0.414865661126363,0.00823292363717432,,
0.0382667478837507,0.42489352416105,0.00851235092145686,,
0.0385059150580242,0.4332590837808,0.00878983403040667,,
0.0387450822322976,0.440146254405988,0.00904253574955094,,
0.0389842494065711,0.445197110280038,0.00922816341971133,,
0.0392234165808445,0.448867476220219,0.00941621446335006,,
0.0394625837551179,0.450759531187995,0.00955425091198236,,
0.0397017509293914,0.451307596160716,0.0096977912935996,,
0.0399409181036648,0.449994447199231,0.00974905180378416,,
0.0401800852779383,0.447255820007201,0.00980521382642729,,
0.0404192524522117,0.443090582803577,0.00979226178512516,,
0.0406584196264852,0.436928883830456,0.00979180996973117,,
0.0408975868007586,0.42940989643496,0.0097406761047707,,
0.041136753975032,0.420141458483795,0.00961352087688327,,
0.0413759211493055,0.409724545713698,0.0094537117182294,,
0.0416150883235789,0.397977224321126,0.00931220108304265,,
0.0418542554978524,0.384357937074388,0.00910781622833268,,
0.0420934226721258,0.369736174763971,0.00887600754832896,,
0.0423325898463992,0.353389578135688,0.00861124372729627,,
0.0425717570206727,0.335996084037572,0.00830651478093536,,
0.0428109241949461,0.317576347473759,0.00795871276698845,,
0.0430500913692196,0.297841198386363,0.00761224908500546,,
0.043289258543493,0.276784659556724,0.00725655057019114,,
0.0435284257177665,0.255107692503578,0.00683392518868065,,
0.0437675928920399,0.232354118728076,0.00640133248574593,,
0.0440067600663133,0.208783292931108,0.00591396058910165,,
0.0442459272405868,0.184575911030692,0.0054730846039388,,
0.0444850944148602,0.159513220971054,0.00496228334082716,,
0.0447242615891337,0.1340042908649,0.00444851789490164,,
0.0449634287634071,0.107933431468182,0.00389885023935266,,
0.0452025959376805,0.0814265180543835,0.00337104771061014,,
0.045441763111954,0.0546016449022813,0.00282604881413517,,
0.0456809302862274,0.0276072521700133,0.00223418433903788,,
0.0459200974605009,0.00055825100215675,0.00168662515532869,,
0.0461592646347743,-0.0264921648920104,0.00108658692900798,,
0.0463984318090478,-0.0533496121174138,0.000506455962785868,,
0.0466375989833212,-0.0800522882844392,-6.36939906359935E-05,,
0.0468767661575946,-0.106716200950555,-0.000662691672412397,,
0.0471159333318681,-0.132883544681655,-0.00124386318317926,,
0.0473551005061415,-0.158547528791449,-0.00181954445233679,,
0.047594267680415,-0.183650503182781,-0.00241361323890299,,
0.0478334348546884,-0.208100581381777,-0.00294616667497261,,
0.0480726020289619,-0.23164919597567,-0.00353647204467533,,
0.0483117692032353,-0.254616145846965,-0.00406803799028133,,
0.0485509363775087,-0.276201544739659,-0.00457769773495365,,
0.0487901035517822,-0.297257765255878,-0.00509731282109716,,
0.0490292707260556,-0.317043561545192,-0.00557755322248443,,
0.0492684379003291,-0.335711441103883,-0.00603155923683163,,
0.0495076050746025,-0.353296489144451,-0.0065037747807053,,
0.0497467722488759,-0.369438304139277,-0.00694325595698064,,
0.0499859394231494,-0.384341738458132,-0.00732533946396607,,
0.0502251065974228,-0.397931953079187,-0.00769582808725477,,
0.0504642737716963,-0.410189778460933,-0.00805960793650717,,
0.0507034409459697,-0.420871174314795,-0.00837387977164994,,
0.0509426081202432,-0.429734434650609,-0.00868290609852185,,
0.0511817752945166,-0.437537428352954,-0.00890186028827467,,
0.05142094246879,-0.443637798940511,-0.00914511495826575,,
0.0516601096430635,-0.44784378026188,-0.00934788423065713,,
0.0518992768173369,-0.450695585558757,-0.0095034730227872,,
0.0521384439916104,-0.452192083050093,-0.00963277437379739,,
0.0523776111658838,-0.451418510703466,-0.00971970091737706,,
0.0526167783401572,-0.44952645573569,-0.00976124226231923,,
0.0528559455144307,-0.445739799292778,-0.00980305401192894,,
0.0530951126887041,-0.440378481729871,-0.00979752269619327,,
0.0533342798629776,-0.433988445930221,-0.00974206064512684,,
0.053573447037251,-0.425368872201406,-0.00962744842869556,,
0.0538126142115245,-0.415902938457283,-0.00952874730211439,,
0.0540517813857979,-0.404313571257288,-0.00938227696612248,,
0.0542909485600713,-0.391718545859414,-0.00923137062444157,,
0.0545301157343448,-0.377346765688077,-0.00895928191747153,,
0.0547692829086182,-0.361931129708474,-0.0087510378062694,,
0.0550084500828917,-0.345184094797981,-0.00842890541011965,,
0.0552476172571651,-0.327004295816442,-0.00812968039674322,,
0.0554867844314386,-0.307447968134705,-0.0078151073513375,,
0.055725951605712,-0.287323840048214,-0.00745749033251952,,
0.0559651187799854,-0.265999387423507,-0.00704840572146148,,
0.0562042859542589,-0.243678118640363,-0.0066328159955793,,
0.0564434531285323,-0.220509994687703,-0.00616741875674665,,
0.0566826203028058,-0.196446561189389,-0.00572072393696033,,
0.0569217874770792,-0.171949231131618,-0.00524659160050556,,
0.0571609546513526,-0.146558076990821,-0.00474381861775175,,
0.0574001218256261,-0.120762169652564,-0.00420360827988686,,
0.0576392889998995,-0.094533709744847,-0.003655544226703,,
0.057878456174173,-0.0679829044472629,-0.00313365637221263,,
0.0581176233484464,-0.041038380817443,-0.00255382661625303,,
0.0583567905227199,-0.0140623087908971,-0.00199372613250937,,
0.0585959576969933,0.0130890478255303,-0.00141217126322646,,
0.0588351248712667,0.0400180802022493,-0.000833902324083535,,
0.0590742920455402,0.0668829193726255,-0.000268393746984508,,
0.0593134592198136,0.0934322038394257,0.000324129625562719,,
0.0595526263940871,0.119879663380022,0.000911789136933905,,
0.0597917935683605,0.145668709295671,0.00151781391722849,,
0.060030960742634,0.171081438012706,0.00207745573989016,,
0.0602701279169074,0.195738172357521,0.00265735737557149,,
0.0605092950911808,0.220040588497851,0.00322182540812621,,
0.0607484622654543,0.243109964554032,0.00376132037161669,,
0.0609876294397277,0.265377756682637,0.00430384112911142,,
0.0612267966140012,0.286611949768728,0.00480367217753663,,
0.0614659637882746,0.306877904167854,0.00533299444896862,,
0.061705130962548,0.326392638896061,0.00579388722523477,,
0.0619442981368215,0.344342120434236,0.00625219233151508,,
0.0621834653110949,0.361119925641985,0.00668407308292007,,
0.0624226324853684,0.376499415364352,0.00709701866189238,,
0.0626617996596418,0.390818426244305,0.00749046772203421,,
0.0629009668339153,0.403587745923643,0.00790222557417541,,
0.0631401340081887,0.415090885555008,0.0081989279516006,,
0.0633793011824621,0.424715268645916,0.00853689613503406,,
0.0636184683567356,0.432938506798821,0.00878623319862859,,
0.063857635531009,0.43994338265305,0.00903588174101699,,
0.0640968027052825,0.445078839160473,0.00923985243161551,,
0.0643359698795559,0.448634329324235,0.00942586346029239,,
0.0645751370538293,0.450728973099687,0.00958669947211543,,
0.0648143042281028,0.45114377085395,0.00968730369990256,,
0.0650534714023762,0.450146954695512,0.00975518554004529,,
0.0652926385766497,0.447120572171909,0.00980399529400033,,
0.0655318057509231,0.443148303637049,0.00980470724553051,,
0.0657709729251966,0.437167972576945,0.00975181746165177,,
0.06601014009947,0.429652380524595,0.00971652109539756,,
0.0662493072737435,0.420534469452876,0.0096129321477334,,
0.0664884744480169,0.410247711503352,0.0094798793598132,,
0.0667276416222903,0.398118979897446,0.00931531929383178,,
0.0669668087965638,0.384668328026931,0.0090984239446823,,
0.0672059759708372,0.369925465144327,0.00888911361760636,,
0.0674451431451107,0.354074871560535,0.00860259077792769,,
0.0676843103193841,0.336642048070985,0.00831257663747476,,
0.0679234774936575,0.317871176436885,0.0079980891631668,,
0.068162644667931,0.298102356863297,0.0076295139096163,,
0.0684018118422044,0.277481872050738,0.0072571666820922,,
0.0686409790164779,0.255648931421849,0.00682842125569616,,
0.0688801461907513,0.232869043736971,0.00638284912870812,,
0.0691193133650247,0.209563373018764,0.00595463766596005,,
0.0693584805392982,0.185165639693259,0.00547068861321165,,
0.0695976477135716,0.160112216090956,0.00498838252553302,,
0.0698368148878451,0.134573859677541,0.00445833461119483,,
0.0700759820621185,0.108536918344119,0.00392469613361035,,
0.070315149236392,0.0820852499927495,0.00341910443890825,,
0.0705543164106654,0.0552510042788397,0.00285462271497794,,
0.0707934835849388,0.0283180106684511,0.00225251366810042,,
0.0710326507592123,0.00122009533840607,0.0016950350827809,,
0.0712718179334857,-0.025860843275912,0.00113402754540459,,
0.0715109851077592,-0.0526742217767406,0.000541149908514171,,
0.0717501522820326,-0.0793757661627176,-3.49968674133727E-05,,
0.0719893194563061,-0.105995256422681,-0.000622041978305177,,
0.0722284866305795,-0.132215793863059,-0.00124031711690309,,
0.0724676538048529,-0.157863084202388,-0.00180394997554734,,
0.0727068209791264,-0.18306367470915,-0.00239558169725962,,
0.0729459881533998,-0.207497625028206,-0.00293180613340782,,
0.0731851553276733,-0.231015469324843,-0.00349584802189762,,
0.0734243225019467,-0.253922081118992,-0.00406872255906032,,
0.0736634896762201,-0.275886060772398,-0.00455939407722061,,
0.0739026568504936,-0.296781851324997,-0.00509183798228552,,
0.074141824024767,-0.316535745536008,-0.00556571018260454,,
0.0743809911990405,-0.335248259709797,-0.00604931866238534,,
0.0746201583733139,-0.352703152929792,-0.00647917137878196,,
0.0748593255475874,-0.369104075048401,-0.00692255288567667,,
0.0750984927218608,-0.384132076018904,-0.00732559788868059,,
0.0753376598961342,-0.39740899949848,-0.00771151840367335,,
0.0755768270704077,-0.409323400068331,-0.00803674333928273,,
0.0758159942446811,-0.420469957933113,-0.00835265813949526,,
0.0760551614189546,-0.429417535957038,-0.00866650554199522,,
0.076294328593228,-0.437353584668894,-0.00891032155838545,,
0.0765334957675015,-0.442841873918176,-0.00914621026831286,,
0.0767726629417749,-0.44779567956732,-0.00933428869470276,,
0.0770118301160483,-0.45046753167749,-0.00949654518674237,,
0.0772509972903218,-0.45199515314766,-0.00961653811377738,,
0.0774901644645952,-0.451264234799296,-0.00973399471348602,,
0.0777293316388687,-0.449521362720971,-0.00977297405977229,,
0.0779684988131421,-0.44611364072035,-0.00978180499702352,,
0.0782076659874155,-0.440889056455361,-0.00977849168413236,,
0.078446833161689,-0.434304000633797,-0.00974590621024385,,
0.0786860003359624,-0.425866077763261,-0.00967371329821409,,
0.0789251675102359,-0.415988317190127,-0.0095529382513484,,
0.0791643346845093,-0.404671143332289,-0.00940089723691617,,
