Time domain (s),Current (AC) (A),Potential (AC) (V),Frequency (Hz),Column 5
0,-0.175483446064557,-0.00693139943093168,0.0050119,0.3
0.48712189987829,-0.178691574150688,-0.00719182229734683,,
0.974243799756579,-0.182180171345613,-0.00751209502630967,,
1.46136569963487,-0.185382269802695,-0.00780727758278887,,
1.94848759951316,-0.18869399787885,-0.00810451232562359,,
2.43560949939145,-0.192016871632943,-0.0084084218986189,,
2.92273139926974,-0.195167763922117,-0.00867797511349133,,
3.40985329914803,-0.198375572255192,-0.00896482771598794,,
3.89697519902632,-0.201397512704931,-0.00925709917715967,,
4.38409709890461,-0.204607833383443,-0.00953803554791355,,
4.8712189987829,-0.207478119526798,-0.00981870442390864,,
5.35834089866119,-0.210428115539021,-0.0101021318396071,,
5.84546279853948,-0.213354267109095,-0.0103606676140884,,
6.33258469841777,-0.216163343381801,-0.010626588751685,,
6.81970659829605,-0.219148375193119,-0.0108925140688871,,
7.30682849817434,-0.221921273691532,-0.0111438400236894,,
7.79395039805263,-0.224672428982161,-0.0114381365037795,,
8.28107229793092,-0.227457569454703,-0.0117261593958471,,
8.76819419780921,-0.229948537116067,-0.0119459042506525,,
9.2553160976875,-0.232532141805547,-0.0121953117664795,,
9.74243799756579,-0.234940202067487,-0.0124289851569834,,
10.2295598974441,-0.237354566032523,-0.0127093865382193,,
10.7166817973224,-0.239677069512579,-0.0129541943980716,,
11.2038036972007,-0.242034060643634,-0.0132038359718125,,
11.690925597079,-0.244332262891461,-0.0134550114608132,,
12.1780474969572,-0.24663823057064,-0.0137145148139934,,
12.6651693968355,-0.248773221723072,-0.0139201848469033,,
13.1522912967138,-0.250697952401926,-0.0141582071170459,,
13.6394131965921,-0.252670189249044,-0.0143865619594097,,
14.1265350964704,-0.254757856949243,-0.0145901087526692,,
14.6136569963487,-0.25666892960472,-0.0148455160923509,,
15.100778896227,-0.25846781461668,-0.0150820128064453,,
15.5879007961053,-0.260433839118717,-0.015266201756317,,
16.0750226959836,-0.262144061176251,-0.0154844106060601,,
16.5621445958618,-0.263806914102544,-0.015709607756385,,
17.0492664957401,-0.265425595428153,-0.0158878762949088,,
17.5363883956184,-0.266935012566752,-0.0160759251105622,,
18.0235102954967,-0.268203564296447,-0.016319662991378,,
18.510632195375,-0.269891357961079,-0.0164765821044401,,
18.9977540952533,-0.271166761541966,-0.0166545162745151,,
19.4848759951316,-0.272631550289801,-0.0168612040413914,,
19.9719978950099,-0.273622419330187,-0.0170188608548436,,
20.4591197948882,-0.274788513045057,-0.0172161549581089,,
20.9462416947665,-0.27602550058026,-0.0173991380917622,,
21.4333635946447,-0.276993347400641,-0.0175715217455852,,
21.920485494523,-0.277836581887342,-0.0176912089318639,,
22.4076073944013,-0.279013958317174,-0.0178784552632405,,
22.8947292942796,-0.279526476786339,-0.0180223340067962,,
23.3818511941579,-0.280400087813325,-0.0181576361996378,,
23.8689730940362,-0.281494739559766,-0.0183067478094188,,
24.3560949939145,-0.281753465460777,-0.0184556253612853,,
24.8432168937928,-0.28264183080733,-0.0186033994972705,,
25.3303387936711,-0.282888543129251,-0.018717703351522,,
25.8174606935494,-0.283476477640537,-0.0188421552881977,,
26.3045825934276,-0.283893846736148,-0.0190160268816184,,
26.7917044933059,-0.283897089945712,-0.0191336911387814,,
27.2788263931842,-0.284465154088541,-0.0192557690594697,,
27.7659482930625,-0.284681672586209,-0.0193427884482924,,
28.2530701929408,-0.284728082458283,-0.019471804514295,,
28.7401920928191,-0.28471058739824,-0.0195354515485406,,
29.2273139926974,-0.284786551588456,-0.0196300945379977,,
29.7144358925757,-0.284586842965711,-0.0197454182160186,,
30.201557792454,-0.284352601012959,-0.0198094832108251,,
30.6886796923322,-0.284364112122962,-0.0198828603669332,,
31.1758015922105,-0.283878635626502,-0.0199916638602007,,
31.6629234920888,-0.283590720839412,-0.0200265886446869,,
32.1500453919671,-0.283242966551912,-0.0201180216970349,,
32.6371672918454,-0.282959254233553,-0.0201761014966064,,
33.1242891917237,-0.281971856797772,-0.0202378927859606,,
33.611411091602,-0.281562161775496,-0.0202471380735725,,
34.0985329914803,-0.281151964284132,-0.0203327196780649,,
34.5856548913586,-0.279963396497352,-0.0203681292968017,,
35.0727767912369,-0.279181554597332,-0.0204112795451308,,
35.5598986911151,-0.278285469498436,-0.0204293855966378,,
36.0470205909934,-0.277360241192471,-0.0204367751393582,,
36.5341424908717,-0.276433140047179,-0.020467921560372,,
37.02126439075,-0.275139145110058,-0.0205005224841384,,
37.5083862906283,-0.274198522978414,-0.0205094668401462,,
37.9955081905066,-0.273112139132411,-0.0205301809655545,,
38.4826300903849,-0.271487930646841,-0.0205377711293444,,
38.9697519902632,-0.269899032034414,-0.0204890369279189,,
39.4568738901415,-0.268999840762978,-0.0204730875529071,,
39.9439957900197,-0.267416103878449,-0.0204907923622759,,
40.431117689898,-0.265771613913351,-0.0204443987399929,,
40.9182395897763,-0.264268637514872,-0.0204013488021988,,
41.4053614896546,-0.262390133992061,-0.0204031543918228,,
41.8924833895329,-0.260873590928222,-0.0203384875338082,,
42.3796052894112,-0.259105996036707,-0.0202876300927324,,
42.8667271892895,-0.25705185672834,-0.0202745730048033,,
43.3538490891678,-0.255293580354445,-0.0202315230670096,,
43.8409709890461,-0.253481631146213,-0.0201902118451494,,
44.3280928889244,-0.251309868392383,-0.0201104649700903,,
44.8152147888026,-0.249259794515724,-0.0200431900381743,,
45.3023366886809,-0.2471541749654,-0.0199812315645955,,
45.7894585885592,-0.244905123330124,-0.019892623925641,,
46.2765804884375,-0.242811014889804,-0.0197971115782165,,
46.7637023883158,-0.240404644751158,-0.0197172643926224,,
47.2508242881941,-0.237872931414705,-0.0196450073708183,,
47.7379461880724,-0.235412888441722,-0.019557252371408,,
48.2250680879507,-0.233109707182028,-0.0194627264109077,,
48.712189987829,-0.230695662970047,-0.0193442429510449,,
49.1993118877073,-0.228028739770072,-0.0192440160084915,,
49.6864337875855,-0.225132325234171,-0.0191517303165987,,
50.1735556874638,-0.222805116816297,-0.0190134355261393,,
50.6606775873421,-0.220016459060143,-0.0188864423892525,,
51.1477994872204,-0.217218848218432,-0.0187525278254737,,
51.6349213870987,-0.214292742327366,-0.0186339106182314,,
52.122043286977,-0.211392490754797,-0.0184862869480482,,
52.6091651868553,-0.208170750324298,-0.0183799577813022,,
53.0962870867336,-0.205411235775214,-0.0181788184408749,,
53.5834089866119,-0.202198174356225,-0.0180549683674074,,
54.0705308864901,-0.199310712905882,-0.0179164060821888,,
54.5576527863684,-0.196036030505172,-0.0177274544717232,,
55.0447746862467,-0.192881666611395,-0.017581101401646,,
55.531896586125,-0.189676096549709,-0.0174159902615858,,
56.0190184860033,-0.186293885764292,-0.0172388752942108,,
56.5061403858816,-0.18299033423056,-0.0170890636004901,,
56.9932622857599,-0.179691578992663,-0.0168943441342813,,
57.4803841856382,-0.17635577807932,-0.016708784273769,,
57.9675060855165,-0.172853020391931,-0.0164971959193139,,
58.4546279853948,-0.169409599735866,-0.0163093289165044,,
58.941749885273,-0.166000301298736,-0.0161491183640234,,
59.4288717851513,-0.162338306589645,-0.015914859828734,,
59.9159936850296,-0.158557911891954,-0.0157489796412413,,
60.4031155849079,-0.155061092475598,-0.0155466365743981,,
60.8902374847862,-0.151281657037075,-0.0153217403556773,,
61.3773593846645,-0.147547398137411,-0.0151058219298088,,
61.8644812845428,-0.143747315787296,-0.0148989816073279,,
62.3516031844211,-0.14012478774107,-0.0146851007391953,,
62.8387250842994,-0.136201143674458,-0.0144493396356884,,
63.3258469841777,-0.132369405771835,-0.01421844150331,,
63.8129688840559,-0.128533830832545,-0.0139902016001003,,
64.3000907839342,-0.124626768245817,-0.0137572471017613,,
64.7872126838125,-0.120744052570326,-0.013541596170652,,
65.2743345836908,-0.116731836907305,-0.0132929263552155,,
65.7614564835691,-0.112595145947628,-0.0130692840181781,,
66.2485783834474,-0.10866273151149,-0.0128217009002003,,
66.7357002833257,-0.104723191150112,-0.0125159564803417,,
67.222822183204,-0.100659906356207,-0.0123009387594823,,
67.7099440830823,-0.0965175968785524,-0.0120508645965605,,
68.1970659829606,-0.0923796269066532,-0.011804869728715,,
68.6841878828388,-0.0883215038406453,-0.0115300857374203,,
69.1713097827171,-0.0841241511584151,-0.0112627247256909,,
69.6584316825954,-0.0799220478593583,-0.0109773099075245,,
70.1455535824737,-0.0756139692618647,-0.010731647318325,,
70.632675482352,-0.0714864141037774,-0.0104673792147478,,
71.1197973822303,-0.0672735762378531,-0.0102020578505568,,
71.6069192821086,-0.0630405482504163,-0.0099187641822378,,
72.0940411819869,-0.0586931857060883,-0.00964468236468585,,
72.5811630818652,-0.0543869799479205,-0.00935654035385802,,
73.0682849817434,-0.0501325741847645,-0.00909852285047252,,
73.5554068816217,-0.0458266881796522,-0.00879638960986151,,
74.0425287815,-0.0415045404477109,-0.0085005717533293,,
74.5296506813783,-0.0371692371614809,-0.0082442804270606,,
75.0167725812566,-0.03286042769986,-0.00792923847452043,,
75.5038944811349,-0.0284982651569572,-0.00767368066903673,,
75.9910163810132,-0.0241041273084914,-0.00734857422618473,,
76.4781382808915,-0.0198168783386216,-0.00703340061606728,,
76.9652601807698,-0.0153668293844288,-0.00674779771564848,,
77.4523820806481,-0.0110437680723285,-0.00648508442535833,,
77.9395039805263,-0.00665168577922038,-0.0061911745587877,,
78.4266258804046,-0.00228778743401553,-0.00585789071755727,,
78.9137477802829,0.0020787146146423,-0.00555375126625357,,
79.4008696801612,0.00644873394691204,-0.00525392307813721,,
79.8879915800395,0.0108803285818943,-0.00497291983369319,,
80.3751134799178,0.0152187380406647,-0.00466011814976008,,
80.8622353797961,0.0196249123077245,-0.00436834824126198,,
81.3493572796744,0.0238772853550268,-0.00406903832424188,,
81.8364791795527,0.0282663071546025,-0.00373487049642485,,
82.3236010794309,0.0326491166090974,-0.00343278532127878,,
82.8107229793092,0.0369703507608798,-0.00313387664639686,,
83.2978448791875,0.0412694762728159,-0.00282047309925604,,
83.7849667790658,0.0455759104260234,-0.00251962508737069,,
84.2720886789441,0.0499515939552786,-0.00219614033149584,,
84.7592105788224,0.0542463342824518,-0.00190201312543303,,
85.2463324787007,0.0584478894334131,-0.00156276289719282,,
85.733454378579,0.0627173921086956,-0.00127298248096563,,
86.2205762784573,0.0670335330510919,-0.000978270130117753,,
86.7076981783355,0.0712500709166598,-0.000659349503569828,,
87.1948200782138,0.0753767353340922,-0.000378112201211867,,
87.6819419780921,0.0796288799863548,-2.31800927190662E-05,,
88.1690638779704,0.0838541882214486,0.000269559484280535,,
88.6561857778487,0.0879788199230272,0.000567699111730047,,
89.143307677727,0.0921856509994065,0.00089173557554556,,
89.6304295776053,0.0963344240566851,0.00120042870716297,,
90.1175514774836,0.100489934767636,0.00151147077713354,,
90.6046733773619,0.104433677597745,0.00182480745058511,,
91.0917952772402,0.108464210542953,0.00211390659109734,,
91.5789171771185,0.112552504593709,0.00244750181294551,,
92.0660390769967,0.116564925812266,0.00274465505347088,,
92.553160976875,0.120511409382852,0.00304879659457757,,
93.0402828767533,0.124477260852807,0.00333353222683241,,
93.5274047766316,0.12833969504877,0.00366784634084549,,
94.0145266765099,0.132249452696966,0.00395703743268161,,
94.5016485763882,0.136175312195464,0.0042790049917194,,
94.9887704762665,0.140006113678424,0.00454569726655141,,
95.4758923761448,0.143646547895765,0.00485005614714984,,
95.9630142760231,0.147574965418707,0.00516369375220505,,
96.4501361759013,0.151096976807945,0.00546643094582677,,
96.9372580757796,0.154874813481191,0.0057295454782551,,
97.4243799756579,0.158467170542668,0.00601855684704988,,
97.9115018755362,0.162005123905679,0.00631004254236656,,
98.3986237754145,0.165711724166032,0.00658922347876389,,
98.8857456752928,0.16915096519287,0.0069084617553381,,
99.3728675751711,0.172720140157814,0.0071996465190507,,
99.8599894750494,0.176106599090969,0.00746501385890319,,
100.347111374928,0.179521927157148,0.00776238861852585,,
100.834233274806,0.182957353986823,0.00800763115736158,,
101.321355174684,0.186185763552482,0.00833165090275445,,
101.808477074563,0.189415292253836,0.00859703914063559,,
102.295598974441,0.192776513535101,0.00884144575834878,,
102.782720874319,0.19595887866075,0.00914628947319862,,
103.269842774197,0.19894920923699,0.00940392036306514,,
103.756964674076,0.201995999067052,0.00968827983081466,,
104.244086573954,0.205179643204923,0.00998881437227928,,
104.731208473832,0.208292758954524,0.0102341070663821,,
105.218330373711,0.210997321657048,0.0104631828907142,,
105.705452273589,0.214137844811417,0.0107242870328439,,
106.192574173467,0.216941074171106,0.0109634649639374,,
106.679696073345,0.219600323297747,0.0112392019053118,,
107.166817973224,0.222308540320906,0.0114978359005251,,
107.653939873102,0.22504069314423,0.0117459038527539,,
108.14106177298,0.227610411415294,0.0119604513679814,,
108.628183672859,0.230397744480217,0.0122227801345551,,
109.115305572737,0.232718055367891,0.0124277312753001,,
109.602427472615,0.235167546490039,0.01265959907618,,
110.089549372493,0.237541393175026,0.0128951282115755,,
110.576671272372,0.239975718866536,0.0131277149046207,,
111.06379317225,0.242197911245139,0.0133637999275624,,
111.550915072128,0.244398177699929,0.0136023007625474,,
112.038036972007,0.246673723159814,0.013804974018234,,
112.525158871885,0.248766004439817,0.0140300708580243,,
113.012280771763,0.251081747426696,0.0142372831654045,,
113.499402671641,0.252962443541888,0.0144739491535262,,
113.98652457152,0.254813356943899,0.0146536554763799,,
114.473646471398,0.256794912308638,0.0148824972427977,,
114.960768371276,0.258604714603497,0.0150408541401901,,
115.447890271155,0.260259573703399,0.0152718693015257,,
115.935012171033,0.261954813046327,0.0154095162531154,,
116.422134070911,0.263951533841704,0.015620281225265,,
116.90925597079,0.265302901612807,0.0157882344971405,,
117.396377870668,0.266771755792349,0.0159669209962252,,
117.883499770546,0.268422046991457,0.0161642986916029,,
118.370621670424,0.269830787596541,0.0163524143809464,,
118.857743570303,0.27125323190401,0.0165212537292114,,
119.344865470181,0.27244289598698,0.0166972151254376,,
119.831987370059,0.273608624269787,0.0168133747245807,,
120.319109269938,0.274657962440344,0.0170058204853372,,
120.806231169816,0.275854752448555,0.0171400025438753,,
121.293353069694,0.276848544945449,0.0172885457272929,,
121.780474969572,0.277883083117431,0.0174355215586064,,
122.267596869451,0.278444934915179,0.0175828568360026,,
122.754718769329,0.279473078026049,0.0176600290740052,,
123.241840669207,0.280387206333084,0.0178464896395267,,
123.728962569086,0.281026347012278,0.0179897498014521,,
124.216084468964,0.281594959303201,0.018109788074602,,
124.703206368842,0.281978845685988,0.0182167191045557,,
125.19032826872,0.282742964130924,0.0183105428913133,,
125.677450168599,0.283169423349117,0.0184430656464238,,
126.164572068477,0.283361275182494,0.0185497500796465,,
126.651693968355,0.283758499835601,0.0186459311639684,,
127.138815868234,0.283770376377667,0.0187580783417252,,
127.625937768112,0.283959304754536,0.0188475553386471,,
128.11305966799,0.284375714590981,0.0189540684080396,,
128.600181567868,0.284323457805889,0.0190179495001992,,
129.087303467747,0.284459033101476,0.0190990672858993,,
129.574425367625,0.284059250423924,0.0191935556299487,,
130.061547267503,0.284047008449794,0.019278924074555,,
130.548669167382,0.283768001069254,0.0193185801725928,,
131.03579106726,0.283429793694415,0.0193910545338891,,
131.522912967138,0.283009912253366,0.0194553870234548,,
132.010034867016,0.282614332044546,0.0195056760381673,,
132.497156766895,0.281903566680891,0.0195458504073009,,
132.984278666773,0.281565359306052,0.0196008038618753,,
133.471400566651,0.280982312448617,0.0196448443661992,,
133.95852246653,0.28024267795194,0.0196949118618144,,
134.445644366408,0.279590016286394,0.0197046127264375,,
134.932766266286,0.27869233242222,0.0197527408850493,,
135.419888166165,0.27776029794407,0.0197589267013534,,
135.907010066043,0.276901349878635,0.0198009108397166,,
136.394131965921,0.275539567293721,0.0197835905540646,,
136.881253865799,0.274795364896249,0.0198202373360625,,
137.368375765678,0.273418234164664,0.0198282747176526,,
137.855497665556,0.272473957712384,0.0198495572694242,,
138.342619565434,0.271115098583978,0.0198240992916472,,
138.829741465313,0.269927261661325,0.0198509448984869,,
139.316863365191,0.268296703793651,0.019836349715693,,
139.803985265069,0.266741242215041,0.0197823826480428,,
140.291107164947,0.265165133724839,0.0197423253078663,,
140.778229064826,0.263654620290049,0.0197504337427517,,
141.265350964704,0.262123459943667,0.0197054444679541,,
141.752472864582,0.26028424036769,0.0196947446775897,,
142.239594764461,0.258403178820435,0.019671455915125,,
142.726716664339,0.256660798741306,0.0196129247181474,,
143.213838564217,0.254902887799475,0.0195661131353035,,
143.700960464095,0.252831070715033,0.0195012790930642,,
144.188082363974,0.250705535117245,0.0194609835153678,,
144.675204263852,0.248769110612357,0.0194228487937727,,
145.16232616373,0.246562449096456,0.0193849188728521,,
145.649448063609,0.244587654224893,0.0192628242337411,,
146.136569963487,0.242061787801457,0.0191714078998158,,
146.623691863365,0.239868281839844,0.0191047515495302,,
147.110813763243,0.237505398116764,0.0190638081329642,,
147.597935663122,0.235003832925557,0.0189606554664827,,
148.085057563,0.232489294896093,0.0188835166653245,,
148.572179462878,0.230052959328234,0.0187925517288052,,
149.059301362757,0.227631606474981,0.018686109712708,,
149.546423262635,0.224758214159086,0.0185825683429046,,
150.033545162513,0.222154145274045,0.0184835116899222,,
150.520667062392,0.219204560372894,0.0183638537608828,,
151.00778896227,0.216437143355436,0.0182513931127053,,
151.494910862148,0.213757795465299,0.0181173406219415,,
151.982032762026,0.211036605603882,0.0180126540402008,,
152.469154661905,0.207983420712708,0.0178778199631875,,
152.956276561783,0.205008986431233,0.0177637877833003,,
153.443398461661,0.201665283049516,0.0176497973994696,,
153.93052036154,0.198717890740746,0.0175056678795769,,
154.417642261418,0.19559399474527,0.0173360051490064,,
154.904764161296,0.192263812349905,0.0171780996490201,,
155.391886061174,0.189209896594603,0.0170403941829518,,
155.879007961053,0.185928499379725,0.0168771889430506,,
156.366129860931,0.182601217601364,0.0167466347821827,,
156.853251760809,0.179316919769482,0.0165664436250781,,
157.340373660688,0.175835996647892,0.0164116143148214,,
157.827495560566,0.172261728473562,0.0162448605897563,,
158.314617460444,0.1688913257117,0.0160475037924068,,
158.801739360322,0.165398548887547,0.0158472672467913,,
159.288861260201,0.161862422684853,0.0156826743778273,,
159.775983160079,0.15822893167672,0.015514921727021,,
160.263105059957,0.154579178941758,0.0153043072206733,,
160.750226959836,0.150819248439628,0.0151104487532203,,
161.237348859714,0.147168216692443,0.0149525432532336,,
161.724470759592,0.143485026923664,0.0147229993130735,,
162.21159265947,0.13961327421008,0.0145317280214936,,
162.698714559349,0.135850420251441,0.0143156424114008,,
163.185836459227,0.131842361378143,0.0141145908426914,,
163.672958359105,0.128126830871737,0.0138970590890573,,
164.160080258984,0.124195330015758,0.0136850903904913,,
164.647202158862,0.120294890885183,0.0134845696316943,,
165.13432405874,0.116259790039181,0.0132648226870864,,
165.621445958618,0.112175721296659,0.0130529208622105,,
166.108567858497,0.10824623031703,0.0127937309794506,,
166.595689758375,0.10408779614957,0.0125852815088097,,
167.082811658253,0.100089603941989,0.012323007077109,,
167.569933558132,0.0959459697731042,0.0121101982778153,,
168.05705545801,0.0918724985604261,0.0118372031577221,,
168.544177357888,0.0877312396999547,0.0116109360283607,,
169.031299257767,0.0835459462758225,0.0113975713415209,,
169.518421157645,0.0793078479185035,0.0111317400654452,,
