Time domain (s),Current (AC) (A),Potential (AC) (V),Frequency (Hz),Column 5
0,-0.192382158603552,-0.00580449461846788,31.623,0.5
0.000239330847010088,-0.173106795567097,-0.00539529876498301,,
0.000478661694020175,-0.153203294048742,-0.00500964180897023,,
0.000717992541030263,-0.133028730969279,-0.00458848140464729,,
0.00095732338804035,-0.112610269073871,-0.00415175390628653,,
0.00119665423505044,-0.0919109132694962,-0.00373294841856398,,
0.00143598508206053,-0.0709814522307051,-0.00330046353521185,,
0.00167531592907061,-0.049885194959896,-0.00284700688730943,,
0.0019146467760807,-0.0285847926824696,-0.00236520566910592,,
0.00215397762309079,-0.00727738750980582,-0.00192754886862678,,
0.00239330847010088,0.0140405220057141,-0.00145896153928282,,
0.00263263931711096,0.0353949668282048,-0.00100781702243236,,
0.00287197016412105,0.0566006178109798,-0.000548553519860828,,
0.00311130101113114,0.0776746638787127,-6.35639225681217E-05,,
0.00335063185814123,0.0984527492022712,0.000408679004056722,,
0.00358996270515131,0.119203105890142,0.000881757104591596,,
0.0038292935521614,0.13966429252013,0.00132230449674076,,
0.00406862439917149,0.159716340301096,0.0018094710227512,,
0.00430795524618158,0.179482896312587,0.00228641009120123,,
0.00454728609319166,0.198614806101149,0.00274249719463704,,
0.00478661694020175,0.217482162069631,0.003194257823389,,
0.00502594778721184,0.235941793915404,0.00359512760909686,,
0.00526527863422193,0.253720942405785,0.00405084504539222,,
0.00550460948123201,0.270875913647935,0.00450335869980112,,
0.0057439403282421,0.28769729242605,0.00488735728794643,,
0.00598327117525219,0.303600796773858,0.00530018306738311,,
0.00622260202226228,0.318857205307204,0.00565481365490195,,
0.00646193286927237,0.333160654197741,0.0060586305092043,,
0.00670126371628245,0.346922262911323,0.00642407728343386,,
0.00694059456329254,0.360082612942907,0.00678718967812664,,
0.00717992541030263,0.37248636734359,0.00712166998363051,,
0.00741925625731272,0.383697224519188,0.00743547288915947,,
0.0076585871043228,0.393978889453993,0.00774123553437711,,
0.00789791795133289,0.403798787721024,0.00803573360033338,,
0.00813724879834298,0.412213013925858,0.00828443743780705,,
0.00837657964535306,0.419908276219653,0.00852354019815271,,
0.00861591049236315,0.426935221804328,0.00879111417402401,,
0.00885524133937324,0.432763045368151,0.00899125470230278,,
0.00909457218638333,0.437374204304871,0.0091873836575358,,
0.00933390303339342,0.44110851587429,0.00935365172262159,,
0.0095732338804035,0.444227704443868,0.00950427396825893,,
0.00981256472741359,0.446043930081396,0.00961157327870676,,
0.0100518955744237,0.447123932146897,0.0096957752385447,,
0.0102912264214338,0.446938885945472,0.00980096607715275,,
0.0105305572684439,0.446010259595204,0.00987025470613645,,
0.0107698881154539,0.443843464777913,0.00989759638317667,,
0.011009218962464,0.4404362379315,0.00991995439950433,,
0.0112485498094741,0.436055679383406,0.00993146884637008,,
0.0114878806564842,0.431548644303145,0.00986961121148422,,
0.0117272115034943,0.425163418572951,0.0098450488836872,,
0.0119665423505044,0.418431301951403,0.00975690380768102,,
0.0122058731975145,0.410134498030347,0.00964270404393952,,
0.0124452040445246,0.401199369597956,0.00954611138919814,,
0.0126845348915346,0.391715044411796,0.00939625928343713,,
0.0129238657385447,0.38102169412061,0.00924802275999514,,
0.0131631965855548,0.369237306898701,0.00906772103493658,,
0.0134025274325649,0.356979269308008,0.00887950569479079,,
0.013641858279575,0.343805903794367,0.00864714935976396,,
0.0138811891265851,0.329941585950636,0.00840036231487229,,
0.0141205199735952,0.315108180584155,0.00815877799270215,,
0.0143598508206053,0.299519311367821,0.00786194897005243,,
0.0145991816676153,0.283603605005585,0.00755198991821882,,
0.0148385125146254,0.266882424218417,0.00723618464901055,,
0.0150778433616355,0.24942724805316,0.0069042646307409,,
0.0153171742086456,0.231394863553184,0.00656450972279332,,
0.0155565050556557,0.213092549273149,0.00619721461286016,,
0.0157958359026658,0.194230852209909,0.00584111220246575,,
0.0160351667496759,0.175042353368923,0.0054403416792308,,
0.016274497596686,0.155112820886453,0.00503761328928709,,
0.016513828443696,0.134928637668078,0.00463465899164683,,
0.0167531592907061,0.114476505286479,0.00419887619820081,,
0.0169924901377162,0.093677234436419,0.00376763894144849,,
0.0172318209847263,0.0727041644591042,0.00332224480234311,,
0.0174711518317364,0.0516012579746354,0.00286057161766884,,
0.0177104826787465,0.0303053828214028,0.00242841703875252,,
0.0179498135257566,0.00912042221092013,0.0019603910558077,,
0.0181891443727667,-0.0122571533867487,0.00151506879642405,,
0.0184284752197767,-0.0335353444610989,0.00106514965768811,,
0.0186678060667868,-0.0547565220651326,0.000593033376287799,,
0.0189071369137969,-0.0757951292387853,0.000102649377014874,,
0.019146467760807,-0.0966674353346288,-0.000355710494767791,,
0.0193857986078171,-0.117326400702836,-0.000844917035740522,,
0.0196251294548272,-0.138012811761469,-0.00132452592242904,,
0.0198644603018373,-0.158144084215828,-0.00176578526610838,,
0.0201037911488474,-0.177828586101304,-0.00226687592108732,,
0.0203431219958574,-0.197132172927656,-0.00268187520639751,,
0.0205824528428675,-0.216183726261777,-0.00313579907249162,,
0.0208217836898776,-0.234714165159394,-0.00359477505617578,,
0.0210611145368877,-0.252483339829285,-0.00399697290531531,,
0.0213004453838978,-0.269736280868444,-0.0044348915533523,,
0.0215397762309079,-0.286298411050144,-0.00487823369754237,,
0.021779107077918,-0.302535012707779,-0.0052699970070651,,
0.0220184379249281,-0.317763409660176,-0.00566331086487315,,
0.0222577687719381,-0.332379796010613,-0.00603693310174824,,
0.0224970996189482,-0.346452078622,-0.00641715458165448,,
0.0227364304659583,-0.359489347464563,-0.00676661325204675,,
0.0229757613129684,-0.371624940493075,-0.0070899915633742,,
0.0232150921599785,-0.383118601458158,-0.00740299010058765,,
0.0234544230069886,-0.393989712110269,-0.00774380780156481,,
0.0236937538539987,-0.403430110044486,-0.00800209731336876,,
0.0239330847010088,-0.412422464156141,-0.00826320382569889,,
0.0241724155480188,-0.420151396936127,-0.00852232851141332,,
0.0244117463950289,-0.42700574591091,-0.0087642020638925,,
0.024651077242039,-0.432826778788443,-0.00894484436191911,,
0.0248904080890491,-0.437929130700198,-0.00914351991301032,,
0.0251297389360592,-0.441653609921759,-0.00929048313852343,,
0.0253690697830693,-0.444473371667701,-0.00947364636107872,,
0.0256084006300794,-0.446971778332193,-0.00957419411194183,,
0.0258477314770895,-0.447770815752412,-0.00969806169826715,,
0.0260870623240995,-0.447484758092411,-0.00979539368728988,,
0.0263263931711096,-0.446680344712213,-0.00985755253243914,,
0.0265657240181197,-0.444306787644629,-0.00987913014035868,,
0.0268050548651298,-0.441445928099365,-0.00989848974543328,,
0.0270443857121399,-0.437169139726151,-0.00991883512955072,,
0.02728371655915,-0.432197225580232,-0.009852555180351,,
0.0275230474061601,-0.425587694993496,-0.00980154111492704,,
0.0277623782531702,-0.419142343395103,-0.00976506900179475,,
0.0280017091001802,-0.41119136932067,-0.00963969707557677,,
0.0282410399471903,-0.402268619743496,-0.0095282749496568,,
0.0284803707942004,-0.392261199503997,-0.0094043543092508,,
0.0287197016412105,-0.381645093269369,-0.00922610800195178,,
0.0289590324882206,-0.370337751759389,-0.00907904551396621,,
0.0291983633352307,-0.357645676136609,-0.00887327954174433,,
0.0294376941822408,-0.344597089483561,-0.00864149824449179,,
0.0296770250292509,-0.330594411406655,-0.00839464274272217,,
0.0299163558762609,-0.3158827432392,-0.00814088678765845,,
0.030155686723271,-0.300450272016501,-0.00787801237645569,,
0.0303950175702811,-0.284521019649841,-0.00757105173587469,,
0.0306343484172912,-0.267517141177661,-0.00727897362055296,,
0.0308736792643013,-0.250287472386311,-0.00693762024450617,,
0.0311130101113114,-0.232245467747423,-0.00657664712724815,,
0.0313523409583215,-0.213732642192373,-0.00620287257381991,,
0.0315916718053316,-0.194870662183871,-0.00584981307164911,,
0.0318310026523417,-0.175482686933093,-0.00546299063728961,,
0.0320703334993517,-0.155794223813947,-0.00506229712804229,,
0.0323096643463618,-0.135628997928133,-0.00464951755699872,,
0.0325489951933719,-0.11530871803868,-0.00422252462667716,,
0.032788326040382,-0.0945708109423421,-0.00379074142632385,,
0.0330276568873921,-0.0736928459412563,-0.00336496702842926,,
0.0332669877344022,-0.0526700129659666,-0.00293095042243374,,
0.0335063185814123,-0.0313044625419378,-0.00249135971515368,,
0.0337456494284223,-0.0100425408201593,-0.00204493872287959,,
0.0339849802754324,0.0112880658639981,-0.00153626133440543,,
0.0342243111224425,0.0326326076023148,-0.00107974979832592,,
0.0344636419694526,0.0538537852063484,-0.000591544439192848,,
0.0347029728164627,0.0749026491457529,-0.000143740617984722,,
0.0349423036634728,0.0958046644941186,0.000330241113339014,,
0.0351816345104829,0.116527292546302,0.00080733078692008,,
0.035420965357493,0.13711410687267,0.00127699631209088,,
0.035660296204503,0.157071367990827,0.00173396308640861,,
0.0358996270515131,0.176741757981355,0.00218937931244101,,
0.0361389578985232,0.196167329583837,0.0026616906959438,,
0.0363782887455333,0.215182948869669,0.00311017566308713,,
0.0366176195925434,0.2335808986483,0.00354659168265359,,
0.0368569504395535,0.251500387988691,0.00399915667972106,,
0.0370962812865636,0.268813525632365,0.00442437657690409,,
0.0373356121335737,0.285550020831845,0.00484145352845911,,
0.0375749429805838,0.30137430050626,0.00527255729429932,,
0.0378142738275938,0.316785197152722,0.00563062441708961,,
0.0380536046746039,0.331429029193585,0.00603797364629255,,
0.038292935521614,0.345307211355159,0.00641754992012444,,
0.0385322663686241,0.358602526276773,0.00674676931456064,,
0.0387715972156342,0.370674951775517,0.00708541522108552,,
0.0390109280626443,0.382081890017762,0.00740100142828437,,
0.0392502589096544,0.392508422926772,0.00770099658153756,,
0.0394895897566645,0.402448007039678,0.0079958814288541,,
0.0397289206036745,0.411373232387895,0.00828187372772904,,
0.0399682514506846,0.418700382895676,0.0085030989744066,,
0.0402075822976947,0.426111002255781,0.00875280912798537,,
0.0404469131447048,0.431815744630583,0.00896514867190934,,
0.0406862439917149,0.436789073502813,0.00916899614012756,,
0.040925574838725,0.441053058602915,0.00931279665788054,,
0.0411649056857351,0.443844879504223,0.00947056237872879,,
0.0414042365327452,0.445804841334907,0.00961663908767241,,
0.0416435673797552,0.446932095259181,0.00972925065184649,,
0.0418828982267653,0.447114312007985,0.00980787679897821,,
0.0421222290737754,0.446183139150358,0.00987990712592302,,
0.0423615599207855,0.443752639348773,0.00988593133117943,,
0.0426008907677956,0.441163973145665,0.00991195863616356,,
0.0428402216148057,0.436671651219034,0.00991299918070832,,
0.0430795524618158,0.432098124002176,0.00986644850372453,,
0.0433188833088258,0.425897095637621,0.00981017695007624,,
0.0435582141558359,0.419010207957694,0.00977181371569147,,
0.043797545002846,0.411318341007045,0.00968568127189595,,
0.0440368758498561,0.402726425177601,0.00956482749962095,,
0.0442762066968662,0.392812023193023,0.00943667280131555,,
0.0445155375438763,0.382335408972619,0.00926608168438969,,
0.0447548683908864,0.370739746240542,0.00909440552594853,,
0.0449941992378965,0.358584983670522,0.00889796166907741,,
0.0452335300849066,0.345216951816544,0.00866299028131401,,
0.0454728609319166,0.331522401130083,0.00843329007315052,,
0.0457121917789267,0.317074367210605,0.00816021558713809,,
0.0459515226259368,0.30165498220628,0.00789382249241077,,
0.0461908534729469,0.285597237322461,0.00758458566063913,,
0.046430184319957,0.268923308394066,0.00727405157103078,,
0.0466695151669671,0.251717972895259,0.00695102067835851,,
0.0469088460139772,0.233897797341871,0.00660740822534045,,
0.0471481768609873,0.21570696349511,0.00625343140100565,,
0.0473875077079973,0.196843604128454,0.00588822764869246,,
0.0476268385550074,0.177322078713957,0.00546929893858961,,
0.0478661694020175,0.157595700929687,0.00508805231693676,,
0.0481055002490276,0.137572478197299,0.00467504854961787,,
0.0483448310960377,0.117000659969824,0.00424452324439617,,
0.0485841619430478,0.0964913726452765,0.00382778515438664,,
0.0488234927900579,0.0754334544574843,0.00336730654223238,,
0.049062823637068,0.0544137338800779,0.00293903689113773,,
0.049302154484078,0.0331305912636406,0.00247985553681973,,
0.0495414853310881,0.0118050068578858,0.0020394142528315,,
0.0497808161780982,-0.00955905810351694,0.00157737482386056,,
0.0500201470251083,-0.030887754907155,0.00107198165410427,,
0.0502594778721184,-0.05206967385607,0.000623455612834167,,
0.0504988087191285,-0.0730222656700391,0.000136398617828437,,
0.0507381395661386,-0.0939854679313377,-0.00031273326681136,,
0.0509774704131487,-0.11466982763682,-0.000780540187747203,,
0.0512168012601587,-0.135344072049182,-0.0012330675335317,,
0.0514561321071688,-0.15547251505092,-0.00171641416575419,,
0.0516954629541789,-0.175370569872979,-0.00216954393206459,,
0.051934793801189,-0.194796813470458,-0.00260796916099793,,
0.0521741246481991,-0.213743960002858,-0.00309180868274161,,
0.0524134554952092,-0.232308847486137,-0.00352865940348313,,
0.0526527863422193,-0.25015837861047,-0.00398695081838829,,
0.0528921171892294,-0.267752834581004,-0.00438698543018567,,
0.0531314480362394,-0.284412934559712,-0.00481269137120233,,
0.0533707788832495,-0.300357748915789,-0.0052314147106709,,
0.0536101097302596,-0.31585805626508,-0.00560820136672779,,
0.0538494405772697,-0.330714663143055,-0.00597753991446703,,
0.0540887714242798,-0.344788926371277,-0.00636317119915075,,
0.0543281022712899,-0.357776396847707,-0.00671895528506283,,
0.0545674331183,-0.369972752371258,-0.00704550828410389,,
0.0548067639653101,-0.381656128134591,-0.00736155828665019,,
0.0550460948123201,-0.392314676158537,-0.00768160959371134,,
0.0552854256593302,-0.402361779471048,-0.00796545919230729,,
0.0555247565063403,-0.41097350146884,-0.00824635145377783,,
0.0557640873533504,-0.419149699971918,-0.00848048937905244,,
0.0560034182003605,-0.425859251708813,-0.00872012781446774,,
0.0562427490473706,-0.431953043819025,-0.00893584912816037,,
0.0564820798943807,-0.43718434803399,-0.00910871643627731,,
0.0567214107413908,-0.441265126076872,-0.0093016142268727,,
0.0569607415884008,-0.444117426527957,-0.00944922094703804,,
0.0572000724354109,-0.446322984846159,-0.00956643110198607,,
0.057439403282421,-0.447472025555616,-0.00966835141325095,,
0.0576787341294311,-0.447706021287387,-0.00977585609433262,,
0.0579180649764412,-0.44663118297292,-0.00982562424457845,,
0.0581573958234513,-0.444856762497869,-0.00989950290722685,,
0.0583967266704614,-0.441666908349078,-0.0098907678096043,,
0.0586360575174715,-0.437805412884337,-0.00992425691428167,,
0.0588753883644815,-0.432834630519466,-0.00985764837206826,,
0.0591147192114916,-0.426750529284481,-0.00983638566578682,,
0.0593540500585017,-0.419913369234371,-0.00975358193768017,,
0.0595933809055118,-0.412070197304805,-0.00963812085596283,,
0.0598327117525219,-0.403354563659501,-0.00954833281488643,,
0.060072042599532,-0.393716104041802,-0.00941410256866648,,
0.0603113734465421,-0.382975784837105,-0.00927193132460769,,
0.0605507042935522,-0.371664482093455,-0.00908634472857406,,
0.0607900351405622,-0.359341084147214,-0.00889224209692729,,
0.0610293659875723,-0.346109714854838,-0.00866966140406689,,
0.0612686968345824,-0.332514760900643,-0.0084310891845254,,
0.0615080276815925,-0.317703991155131,-0.00817551227650881,,
0.0617473585286026,-0.302177369896463,-0.00790720410062162,,
0.0619866893756127,-0.286588712889076,-0.00760486943356575,,
0.0622260202226228,-0.269798245880848,-0.00732042939439737,,
0.0624653510696329,-0.252484188665071,-0.00696982407130031,,
0.0627046819166429,-0.234510090889092,-0.00666651731657808,,
0.062944012763653,-0.216137959865629,-0.00625214783454453,,
0.0631833436106631,-0.197495191698952,-0.00590560542715179,,
0.0634226744576732,-0.177955911469257,-0.00549512258436202,,
0.0636620053046833,-0.158390529539132,-0.00512829126977632,,
0.0639013361516934,-0.138258408248986,-0.00469067554342439,,
0.0641406669987035,-0.117869938551363,-0.00431260018664092,,
0.0643799978457136,-0.0972452802961871,-0.00386062049587954,,
0.0646193286927236,-0.0763820284487314,-0.00344352643010515,,
0.0648586595397337,-0.0552725434869184,-0.00298942457612883,,
0.0650979903867438,-0.0341196264273704,-0.00253335287549028,,
0.0653373212337539,-0.0128354935025157,-0.00207010347120162,,
0.065576652080764,0.0085692448403163,-0.00161375623162963,,
0.0658159829277741,0.029863740635396,-0.00112081365654459,,
0.0660553137747842,0.0510613984145162,-0.000659152451824241,,
0.0662946446217943,0.0722664481386092,-0.000215539902966633,,
0.0665339754688044,0.0931518050846678,0.000266933904062849,,
0.0667733063158144,0.113782440558506,0.000726128949756433,,
0.0670126371628245,0.134428673389918,0.00120062924193043,,
0.0672519680098346,0.154569565983189,0.00167886899106051,,
0.0674912988568447,0.174356175740132,0.00212152485504946,,
0.0677306297038548,0.193819732744053,0.00258893472609323,,
0.0679699605508649,0.212849216347728,0.00304536069107497,,
0.068209291397875,0.231125747240753,0.00350913207905723,,
0.068448622244885,0.249039860621164,0.00393115504004182,,
0.0686879530918951,0.266542889903876,0.00437545386910054,,
0.0689272839389052,0.283375303547214,0.00477514277366442,,
0.0691666147859153,0.299432447172351,0.0051840938938108,,
0.0694059456329254,0.31481221983998,0.00557566723549785,,
0.0696452764799355,0.329375129535878,0.00598079503901205,,
0.0698846073269456,0.343641229651815,0.00635044506554605,,
0.0701239381739557,0.35682053701596,0.00671019965037711,,
0.0703632690209657,0.368941629099788,0.0070178790881763,,
0.0706025998679758,0.380650469936712,0.00736289833003534,,
0.0708419307149859,0.391432665040203,0.00768697661293993,,
0.071081261561996,0.400853327542387,0.0079628680994781,,
0.0713205924090061,0.410324071355966,0.00824024167742365,,
0.0715599232560162,0.41792030280802,0.00850092204568886,,
0.0717992541030263,0.425014306419816,0.00871552408942788,,
0.0720385849500364,0.431443105720375,0.00890657354431923,,
0.0722779157970465,0.436144807140973,0.00911664031989634,,
0.0725172466440565,0.440501598287049,0.0093247594972965,,
0.0727565774910666,0.443644554258645,0.00945387259189223,,
0.0729959083380767,0.445478322502424,0.00959174474401792,,
0.0732352391850868,0.446751293236689,0.00971303664031176,,
0.0734745700320969,0.447095920565947,0.00978968096082777,,
0.073713900879107,0.446162767091485,0.009842954103223,,
0.0739532317261171,0.444517723337537,0.00990441468821723,,
0.0741925625731271,0.441262721042144,0.00991505288704575,,
0.0744318934201372,0.43746899096768,0.00991932459622769,,
0.0746712242671473,0.432538952720554,0.00990170379585154,,
0.0749105551141574,0.427029159631351,0.00983256577199931,,
0.0751498859611675,0.41980896243265,0.00979890894797109,,
0.0753892168081776,0.412311761822337,0.00968354884014877,,
0.0756285476551877,0.403659295706801,0.00958033982815687,,
0.0758678785021978,0.394166482162777,0.00944159142799395,,
0.0761072093492079,0.383737968636932,0.00928192260593974,,
0.0763465401962179,0.372413933356488,0.00911043812675683,,
0.076585871043228,0.360558526873787,0.0089099963882151,,
0.0768252018902381,0.347512486728099,0.00870213734695113,,
0.0770645327372482,0.33359101394142,0.00845760253334271,,
0.0773038635842583,0.318921150936443,0.00823091442780743,,
0.0775431944312684,0.303650595139991,0.0079387165129492,,
0.0777825252782785,0.287923966949164,0.00762680986293818,,
0.0780218561252886,0.271115002394424,0.00733425597231507,,
0.0782611869722986,0.254247220593322,0.00700737780310368,,
0.0785005178193087,0.236152871080943,0.00666880035345674,,
0.0787398486663188,0.217910541196476,0.00628275832750536,,
0.0789791795133289,0.199196258614799,0.0059190366665991,,
0.079218510360339,0.179857515839629,0.00552131247443155,,
