Time domain (s),Current (AC) (A),Potential (AC) (V),Frequency (Hz),Column 5
0,-0.247050365950973,-0.00467839519456748,501.19,0.4
6.23516031844211E-05,-0.18775828282293,-0.00378779914191085,,
0.000124703206368842,-0.121569903644916,-0.00273640961492694,,
0.000187054809553263,-0.0506867977401013,-0.001601779891931,,
0.000249406412737684,0.0214163601652728,-0.000442643713071345,,
0.000311758015922105,0.0939821930925292,0.000810880598193453,,
0.000374109619106527,0.162808965566755,0.00199630711788101,,
0.000436461222290948,0.224967371863695,0.00312506346686225,,
0.000498812825475369,0.278336421554464,0.00413177339866166,,
0.00056116442865979,0.321018265763588,0.00492668688178277,,
0.000623516031844211,0.351323362192113,0.00559635909042822,,
0.000685867635028632,0.368399830652129,0.00603240511840397,,
0.000748219238213053,0.370757035039804,0.00622019531614848,,
0.000810570841397474,0.359429986723136,0.00616933935543251,,
0.000872922444581895,0.334092609972418,0.0058915373702062,,
0.000935274047766316,0.296571310764506,0.00540071979883816,,
0.000997625650950737,0.247024573654515,0.0046940718680677,,
0.00105997725413516,0.188232678945366,0.00380058036393516,,
0.00112232885731958,0.122067683216077,0.00274899183068911,,
0.001184680460504,0.0513699704581264,0.00162474270462409,,
0.00124703206368842,-0.0208011052028408,0.000444323612782238,,
0.00130938366687284,-0.093698654088643,-0.000811027611828496,,
0.00137173527005726,-0.162577833689157,-0.00197578078726535,,
0.00143408687324168,-0.225123858837763,-0.00309520714895317,,
0.00149643847642611,-0.278399932881277,-0.00413242599577401,,
0.00155879007961053,-0.321114560920523,-0.00489957900171412,,
0.00162114168279495,-0.351783246475768,-0.00555461797510048,,
0.00168349328597937,-0.368934771106001,-0.00599073750989376,,
0.00174584488916379,-0.371369763649736,-0.00619363425508901,,
0.00180819649234821,-0.360143240661632,-0.00616443411999157,,
0.00187054809553263,-0.334683482695602,-0.00587973504385086,,
0.00193289969871705,-0.296465703354749,-0.00536748933871456,,
0.00199525130190147,-0.246795086843661,-0.00468079940535926,,
0.0020576029050859,-0.187758517832465,-0.00376098708196215,,
0.00211995450827032,-0.121613321656493,-0.00275688574576449,,
0.00218230611145474,-0.0506891478354506,-0.00162658933931104,,
0.00224465771463916,0.0213276440658389,-0.000412608110241575,,
0.00230700931782358,0.0939324004473171,0.000815760733745119,,
0.002369360921008,0.162669781169696,0.00202587120136855,,
0.00243171252419242,0.225199531908008,0.00310559671013033,,
0.00249406412737684,0.27832675678734,0.00409161357633803,,
0.00255641573056126,0.321099637815055,0.00496157572742639,,
0.00261876733374569,0.351269809394342,0.0055892307219656,,
0.00268111893693011,0.36839228097082,0.00602296038876071,,
0.00274347054011453,0.370981645402808,0.00619455040103611,,
0.00280582214329895,0.3596930211451,0.00615250450134264,,
0.00286817374648337,0.334268632114076,0.00588057947582943,,
0.00293052534966779,0.296496048960946,0.00539722015717858,,
0.00299287695285221,0.247114464801623,0.00468636620215923,,
0.00305522855603663,0.188273717485403,0.00378658538299526,,
0.00311758015922105,0.122135160328792,0.00272772505334951,,
0.00317993176240548,0.0513383322994872,0.00160069701100785,,
0.0032422833655899,-0.0207749603920805,0.000445851120309815,,
0.00330463496877432,-0.0937481823481283,-0.000811187175408179,,
0.00336698657195874,-0.162583003898926,-0.00201883426821547,,
0.00342933817514316,-0.224936086219358,-0.0031114485699546,,
0.00349168977832758,-0.278423551339537,-0.00411539213542156,,
0.003554041381512,-0.321223781601879,-0.00492273185642311,,
0.00361639298469642,-0.351669795622783,-0.00560277031920631,,
0.00367874458788084,-0.368903397333088,-0.00600745403593583,,
0.00374109619106526,-0.371549075924883,-0.0062046495206407,,
0.00380344779424969,-0.359978322720499,-0.00615049471737672,,
0.00386579939743411,-0.33447843687638,-0.00585845392371764,,
0.00392815100061853,-0.296588143322445,-0.00538603457095199,,
0.00399050260380295,-0.246919700649555,-0.00466216632351069,,
0.00405285420698737,-0.187805989758519,-0.00375165709466874,,
0.00411520581017179,-0.121660734830164,-0.00273049141968196,,
0.00417755741335621,-0.0506712283584126,-0.00162006695388195,,
0.00423990901654063,0.0213755566347716,-0.000420008991784293,,
0.00430226061972505,0.0939699138443294,0.000788346276461738,,
0.00436461222290948,0.162838694272923,0.00200007927262069,,
0.0044269638260939,0.225064107663508,0.00311982117576948,,
0.00448931542927832,0.278369675403655,0.00408794182115413,,
0.00455166703246274,0.321120641792239,0.00493742963425436,,
0.00461401863564716,0.351489484557112,0.00558643746289533,,
0.00467637023883158,0.368302859842781,0.00600360478868023,,
0.004738721842016,0.370845016734441,0.00623017431485628,,
0.00480107344520042,0.359586620578163,0.00616568194304223,,
0.00486342504838485,0.334335844841065,0.00588619467955809,,
0.00492577665156927,0.296700830394441,0.00538889775114182,,
0.00498812825475369,0.247205766005941,0.00465889616654991,,
0.00505047985793811,0.188119903744795,0.00378590768599318,,
0.00511283146112253,0.122059663515698,0.00277260724049455,,
0.00517518306430695,0.0513201778129143,0.00160028106999066,,
0.00523753466749137,-0.0207525169814952,0.000394934202720965,,
0.00529988627067579,-0.0937378419285917,-0.000802344843100045,,
0.00536223787386021,-0.162715138009937,-0.00201036664139265,,
0.00542458947704463,-0.224878743892837,-0.00309431431004636,,
0.00548694108022906,-0.278606623767243,-0.00411411024823582,,
0.00554929268341348,-0.321377889104406,-0.00493393357829275,,
0.0056116442865979,-0.352111202281755,-0.00556864522732647,,
0.00567399588978232,-0.368851988997324,-0.00599419233032306,,
0.00573634749296674,-0.371887665912325,-0.00620292121400157,,
0.00579869909615116,-0.360084488277901,-0.00615559178768343,,
0.00586105069933558,-0.334856155951387,-0.00588664647755888,,
0.00592340230252,-0.296535736196157,-0.00538086578667674,,
0.00598575390570442,-0.246953424517816,-0.00465080683091035,,
0.00604810550888884,-0.187861158246843,-0.00380522205054223,,
0.00611045711207327,-0.121613086646958,-0.00273244921101989,,
0.00617280871525769,-0.0507138825890013,-0.0016169563605013,,
0.00623516031844211,0.0213776717205859,-0.000415430054899524,,
0.00629751192162653,0.0939932679168626,0.000819549024127841,,
0.00635986352481095,0.162828794496265,0.00198837555297215,,
0.00642221512799537,0.22524459498633,0.00311888530848137,,
0.00648456673117979,0.27846171101277,0.00410572329962733,,
0.00654691833436421,0.321400215010223,0.00493764477615954,,
0.00660926993754864,0.351714564939186,0.00558810839835999,,
0.00667162154073306,0.368321983743685,0.00601866830775011,,
0.00673397314391748,0.371039428372208,0.00620773859983137,,
0.0067963247471019,0.359363185262834,0.0061550252473328,,
0.00685867635028632,0.334567064847239,0.00590279646325076,,
0.00692102795347074,0.296401663256482,0.00539179140976831,,
0.00698337955665516,0.247080975942896,0.00465843361145346,,
0.00704573115983958,0.188292606376772,0.00377008399885836,,
0.007108082763024,0.121974942578358,0.00272442621080149,,
0.00717043436620842,0.051383160368274,0.00160310301464861,,
0.00723278596939285,-0.0208395880141847,0.000418217935422405,,
0.00729513757257727,-0.0938036445983705,-0.000830567875377941,,
0.00735748917576169,-0.162652860483182,-0.00198606098464094,,
0.00741984077894611,-0.224866699654172,-0.0030962003874162,,
0.00748219238213053,-0.278410332053197,-0.00410718447173419,,
0.00754454398531495,-0.321350275484052,-0.00493897327742454,,
0.00760689558849937,-0.352020136086971,-0.00558170434097827,,
0.00766924719168379,-0.368872728588781,-0.00598778468724337,,
0.00773159879486821,-0.371644666053213,-0.00619184857727495,,
0.00779395039805264,-0.359709589317313,-0.00615554875930258,,
0.00785630200123706,-0.334625435340475,-0.0058732270012154,,
0.00791865360442148,-0.296319409919259,-0.0053791805084189,,
0.0079810052076059,-0.247057709998939,-0.00467175627393956,,
0.00804335681079032,-0.187855988037075,-0.00379552990770815,,
0.00810570841397474,-0.12159469715085,-0.00274613044334826,,
0.00816806001715916,-0.0507063622838838,-0.00159685672799803,,
0.00823041162034358,0.0213585478196814,-0.000425421603551968,,
0.00829276322352801,0.0939225006706585,0.000808072996329123,,
0.00835511482671242,0.162731588677382,0.00201670974190105,,
0.00841746642989685,0.225099270965171,0.00311504143977315,,
0.00847981803308127,0.278596635862009,0.00409312674107198,,
0.00854216963626569,0.321182948695186,0.00493109370514278,,
0.00860452123945011,0.351245515283669,0.00557216996887488,,
0.00866687284263453,0.368048315140266,0.00600577772192379,,
0.00872922444581895,0.370958966982688,0.00620945256367689,,
0.00879157604900337,0.359609269622092,0.00616177711746113,,
0.00885392765218779,0.334529081431156,0.00590367495936395,,
0.00891627925537222,0.296434212077069,0.00537927732227628,,
0.00897863085855664,0.247039908026668,0.00467336445968192,,
0.00904098246174106,0.188200570767657,0.00376991188533404,,
0.00910333406492548,0.122122176051988,0.00275269227146024,,
0.0091656856681099,0.0513357471946031,0.00162975192531922,,
0.00922803727129432,-0.0208072742031326,0.000423804453563825,,
0.00929038887447874,-0.0937033542793415,-0.00084047336726778,,
0.00935274047766316,-0.162635646034749,-0.00201271348100951,,
0.00941509208084758,-0.224945956619825,-0.00310105183738063,,
0.00947744368403201,-0.278591054385554,-0.00410478026094241,,
0.00953979528721643,-0.32129387319567,-0.00494981642945191,,
0.00960214689040085,-0.352094692861926,-0.0055787533111773,,
0.00966449849358527,-0.369036471482239,-0.00600038483149756,,
0.00972685009676969,-0.371424520871373,-0.00619773808693269,,
0.00978920169995411,-0.360138305461398,-0.00614064480381238,,
0.00985155330313853,-0.33475069542259,-0.00587796370883087,,
0.00991390490632295,-0.296291326279836,-0.00535317702346383,,
0.00997625650950737,-0.246735159412255,-0.00469443402360792,,
0.0100386081126918,-0.187859983199168,-0.00380096044796785,,
0.0101009597158762,-0.121592053293582,-0.0027438983460808,,
0.0101633113190606,-0.0507212266369677,-0.00160745425968356,,
0.0102256629222451,0.0213599872530828,-0.00042964017774505,,
0.0102880145254295,0.093991857859653,0.000795890585941095,,
0.0103503661286139,0.162817925305274,0.00199836530877517,,
0.0104127177317983,0.225153058772477,0.00310307596413972,,
0.0104750693349827,0.278670487608359,0.00410169297460161,,
0.0105374209381672,0.320980957999918,0.0049294514552658,,
0.0105997725413516,0.351202802300696,0.00555997142284426,,
0.010662124144536,0.367994262947233,0.0060315409650844,,
0.0107244757477204,0.370997214784497,0.00618991409297687,,
0.0107868273509048,0.359467705753492,0.00616732060722125,,
0.0108491789540893,0.334400971858431,0.0058813288867996,,
0.0109115305572737,0.296494638903737,0.00538780411312301,,
0.0109738821604581,0.247115169830228,0.00466553329432884,,
0.0110362337636425,0.188202010201059,0.00377631952841373,,
0.011098585366827,0.122133015866786,0.00275534210259387,,
0.0111609369700114,0.0513159182650938,0.00160841343401152,,
0.0112232885731958,-0.0208103293270866,0.000411708099937957,,
0.0112856401763802,-0.0937654555489453,-0.000813302737476818,,
0.0113479917795646,-0.162629007015387,-0.00199127459014603,,
0.0114103433827491,-0.225126913961717,-0.00313660224438328,,
0.0114726949859335,-0.278620783091722,-0.00410832113813386,,
0.0115350465891179,-0.321476240594772,-0.00494791421643948,,
0.0115973981923023,-0.351969432779811,-0.00554890237181604,,
0.0116597497954867,-0.368844879958892,-0.00600647514026686,,
0.0117221013986712,-0.371536620419532,-0.00620253216572264,,
0.0117844530018556,-0.360140185537678,-0.00614392751071735,,
0.01184680460504,-0.334747170279566,-0.00588193845553109,,
0.0119091562082244,-0.296370348235954,-0.00535519218597713,,
0.0119715078114088,-0.24700859300614,-0.00467490989570152,,
0.0120338594145933,-0.187897525972373,-0.00378916708585875,,
0.0120962110177777,-0.121560914530205,-0.00272857665672444,,
0.0121585626209621,-0.0506893828449855,-0.00160569726745674,,
0.0122209142241465,0.021309489579266,-0.00041437765241259,,
0.012283265827331,0.0938583136914322,0.000798626473836883,,
0.0123456174305154,0.162768632055324,0.00198792734066933,,
0.0124079690336998,0.225144334043493,0.00314360869909969,,
0.0124703206368842,0.27846312106998,0.0040928649850871,,
0.0125326722400686,0.321094467605287,0.00494252491171165,,
0.0125950238432531,0.351498914314701,0.00560521217983156,,
0.0126573754464375,0.368315844119586,0.00600975067577503,,
0.0127197270496219,0.370898804541747,0.00620009389079623,,
0.0127820786528063,0.35942123261796,0.0061627990415114,,
0.0128444302559907,0.334572029423664,0.00589412983016535,,
0.0129067818591752,0.296363914849935,0.00538467738409931,,
0.0129691334623596,0.247254618613014,0.00469160849325156,,
0.013031485065544,0.188250598422404,0.00378912047177948,,
0.0130938366687284,0.122073822840177,0.00275874134469767,,
0.0131561882719128,0.0513333970992538,0.0016081982921059,,
0.0132185398750973,-0.0207725515443475,0.000427158874437339,,
0.0132808914782817,-0.093736666880917,-0.000801798024090861,,
0.0133432430814661,-0.162761141126398,-0.00199497503091717,,
0.0134055946846505,-0.224987494555123,-0.00311275914272757,,
0.013467946287835,-0.278772246736981,-0.00410279199116736,,
0.0135302978910194,-0.321254744108105,-0.00493279691189308,,
0.0135926494942038,-0.351919140739338,-0.00558668666893558,,
0.0136550010973882,-0.369018552005201,-0.00599741766605355,,
0.0137173527005726,-0.371416295537651,-0.00617945102498174,,
0.0137797043037571,-0.359952119157355,-0.00615851592474659,,
0.0138420559069415,-0.334620030121172,-0.00588418310274319,,
0.0139044075101259,-0.296655121039898,-0.00538872743046648,,
0.0139667591133103,-0.24708244475249,-0.00465862544631879,,
0.0140291107164947,-0.187775086004677,-0.00378907923624716,,
0.0140914623196792,-0.121562559596949,-0.00275171696148924,,
0.0141538139228636,-0.0506893828449855,-0.00162157832576693,,
0.014216165526048,0.0214083404648935,-0.000427696729200289,,
0.0142785171292324,0.0939522293768264,0.000792607879036122,,
0.0143408687324168,0.162753532692705,0.00198811379698727,,
0.0144032203356013,0.224999950060474,0.00310599830835345,,
0.0144655719387857,0.278504864638621,0.00411319589513859,,
0.0145279235419701,0.321052929669989,0.00494344643620614,,
0.0145902751451545,0.351535252664039,0.00554970556826273,,
0.014652626748339,0.368220988396052,0.00600392033014119,,
0.0147149783515234,0.370914843942506,0.00621586020675657,,
0.0147773299547078,0.359333926575736,0.00617283541139368,,
0.0148396815578922,0.334232528774274,0.00589302184935292,,
0.0149020331610766,0.296456156092393,0.00537603943660159,,
0.0149643847642611,0.247211670620506,0.00466056351631616,,
0.0150267363674455,0.188221809754376,0.00379418706364909,,
0.0150890879706299,0.12215448986304,0.00275419109340058,,
0.0151514395738143,0.0513265524465491,0.00160131733683455,,
0.0152137911769987,-0.0208124444129009,0.000406496287281843,,
0.0152761427801832,-0.0937474773195236,-0.000817248798590242,,
0.0153384943833676,-0.162662495874114,-0.00200922997499298,,
0.015400845986552,-0.224951420591512,-0.00310905870195644,,
0.0154631975897364,-0.278615142862884,-0.00411684613613161,,
0.0155255491929209,-0.321266494584852,-0.00493400529226129,,
0.0155879007961053,-0.351798345838387,-0.00557842163407329,,
0.0156502523992897,-0.368880542655817,-0.00599185983349981,,
0.0157126040024741,-0.371579274650121,-0.00620552801675434,,
0.0157749556056585,-0.360128141299013,-0.00616007032501242,,
0.015837307208843,-0.334708746220606,-0.00584670358998984,,
0.0158996588120274,-0.296595428618028,-0.00536963537921986,,
0.0159620104152118,-0.246716534906612,-0.00468740784755051,,
0.0160243620183962,-0.18783072451207,-0.00379263624908166,,
0.0160867136215806,-0.121670898992549,-0.00276450356206137,,
0.0161490652247651,-0.0507280419134805,-0.00162434289924995,,
0.0162114168279495,0.0213722371250908,-0.000424774384986559,,
0.0162737684311339,0.0938682428442828,0.000800815542723488,,
0.0163361200343183,0.162894127146974,0.00198388267284955,,
0.0163984716375027,0.225225471085426,0.00312402720001836,,
0.0164608232406872,0.278531773230369,0.00411799355962694,,
0.0165231748438716,0.321192349076583,0.00492325895409129,,
0.016585526447056,0.351392249362037,0.00556296906672493,,
0.0166478780502404,0.368233972672856,0.00598791018668798,,
0.0167102296534248,0.37094765714882,0.00620946690647051,,
0.0167725812566093,0.359571991234614,0.00614873234660296,,
0.0168349328597937,0.334510691935049,0.0058720562706811,,
0.0168972844629781,0.296571075754971,0.00538984796122355,,
0.0169596360661625,0.2470101793205,0.00467643381753069,,
0.017021987669347,0.188239024202809,0.00378249768679417,,
0.0170843392725314,0.122137040405072,0.00275875568749129,,
0.0171466908757158,0.051371145505801,0.00162386420851091,,
0.0172090424789002,-0.0207848307925473,0.000425604474171504,,
0.0172713940820846,-0.0938263230184907,-0.000812626833324614,,
0.0173337456852691,-0.162703563790342,-0.0020017269010455,,
0.0173960972884535,-0.22515499760114,-0.00310216161104204,,
0.0174584488916379,-0.278602158586079,-0.00411082754133085,,
0.0175208004948223,-0.321564016656066,-0.00492116132051468,,
0.0175831520980067,-0.351989937361734,-0.00557210004775577,,
0.0176455037011912,-0.368667212750489,-0.00598097365309114,,
0.0177078553043756,-0.371508771789643,-0.00620391445246415,,
0.01777020690756,-0.36004794429522,-0.00613870135526762,,
0.0178325585107444,-0.334870315275867,-0.00587704218433638,,
0.0178949101139289,-0.296375107179036,-0.0053805484523668,,
0.0179572617171133,-0.246835214721749,-0.00466498826816819,,
0.0180196133202977,-0.187814685111312,-0.00377280912965849,,
0.0180819649234821,-0.121629831076321,-0.00276510775224548,,
0.0181443165266665,-0.0507778639348845,-0.00160123307292181,,
0.018206668129851,0.0213470029762783,-0.000412262090343951,,
0.0182690197330354,0.0938630432583226,0.000818007173806645,,
0.0183313713362198,0.162867482940952,0.00200133426706861,,
0.0183937229394042,0.224981531188174,0.00310676206211724,,
0.0184560745425886,0.278498284371643,0.00411590309744669,,
0.0185184261457731,0.321058364265484,0.00494877478406064,,
0.0185807777489575,0.35143402230687,0.0055789074962096,,
0.0186431293521419,0.36844771384487,0.00600209162394627,,
0.0187054809553263,0.371155493706268,0.00619653687796173,,
0.0187678325585107,0.359699865797805,0.00616372056600589,,
0.0188301841616952,0.334707453668164,0.00590998220288785,,
0.0188925357648796,0.296454041006579,0.0053964994317961,,
0.018954887368064,0.247247303941239,0.00468245061948247,,
0.0190172389712484,0.188278212042758,0.00379211452996131,,
0.0190795905744329,0.12203087484767,0.00275843656033192,,
0.0191419421776173,0.0513178277175651,0.00161621949947577,,
0.0192042937808017,-0.0208188484227276,0.000433207947674763,,
0.0192666453839861,-0.0937880752166817,-0.000810220829683406,,
0.0193289969871705,-0.162634941006144,-0.00200508311476799,,
0.019391348590355,-0.225113694675377,-0.00309573962516874,,
0.0194537001935394,-0.278634002378061,-0.00408050328977794,,
0.0195160517967238,-0.321514253387046,-0.00494179522208249,,
0.0195784033999082,-0.352138110873503,-0.00552456802947665,,
0.0196407550030926,-0.368785187537021,-0.00600291812743237,,
0.0197031066062771,-0.37139643723195,-0.00619445538002772,,
0.0197654582094615,-0.359893836792693,-0.00615808384808636,,
0.0198278098126459,-0.334752575498869,-0.00586845981516371,,
0.0198901614158303,-0.296405775923344,-0.00537466073555803,,
0.0199525130190147,-0.246834979712214,-0.00467462124697837,,
0.0200148646221992,-0.187811394977823,-0.00377003021338185,,
0.0200772162253836,-0.12159422713178,-0.00274723842416069,,
0.020139567828568,-0.0507565955719738,-0.00159177400048494,,
0.0202019194317524,0.0214059903695443,-0.000417819922897689,,
0.0202642710349369,0.0939817230734594,0.000781590820635003,,
0.0203266226381213,0.162829264515335,0.00199967767439757,,
0.0203889742413057,0.225167923125561,0.00311920443564118,,
0.0204513258444901,0.278396583995404,0.00410010809589911,,
