Time domain (s),Current (AC) (A),Potential (AC) (V),Frequency (Hz),Column 5
0,-0.259002245868621,-0.0140717243864676,0.63096,0.4
0.00386935186065678,-0.254774189325796,-0.0139153502811533,,
0.00773870372131355,-0.250550832973671,-0.0137661250929697,,
0.0116080555819703,-0.246293165229446,-0.0136149378991388,,
0.0154774074426271,-0.242072217725054,-0.0134429128522195,,
0.0193467593032839,-0.237364154207147,-0.0132468447791934,,
0.0232161111639407,-0.232857435108286,-0.0131003060728814,,
0.0270854630245974,-0.228539604923121,-0.0129333354456844,,
0.0309548148852542,-0.223997105622568,-0.0127954284366334,,
0.034824166745911,-0.219135463373588,-0.0125780517419227,,
0.0386935186065678,-0.214610648540538,-0.0124124539548847,,
0.0425628704672245,-0.209935545109904,-0.0122242592752126,,
0.0464322223278813,-0.205106510433895,-0.0120461677970378,,
0.0503015741885381,-0.200263962709627,-0.0118583762305948,,
0.0541709260491949,-0.195394800155529,-0.0116831065450254,,
0.0580402779098517,-0.190320709286978,-0.0114913486826826,,
0.0619096297705084,-0.185387154120311,-0.0112863106355592,,
0.0657789816311652,-0.180414117351776,-0.0110850979356547,,
0.069648333491822,-0.175233097144834,-0.0109090840410464,,
0.0735176853524788,-0.170341138665849,-0.0106468518379033,,
0.0773870372131355,-0.165166463716349,-0.0104506512731164,,
0.0812563890737923,-0.159938206592887,-0.0102371760379123,,
0.0851257409344491,-0.154571293843819,-0.0100207690701315,,
0.0889950927951059,-0.14949015268922,-0.00981234543567577,,
0.0928644446557626,-0.144184107409698,-0.00958416643400772,,
0.0967337965164194,-0.138879472187385,-0.00939430292194521,,
0.100603148377076,-0.133488353456221,-0.00918175231009277,,
0.104472500237733,-0.128097645991742,-0.00895397924062724,,
0.10834185209839,-0.122668749477838,-0.00870541342165243,,
0.112211203959047,-0.117178456722935,-0.00850150014500839,,
0.116080555819703,-0.111634346784535,-0.00826872057837225,,
0.11994990768036,-0.106175780316847,-0.00801456191571148,,
0.123819259541017,-0.100752524031781,-0.00779720777279014,,
0.127688611401674,-0.095062649429344,-0.00753705033424046,,
0.13155796326233,-0.0895012075377428,-0.00731748611599103,,
0.135427315122987,-0.0839953454011513,-0.00704413588084396,,
0.139296666983644,-0.0782390218527141,-0.00682274496768143,,
0.143166018844301,-0.0726533739790158,-0.00658412448767987,,
0.147035370704958,-0.0670189616268206,-0.00635578762348832,,
0.150904722565614,-0.061323035528859,-0.00610724435630239,,
0.154774074426271,-0.0556537242607276,-0.00584733498743217,,
0.158643426286928,-0.0499384686285184,-0.00560693291609526,,
0.162512778147585,-0.0442583469217805,-0.00532580231372348,,
0.166382130008241,-0.0385275806602663,-0.00510565174895916,,
0.170251481868898,-0.0327700233117708,-0.00484980170211902,,
0.174120833729555,-0.0270081182868792,-0.00459627167057786,,
0.177990185590212,-0.0212729455965852,-0.00434667128828004,,
0.181859537450869,-0.0155051065809368,-0.0040776284448425,,
0.185728889311525,-0.00973609251761367,-0.00380578917956154,,
0.189598241172182,-0.00394240245312353,-0.00357429506490181,,
0.193467593032839,0.00180687080926591,-0.00330042613860604,,
0.197336944893496,0.00751196227908957,-0.00305009846111126,,
0.201206296754152,0.0132976620193923,-0.00278135160990489,,
0.205075648614809,0.0191007230890875,-0.00251003385474569,,
0.208945000475466,0.0248598667519438,-0.00225036691760794,,
0.212814352336123,0.0305600523977259,-0.00199328216031702,,
0.21668370419678,0.0362865591114196,-0.00173548984064453,,
0.220553056057436,0.042029927759244,-0.00148013593316376,,
0.224422407918093,0.0477723857451206,-0.00117914002360742,,
0.22829175977875,0.0534539762614519,-0.000934044361173392,,
0.232161111639407,0.0591778978702613,-0.000666332073290032,,
0.236030463500063,0.064818097332254,-0.000418036875783567,,
0.23989981536072,0.0704895824385835,-0.000167821957234082,,
0.243769167221377,0.0761902381034355,9.85344043327174E-05,,
0.247638519082034,0.0817620497907651,0.000359841984124198,,
0.251507870942691,0.0873907631617384,0.00064257376351895,,
0.255377222803347,0.0929607241489805,0.000940031861167423,,
0.259246574664004,0.0985212847548257,0.00116589366651043,,
0.263115926524661,0.103971625888791,0.00142354785647481,,
0.266985278385318,0.109600309883573,0.00168128661564815,,
0.270854630245974,0.115016369001631,0.0019472173121966,,
0.274723982106631,0.120478695621878,0.00219832584538748,,
0.278593333967288,0.125971573481665,0.00245337530371614,,
0.282462685827945,0.13142379469191,0.00273718393103817,,
0.286332037688601,0.136687068236076,0.00297147446754087,,
0.290201389549258,0.142191902205952,0.00324694457085961,,
0.294070741409915,0.147414078457698,0.00351526575704764,,
0.297940093270572,0.152662781410699,0.00374253704920635,,
0.301809445131229,0.157933369626639,0.00402773261155565,,
0.305678796991885,0.162998265747137,0.00425643030437239,,
0.309548148852542,0.168133488470961,0.00453812470147064,,
0.313417500713199,0.173338714660001,0.00474515012500421,,
0.317286852573856,0.178416536304919,0.00503674475749838,,
0.321156204434512,0.183383227816011,0.00526915785756188,,
0.325025556295169,0.188403971520134,0.0055540658846005,,
0.328894908155826,0.193434321238998,0.00577141438957485,,
0.332764260016483,0.198147936857168,0.0060186271012066,,
0.33663361187714,0.203246233707817,0.00626200037075142,,
0.340502963737796,0.208034082962831,0.00650204161346313,,
0.344372315598453,0.212633924589905,0.00675088369185417,,
0.34824166745911,0.217358086260955,0.00697346984983627,,
0.352111019319767,0.221973908536404,0.0072507215444908,,
0.355980371180423,0.226586176292638,0.00747678631593507,,
0.35984972304108,0.231159726227992,0.00769165412411299,,
0.363719074901737,0.235622116653328,0.00793219150618407,,
0.367588426762394,0.239931927138114,0.00817283600925345,,
0.371457778623051,0.244540728503707,0.00839486964840397,,
0.375327130483707,0.24879695681453,0.00862148693868026,,
0.379196482344364,0.253233701824367,0.00883623071201844,,
0.383065834205021,0.257579498144188,0.00904435553526861,,
0.386935186065678,0.261494756996028,0.00926166457461219,,
0.390804537926334,0.265523995472306,0.00947217988750237,,
0.394673889786991,0.269420923580422,0.00970342593248263,,
0.398543241647648,0.273559676499975,0.00994374343461013,,
0.402412593508305,0.277390096909707,0.0101272247903696,,
0.406281945368962,0.280931220581947,0.0103480293570168,,
0.410151297229618,0.284999940660092,0.0105542429161445,,
0.414020649090275,0.288525318693493,0.0107467900911047,,
0.417890000950932,0.292128719892488,0.010945944940258,,
0.421759352811589,0.295819074619405,0.0111362369363124,,
0.425628704672245,0.299192166474174,0.0113432849116353,,
0.429498056532902,0.302529536879635,0.0115256837815201,,
0.433367408393559,0.305920254449524,0.011728745728127,,
0.437236760254216,0.309123669420078,0.0119271732820834,,
0.441106112114873,0.312489240969729,0.0120685504476752,,
0.444975463975529,0.315574211134681,0.0122840553438941,,
0.448844815836186,0.318782796315003,0.0124559676318681,,
0.452714167696843,0.321631581897357,0.0126297460803859,,
0.4565835195575,0.324480602489244,0.0127985518594174,,
0.460452871418156,0.327407176227657,0.0129376569322619,,
0.464322223278813,0.329939873985537,0.0131431037305618,,
0.46819157513947,0.332727792098345,0.013297510192281,,
0.472060927000127,0.335218893168543,0.0134705275179186,,
0.475930278860784,0.337734435230373,0.0136147687607204,,
0.47979963072144,0.340594031251333,0.0137408107097543,,
0.483668982582097,0.342423345471184,0.0139074909826671,,
0.487538334442754,0.344904106121846,0.0140492289768837,,
0.491407686303411,0.347325409360171,0.0142198558128812,,
0.495277038164067,0.349552124703579,0.0143460838141749,,
0.499146390024724,0.351120108320595,0.014496436591811,,
0.503015741885381,0.353165161293507,0.0146077916882223,,
0.506885093746038,0.355045942601506,0.0147400579310357,,
0.510754445606695,0.356782193045527,0.0148644761512573,,
0.514623797467351,0.358351821729287,0.0149762202660297,,
0.518493149328008,0.360249758733336,0.0151204840606209,,
0.522362501188665,0.36155852683333,0.0152344608025099,,
0.526231853049322,0.363202183520591,0.0153336886743562,,
0.530101204909978,0.364459249522901,0.0154372239379121,,
0.533970556770635,0.365851446007793,0.0155079632622335,,
0.537839908631292,0.367026023663345,0.015641244335554,,
0.541709260491949,0.368111297695626,0.0157308031278429,,
0.545578612352606,0.368848287597148,0.0158169058584585,,
0.549447964213262,0.369871284102674,0.0159120293046966,,
0.553317316073919,0.371097798865444,0.015999597901601,,
0.557186667934576,0.371465118768531,0.0160963732663872,,
0.561056019795233,0.372085543940732,0.0161498153685029,,
0.564925371655889,0.372916302646689,0.0162379252083444,,
0.568794723516546,0.373204659346041,0.0162957479954842,,
0.572664075377203,0.373721680322875,0.0163795504436162,,
0.57653342723786,0.373859630919875,0.0164562716299845,,
0.580402779098517,0.374304973988557,0.0164722608484253,,
0.584272130959173,0.374547738838134,0.016544223607303,,
0.58814148281983,0.374204624917144,0.0166013247371923,,
0.592010834680487,0.37440532305997,0.0166606584941986,,
0.595880186541144,0.374303563931348,0.016696109906595,,
0.5997495384018,0.374247866671571,0.0167225857069466,,
0.603618890262457,0.373726145504038,0.0167792358010552,,
0.607488242123114,0.373170112944407,0.0167942327407773,,
0.611357593983771,0.37255603302965,0.0168212441461191,,
0.615226945844428,0.372387296183574,0.0168515819403465,,
0.619096297705084,0.371648896224842,0.0168566560928842,,
0.622965649565741,0.370857149101682,0.0168503810575795,,
0.626835001426398,0.370177266517146,0.0168732260198934,,
0.630704353287055,0.36913946441092,0.0168927840589519,,
0.634573705147711,0.368227392405878,0.016889581704906,,
0.638443057008368,0.36702766873009,0.0169173204054447,,
0.642312408869025,0.365781648175921,0.0169151328819064,,
0.646181760729682,0.364765936965978,0.0168859283150788,,
0.650051112590339,0.363339429088987,0.0168987602830519,,
0.653920464450995,0.361871559533849,0.0168689468179197,,
0.657789816311652,0.3602986407166,0.0168699616484274,,
0.661659168172309,0.358831946209138,0.0168479059987305,,
0.665528520032966,0.357075484945113,0.0167906470063173,,
0.669397871893622,0.355350984977838,0.0167604445228244,,
0.673267223754279,0.353771485893611,0.0167432375077747,,
0.677136575614936,0.351512339234384,0.0166900885789167,,
0.681005927475593,0.349848706736654,0.0166542763378961,,
0.684875279336249,0.347484510815315,0.016625229633592,,
0.688744631196906,0.345220193946319,0.0165830352362684,,
0.692613983057563,0.343041890567105,0.0165182664980992,,
0.69648333491822,0.34062011730971,0.0164381399915836,,
0.700352686778877,0.338351100250015,0.016369447242119,,
0.704222038639533,0.336091483571717,0.016320600067024,,
0.70809139050019,0.333342577041707,0.0162392332121097,,
0.711960742360847,0.330715170441253,0.0161741318350526,,
0.715830094221504,0.327977074349849,0.0160910228544338,,
0.719699446082161,0.325011959047708,0.0160198945117513,,
0.723568797942817,0.322301359071891,0.0159260847072256,,
0.727438149803474,0.31914964619902,0.0158316321767122,,
0.731307501664131,0.316672645700918,0.0157365087304737,,
0.735176853524788,0.313456540215478,0.0156730423581233,,
0.739046205385444,0.310277096217486,0.0155631023864751,,
0.742915557246101,0.307023624215994,0.0154480487966588,,
0.746784909106758,0.303687193848672,0.0153764017628282,,
0.750654260967415,0.300209992769932,0.0152416999267966,,
0.754523612828071,0.296830320648184,0.015089430247091,,
0.758392964688728,0.293029276430318,0.0150210532226729,,
0.762262316549385,0.289623753259729,0.014902994606965,,
0.766131668410042,0.285872296053732,0.0147570619799837,,
0.770001020270699,0.282178651193326,0.0146720642870317,,
0.773870372131355,0.278242006473808,0.0144946042589504,,
0.777739723992012,0.27430489173522,0.014357083449287,,
0.781609075852669,0.270236406666609,0.0142646436659466,,
0.785478427713326,0.2667244241767,0.0140991529999064,,
0.789347779573983,0.262619982649246,0.0139758680070847,,
0.793217131434639,0.258403441573633,0.0137874196197858,,
0.797086483295296,0.25415587923941,0.0136621500695271,,
0.800955835155953,0.249966834279384,0.0135225093916924,,
0.80482518701661,0.245649709122823,0.0133338016588191,,
0.808694538877266,0.241111439993899,0.0132283438552463,,
0.812563890737923,0.236871632974329,0.013058235710397,,
0.81643324259858,0.232492935319618,0.0128515090980681,,
0.820302594459237,0.227812044779187,0.0126976326033921,,
0.824171946319893,0.223341899039199,0.012519180296592,,
0.82804129818055,0.218583866618928,0.0123342330745437,,
0.831910650041207,0.213869369715003,0.0121728750238486,,
0.835780001901864,0.209195970103497,0.0119387649016582,,
0.839649353762521,0.204283330785438,0.0117480669734009,,
0.843518705623177,0.199488666253912,0.0116185802385886,,
0.847388057483834,0.194650289948889,0.0114372413027897,,
0.851257409344491,0.1898168488441,0.0112628877836505,,
0.855126761205148,0.184715731879032,0.0110459395729321,,
0.858996113065804,0.179672632892898,0.0109042692340826,,
0.862865464926461,0.174618077191937,0.0106514185751867,,
0.866734816787118,0.169505209750123,0.0104596832646329,,
0.870604168647775,0.164549563687173,0.0103107963532851,,
0.874473520508432,0.159138028502661,0.010059890786196,,
0.878342872369088,0.153880130801607,0.00987065308627999,,
0.882212224229745,0.148779924498487,0.00965298321831165,,
0.886081576090402,0.143380844819326,0.0094179033691919,,
0.889950927951059,0.138173033525403,0.0092100209776742,,
0.893820279811715,0.132762849645717,0.00900709997974847,,
0.897689631672372,0.127304547563756,0.00879966862401149,,
0.901558983533029,0.121859141630024,0.00855155384081741,,
0.905428335393686,0.1164198459442,0.00834516550532438,,
0.909297687254343,0.110991830716052,0.00810727795846766,,
0.913167039114999,0.105490521889199,0.00789035229953816,,
0.917036390975656,0.0999473226127467,0.00766001396406768,,
0.920905742836313,0.0944182532845814,0.00745034998121419,,
0.92477509469697,0.0887484426211883,0.00717501518862962,,
0.928644446557626,0.0832132630451149,0.0069643814788467,,
0.932513798418283,0.0775603143158526,0.00673827160382423,,
0.93638315027894,0.0718733185802181,0.0065098727222126,,
0.940252502139597,0.066269046200877,0.00624910638535869,,
0.944121854000254,0.0606015562566412,0.00602864009554738,,
0.94799120586091,0.0548214967451767,0.00579322196959176,,
0.951860557721567,0.0491539774247491,0.00554912140484998,,
0.955729909582224,0.0434515004360014,0.00530813298699773,,
0.959599261442881,0.0377652097289717,0.00504321712095734,,
0.963468613303537,0.0320281569623984,0.0047813006428612,,
0.967337965164194,0.026291544838703,0.00457211024757775,,
0.971207317024851,0.020487543730868,0.00430342823276497,,
0.975076668885508,0.0148266340536101,0.00407027092366263,,
0.978946020746165,0.00902163415525176,0.00381179359339745,,
0.982815372606821,0.00324815491076512,0.00357962856301342,,
0.986684724467478,-0.00250972557584093,0.00329069504162804,,
0.990554076328135,-0.00832462525085799,0.00304476778197271,,
0.994423428188792,-0.0140945793523208,0.00280673364848694,,
0.998292780049448,-0.019780106278362,0.00253483236578633,,
1.00216213191011,-0.0256056401348344,0.00229081073230608,,
1.00603148377076,-0.0313134929666934,0.00202957644582868,,
1.00990083563142,-0.0370493119332084,0.00174957343290982,,
1.01377018749208,-0.0427727928991399,0.00151147164405696,,
1.01763953935273,-0.0485086706180387,0.00126926542959582,,
1.02150889121339,-0.0542124107830365,0.00103942323348427,,
1.02537824307405,-0.0598922974802395,0.000746013181971428,,
1.0292475949347,-0.0656613115435626,0.000504534262707246,,
1.03311694679536,-0.0712033651485325,0.000216886193298294,,
1.03698629865602,-0.0768886570650388,-3.64126824048405E-05,,
1.04085565051667,-0.0825829380962559,-0.000288003260086711,,
1.04472500237733,-0.0881404435781471,-0.000526668843666034,,
1.04859435423799,-0.093714164717948,-0.000790048369077478,,
1.05246370609864,-0.0993259574024067,-0.00105825961529371,,
1.0563330579593,-0.104867952254993,-0.00131115537776738,,
1.06020240981996,-0.110354191095418,-0.001569643983927,,
1.06407176168061,-0.115848831526717,-0.00181672138482414,,
1.06794111354127,-0.121282663240854,-0.00206914355972776,,
1.07181046540193,-0.126680832258067,-0.00232582520378921,,
1.07567981726258,-0.132039754682947,-0.00257705495284677,,
1.07954916912324,-0.137539682828782,-0.00284747345541669,,
1.0834185209839,-0.14285606852784,-0.00309554313503257,,
1.08728787284455,-0.148023223172222,-0.00335019793705271,,
1.09115722470521,-0.15334148894756,-0.00357181436810583,,
1.09502657656587,-0.158631964845394,-0.00385303517763402,,
1.09889592842652,-0.163839129863096,-0.00411961987606446,,
1.10276528028718,-0.168935076618396,-0.0043645999605797,,
1.10663463214784,-0.17423642170722,-0.00462719581132109,,
1.11050398400849,-0.179174265797899,-0.00487027872658174,,
1.11437333586915,-0.184163224462425,-0.00509622510113372,,
1.11824268772981,-0.1892285612258,-0.00538047066936898,,
1.12211203959047,-0.194047020472738,-0.00564948814204413,,
1.12598139145112,-0.199088973787389,-0.00582990245449189,,
1.12985074331178,-0.203885459642811,-0.00609824619246879,,
1.13372009517244,-0.208423493762201,-0.00632320310727597,,
1.13758944703309,-0.213417211369808,-0.00655931751971828,,
1.14145879889375,-0.218168869156444,-0.00680456540672836,,
1.14532815075441,-0.222685458655771,-0.00703682910118975,,
1.14919750261506,-0.227362265905533,-0.00728368098419629,,
1.15306685447572,-0.231890370872072,-0.00750303941737007,,
1.15693620633638,-0.236192925437467,-0.00777675330011629,,
1.16080555819703,-0.240824963370826,-0.00796386549391359,,
1.16467491005769,-0.245159479232971,-0.00820288908714417,,
1.16854426191835,-0.249644166187933,-0.00841945673642241,,
1.172413613779,-0.25386329236843,-0.00866017453280588,,
1.17628296563966,-0.257870439948425,-0.00888023489041423,,
1.18015231750032,-0.262286739128723,-0.00909454454181313,,
1.18402166936097,-0.266274615926855,-0.00933589378829014,,
1.18789102122163,-0.270213845751257,-0.00953360532294401,,
1.19176037308229,-0.274260533685503,-0.00973469962595619,,
1.19562972494294,-0.278147532640768,-0.00995487274250983,,
1.1994990768036,-0.281815267699949,-0.0101469012263213,,
1.20336842866426,-0.286046966890564,-0.010368359794851,,
1.20723778052491,-0.289400964220621,-0.0105718248546878,,
1.21110713238557,-0.292861714631917,-0.0107803358773255,,
1.21497648424623,-0.296530683491156,-0.0109946455287244,,
1.21884583610688,-0.299928157585174,-0.0111890842349918,,
1.22271518796754,-0.303204249254403,-0.0114003747656306,,
1.2265845398282,-0.306671344923142,-0.0115765718935252,,
1.23045389168886,-0.30992317185789,-0.0117598953867613,,
1.23432324354951,-0.313532448295259,-0.0119557351229234,,
1.23819259541017,-0.316410140050407,-0.0121318645954505,,
1.24206194727083,-0.319528775331237,-0.0123309743410256,,
1.24593129913148,-0.322394422847721,-0.0125039916666632,,
1.24980065099214,-0.325368938531259,-0.0126743450622184,,
1.2536700028528,-0.328068493058935,-0.0128376228339571,,
1.25753935471345,-0.330942365909141,-0.0130053404891664,,
1.26140870657411,-0.333494393201268,-0.0131767115342027,,
1.26527805843477,-0.336222618892205,-0.0133766782477625,,
1.26914741029542,-0.33864674224495,-0.0135242346035556,,
1.27301676215608,-0.341034204110246,-0.0136660402531397,,
1.27688611401674,-0.34338241938321,-0.0138085450081844,,
1.28075546587739,-0.345938618094583,-0.0139628189781424,,
1.28462481773805,-0.347879326833988,-0.0141059326314918,,
1.28849416959871,-0.349970500428129,-0.0142775771169705,,
1.29236352145936,-0.35189681483352,-0.0144019051300361,,
1.29623287332002,-0.353881940375026,-0.0145516039057898,,
1.30010222518068,-0.35573193543395,-0.01466411478139,,
1.30397157704133,-0.357350857367661,-0.0148141969375573,,
1.30784092890199,-0.359210311560366,-0.0149283738265744,,
1.31171028076265,-0.36069198792568,-0.0150663033874143,,
1.3155796326233,-0.362467543714417,-0.015177055223468,,
1.31944898448396,-0.363648936646482,-0.0152860931235539,,
1.32331833634462,-0.365080614733241,-0.0154255308352869,,
