Time domain (s),Current (AC) (A),Potential (AC) (V),Frequency (Hz),Column 5
0,-0.457738623655214,-0.00899316293777508,100,0.5
0.000244140625,-0.452224869332341,-0.00910436257884184,,
0.00048828125,-0.435808880378524,-0.00898138835477313,,
0.000732421875,-0.408863507912918,-0.00865235550532972,,
0.0009765625,-0.372528596923961,-0.00812362367446973,,
0.001220703125,-0.327434973873542,-0.00742418606141326,,
0.00146484375,-0.274424896070668,-0.00656628446735352,,
0.001708984375,-0.21556266141143,-0.00549058047051254,,
0.001953125,-0.151306641220456,-0.00431910701288718,,
0.002197265625,-0.0833818820245582,-0.00306596107706225,,
0.00244140625,-0.0135889059992177,-0.0017037239720108,,
0.002685546875,0.0563949873417363,-0.000337543750791092,,
0.0029296875,0.125411561567828,0.00109473843174568,,
0.003173828125,0.191402036215579,0.00247220034644657,,
0.00341796875,0.252642708748172,0.00375513700411867,,
0.003662109375,0.307938135433164,0.00500917116793431,,
0.00390625,0.355996105258467,0.00608351971859289,,
0.004150390625,0.395349547040003,0.00705269112201901,,
0.00439453125,0.425863778833006,0.00786393250808981,,
0.004638671875,0.446171043240402,0.00846067111289495,,
0.0048828125,0.456454405846781,0.00890539437459692,,
0.005126953125,0.455567938340568,0.00910072923004623,,
0.00537109375,0.444188445788749,0.00911632370683568,,
0.005615234375,0.422553036320976,0.00888376200117502,,
0.005859375,0.391122344823976,0.00845539993329547,,
0.006103515625,0.350018603650984,0.00783549894384716,,
0.00634765625,0.301151127430765,0.00700282713214406,,
0.006591796875,0.245059209832914,0.00602693668615029,,
0.0068359375,0.183124189627085,0.00490994976908121,,
0.007080078125,0.116763905521748,0.00364615365447429,,
0.00732421875,0.0476423939715682,0.00236758796845704,,
0.007568359375,-0.0222878458740568,0.00099005417403486,,
0.0078125,-0.0923547836494421,-0.000400825288737749,,
0.008056640625,-0.159885824513104,-0.00180289060536154,,
0.00830078125,-0.223831453751536,-0.00313658119232185,,
0.008544921875,-0.28212242192656,-0.0043858096833076,,
0.0087890625,-0.333835761593152,-0.00560123416797786,,
0.009033203125,-0.377962489946601,-0.00663081192047832,,
0.00927734375,-0.412896892624395,-0.00749013912902052,,
0.009521484375,-0.438079020952804,-0.00821382245681335,,
0.009765625,-0.453446556237847,-0.00871469404978331,,
0.010009765625,-0.458036847961486,-0.00902390007595999,,
0.01025390625,-0.451311522026228,-0.00910473395740485,,
0.010498046875,-0.434768561386036,-0.00898784897262672,,
0.0107421875,-0.407411998718258,-0.00866515865292206,,
0.010986328125,-0.370955916420799,-0.00812330877283118,,
0.01123046875,-0.325474163207071,-0.00739520141930283,,
0.011474609375,-0.272319783320518,-0.00650494710473959,,
0.01171875,-0.212915425539064,-0.00546707066721375,,
0.011962890625,-0.148514254428624,-0.00429173795309579,,
0.01220703125,-0.0805686280196449,-0.0030053767401057,,
0.012451171875,-0.010777349665877,-0.00168643176464878,,
0.0126953125,0.0591893547504034,-0.000273591335440582,,
0.012939453125,0.128231358681928,0.00114582095404758,,
0.01318359375,0.193956748987233,0.00248237303850507,,
0.013427734375,0.254929472356602,0.00381495462404269,,
0.013671875,0.310121058130397,0.00503692700908598,,
0.013916015625,0.357524009673898,0.00613624520596456,,
0.01416015625,0.396772761708452,0.00708099119534999,,
0.014404296875,0.426760432368655,0.00789027471471249,,
0.0146484375,0.446890573041966,0.00850723205841053,,
0.014892578125,0.456477607358274,0.00889811056278633,,
0.01513671875,0.455573031355287,0.009102875353169,,
0.015380859375,0.443480799688194,0.00907560555585052,,
0.015625,0.421304398879254,0.00884935557433364,,
0.015869140625,0.38952426998354,0.00841718730404217,,
0.01611328125,0.348071657302357,0.0077931241364162,,
0.016357421875,0.299148723810763,0.00695570484022978,,
0.0166015625,0.242509059553611,0.00599027118233764,,
0.016845703125,0.180404802712879,0.00485716609336295,,
0.01708984375,0.114003491544535,0.00361733330887137,,
0.017333984375,0.0448692120894022,0.00229499287226975,,
0.017578125,-0.0250134575840294,0.000945899487778235,,
0.017822265625,-0.095112368174034,-0.000449347523805432,,
0.01806640625,-0.16258038298056,-0.00185285043486561,,
0.018310546875,-0.226229697793239,-0.0031967120024623,,
0.0185546875,-0.28448416602945,-0.00448741167009059,,
0.018798828125,-0.335651704285418,-0.00561919896416541,,
0.01904296875,-0.379327700836316,-0.00665159714003627,,
0.019287109375,-0.4140657395022,-0.00750705995781997,,
0.01953125,-0.439033324585609,-0.00820880970192794,,
0.019775390625,-0.45374570011622,-0.0087236773035877,,
0.02001953125,-0.457810491751792,-0.00900896278519836,,
0.020263671875,-0.450481077681914,-0.00911420667788665,,
0.0205078125,-0.433740904194027,-0.00899679115230478,,
0.020751953125,-0.40620870325479,-0.00864922189174289,,
0.02099609375,-0.369077725770867,-0.00809170907798462,,
0.021240234375,-0.323500266322228,-0.00736638107369991,,
0.021484375,-0.270192247158345,-0.00647612847055834,,
0.021728515625,-0.210523406293127,-0.00541470286702905,,
0.02197265625,-0.145822879095367,-0.00421024517420099,,
0.022216796875,-0.0777909543814428,-0.00294690258641062,,
0.0224609375,-0.007973362118298,-0.00158985280128299,,
0.022705078125,0.0620151290831654,-0.000217348875965584,,
0.02294921875,0.13098926151994,0.00116950361096313,,
0.023193359375,0.196569500905779,0.00255659398554275,,
0.0234375,0.257247925834388,0.00385242449617085,,
0.023681640625,0.31225729485938,0.00505412337681888,,
0.02392578125,0.359712874221635,0.00620216917939898,,
0.024169921875,0.398470433281153,0.0071436566213956,,
0.0244140625,0.4278811785519,0.00792060111163018,,
0.024658203125,0.447340456008732,0.00851675098728499,,
0.02490234375,0.456568432787414,0.00893807911095834,,
0.025146484375,0.454663079392318,0.0091150093347796,,
0.025390625,0.442794940372823,0.00907166243968227,,
0.025634765625,0.420204024754881,0.00886497743387471,,
0.02587890625,0.388018152353291,0.00838928428060282,,
0.026123046875,0.346538376926946,0.0077454336524152,,
0.0263671875,0.296575053706548,0.00692926679397798,,
0.026611328125,0.240262721749507,0.00593268183378992,,
0.02685546875,0.177858578299089,0.00480246904790693,,
0.027099609375,0.111389077322574,0.00358046243442489,,
0.02734375,0.0421076663311407,0.00225181027367949,,
0.027587890625,-0.0279008432476174,0.000877882445301292,,
0.02783203125,-0.0978486610676515,-0.000505591694702101,,
0.028076171875,-0.165405591422797,-0.0018983331845539,,
0.0283203125,-0.228608630820803,-0.0032585439660191,,
0.028564453125,-0.286708964625476,-0.00451912260736398,,
0.02880859375,-0.337818216157448,-0.0056761259924194,,
0.029052734375,-0.380945794054047,-0.0066955995097393,,
0.029296875,-0.415290326596643,-0.00757633831827231,,
0.029541015625,-0.440019388824087,-0.00824550429991344,,
0.02978515625,-0.453933009879741,-0.00875931424280951,,
0.030029296875,-0.457450585378379,-0.00903679735175977,,
0.0302734375,-0.450457876170421,-0.00911767059590929,,
0.030517578125,-0.432892917243462,-0.00895341687445628,,
0.03076171875,-0.404749200856475,-0.0086341613786014,,
0.031005859375,-0.367613484039411,-0.00807463593263202,,
0.03125,-0.321417011093576,-0.00735348379790013,,
0.031494140625,-0.267822368379169,-0.00640929915491384,,
0.03173828125,-0.207914933921671,-0.0053850610388908,,
0.031982421875,-0.143396269791137,-0.00418412202958773,,
0.0322265625,-0.0750902418545364,-0.00290349921438926,,
0.032470703125,-0.00515494436235102,-0.00154415098958527,,
0.03271484375,0.0648239620683582,-0.000173110330033754,,
0.032958984375,0.133704970145738,0.00124554893379747,,
0.033203125,0.199213589012104,0.00259016523847322,,
0.033447265625,0.259599236330738,0.0038994851768952,,
0.03369140625,0.314203958262744,0.00515233161387885,,
0.033935546875,0.361156178003694,0.0062195709177657,,
0.0341796875,0.399679741331441,0.00718764701114516,,
0.034423828125,0.429081715299062,0.00795907387701966,,
0.03466796875,0.448099881092254,0.00856009788238232,,
0.034912109375,0.456717827885812,0.00894735844076022,,
0.03515625,0.454662796447056,0.00912742398958999,,
0.035400390625,0.442162557711991,0.00907646811251217,,
0.03564453125,0.419054701100162,0.00883434982669451,,
0.035888671875,0.386193438357899,0.00839560969612263,,
0.0361328125,0.344543612829021,0.00773983387980159,,
0.036376953125,0.294671115037763,0.00689662313174333,,
0.03662109375,0.237904372989762,0.0058895676920776,,
0.036865234375,0.175340931356772,0.00478587852354373,,
0.037109375,0.108491965415601,0.0035146343006196,,
0.037353515625,0.0392392026319568,0.00221343334791912,,
0.03759765625,-0.0306723628263685,0.000823582449737348,,
0.037841796875,-0.100641613750008,-0.000585987452128123,,
0.0380859375,-0.16796476058233,-0.00198101540170237,,
0.038330078125,-0.231046557935518,-0.003286761891097,,
0.03857421875,-0.288643744327832,-0.00456052532712814,,
0.038818359375,-0.33961887980556,-0.00571899368937157,,
0.0390625,-0.382575275818578,-0.00670938672495192,,
0.039306640625,-0.416530758625763,-0.00758645624482845,,
0.03955078125,-0.440521616664344,-0.00823750853657268,,
0.039794921875,-0.454201241988228,-0.00873427442828945,,
0.0400390625,-0.457646878653973,-0.00902882897117019,,
0.040283203125,-0.449901322839837,-0.00911244049043614,,
0.04052734375,-0.431707942485717,-0.00894622890227481,,
0.040771484375,-0.40352546259782,-0.00860969489043351,,
0.041015625,-0.365804544242382,-0.00806744796045056,,
0.041259765625,-0.319481099610172,-0.00729358402972258,,
0.04150390625,-0.265457511878396,-0.00640604060752503,,
0.041748046875,-0.205427915803978,-0.00532947405402195,,
0.0419921875,-0.140606146561402,-0.00414933053280819,,
0.042236328125,-0.0723131341068585,-0.00285447039842479,,
0.04248046875,-0.00234388318321908,-0.00152609206519072,,
0.042724609375,0.0676570576097775,-9.62743302590496E-05,,
0.04296875,0.136295616965681,0.00127083690450025,,
0.043212890625,0.201648050047358,0.00266898648770741,,
0.04345703125,0.262087138652374,0.00395525014964671,,
0.043701171875,0.316369338353725,0.00517259142689852,,
0.0439453125,0.362936469592934,0.00625594890269099,,
0.044189453125,0.401049196400087,0.00719577968824181,,
0.04443359375,0.429905368957085,0.00798568991115367,,
0.044677734375,0.448301621064143,0.00854815900287331,,
0.044921875,0.456759703784605,0.00892343960761588,,
0.045166015625,0.454378719403891,0.00910331690003119,,
0.04541015625,0.441650709732822,0.00906933490583306,,
0.045654296875,0.418111078651002,0.0088233419607251,,
0.0458984375,0.384745041561122,0.00835067460145744,,
0.046142578125,0.342728801917803,0.00767614502343106,,
0.04638671875,0.292362281698888,0.00683622020551278,,
0.046630859375,0.235458028253499,0.00585472314121738,,
0.046875,0.172720575284307,0.00472266544247502,,
0.047119140625,0.105910691157465,0.00345058604564041,,
0.04736328125,0.0365412841895139,0.00214830347426842,,
0.047607421875,-0.0335473696347389,0.000758984828312492,,
0.0478515625,-0.103380453150985,-0.000628143197549669,,
0.048095703125,-0.170407497766501,-0.00200960299392072,,
0.04833984375,-0.233360413552795,-0.00337389380531006,,
0.048583984375,-0.290897686285855,-0.00460687063347809,,
0.048828125,-0.341430295373633,-0.00575309890594955,,
0.049072265625,-0.384129494143387,-0.00676134549529106,,
0.04931640625,-0.417771402863831,-0.00762988528817887,,
0.049560546875,-0.441444159691477,-0.0082998060068995,,
0.0498046875,-0.454880027672047,-0.00876691466768031,,
0.050048828125,-0.457396472096999,-0.00905344606446912,,
0.05029296875,-0.449444083296256,-0.00911468758745393,,
0.050537109375,-0.431063676123876,-0.00893600144471396,,
0.05078125,-0.402234029685202,-0.00859611133443305,,
0.051025390625,-0.363998787579552,-0.00800534388080409,,
0.05126953125,-0.317330998563345,-0.00726346129201705,,
0.051513671875,-0.26323808924235,-0.00635113648001306,,
0.0517578125,-0.202945566283111,-0.00529765529716597,,
0.052001953125,-0.137918237307606,-0.00407810970844524,,
0.05224609375,-0.0695192618524002,-0.0027810572425464,,
0.052490234375,0.000488151313467276,-0.00145095379598903,,
0.052734375,0.0703908393641937,-3.95766325462787E-05,,
0.052978515625,0.13895530242958,0.00136322630693764,,
0.05322265625,0.204041519387763,0.00272924223165028,,
0.053466796875,0.264173294069962,0.0040148487075613,,
0.0537109375,0.318288556066665,0.00522200360137903,,
0.053955078125,0.364508230523993,0.00631075547915128,,
0.05419921875,0.402358667073165,0.0072364704564758,,
0.054443359375,0.43068120486581,0.00800112009143605,,
0.0546875,0.449021150865706,0.00856686142192054,,
0.054931640625,0.456790827763438,0.00896028309931118,,
0.05517578125,0.454145855453169,0.00912580840727095,,
0.055419921875,0.440555994513691,0.00907891886874168,,
0.0556640625,0.416789441331654,0.00881315557729101,,
0.055908203125,0.383212044130972,0.00834877150025148,,
0.05615234375,0.340897580181382,0.00769218789277115,,
0.056396484375,0.29052200571408,0.00681070974995679,,
0.056640625,0.233037466904246,0.00581389203638372,,
0.056884765625,0.170041649542584,0.00467863397859869,,
0.05712890625,0.103097366416237,0.003427916550518,,
0.057373046875,0.0337081532799368,0.00208866384222706,,
0.0576171875,-0.0363610480575454,0.000721443076463046,,
0.057861328125,-0.106127568700878,-0.000680897779094636,,
0.05810546875,-0.173042779201543,-0.00207456857106436,,
0.058349609375,-0.235908689319736,-0.00337976911685711,,
0.05859375,-0.293009023831772,-0.00466159506168529,,
0.058837890625,-0.34343750906309,-0.00579856796426226,,
0.05908203125,-0.385492299998373,-0.00681585086148884,,
0.059326171875,-0.419017847479771,-0.00768276138068247,,
0.0595703125,-0.441813403258539,-0.0083306646560426,,
0.059814453125,-0.454950198097052,-0.00879399620858434,,
0.06005859375,-0.457312508090466,-0.00904770937809962,,
0.060302734375,-0.4487924603576,-0.00912654260728729,,
0.060546875,-0.429948871791136,-0.0089051273927736,,
0.060791015625,-0.400872001929687,-0.00855999519706563,,
0.06103515625,-0.362256127710174,-0.00799618435053873,,
0.061279296875,-0.315244843145757,-0.0072586162564825,,
0.0615234375,-0.261060542505098,-0.00631291187080629,,
0.061767578125,-0.200423462952916,-0.00524445061164869,,
0.06201171875,-0.135235067386951,-0.00402513777631253,,
0.062255859375,-0.0667653556162159,-0.00274147547573422,,
0.0625,0.00321146409318519,-0.00140584071344119,,
0.062744140625,0.0732180284232663,-3.01997516936048E-05,,
0.06298828125,0.141658278518584,0.00139894710583466,,
0.063232421875,0.20661628590487,0.00277697036693425,,
0.0634765625,0.266584270648461,0.0040464073282811,,
0.063720703125,0.32019928542174,0.00526124650664528,,
0.06396484375,0.366144502974816,0.00635549889455822,,
0.064208984375,0.40345140167546,0.00726041667237132,,
0.064453125,0.431506556195405,0.00803146017972933,,
0.064697265625,0.449526774049109,0.0085858137085717,,
0.06494140625,0.456894951619897,0.00896988075359495,,
0.065185546875,0.45370361200848,0.00912778338819908,,
0.0654296875,0.43973913154196,0.00906396788660446,,
0.065673828125,0.415935512530585,0.00879271435354489,,
0.06591796875,0.381673953686105,0.00830375083448898,,
0.066162109375,0.339053625908166,0.00762415202465316,,
0.06640625,0.288393726820594,0.0067613934151054,,
0.066650390625,0.230765911603656,0.00576111178350969,,
0.06689453125,0.167548335892809,0.00462119865802579,,
0.067138671875,0.100336103603237,0.00337144989476768,,
0.0673828125,0.030916615323891,0.00203795098706561,,
0.067626953125,-0.0391112052690067,0.00066113256701783,,
0.06787109375,-0.108832949824609,-0.00074304293286831,,
0.068115234375,-0.175733234962697,-0.00213764473837719,,
0.068359375,-0.238373496234352,-0.00341810496849071,,
0.068603515625,-0.295386683605656,-0.00470345130826599,,
0.06884765625,-0.345361536845486,-0.00584673422356508,,
0.069091796875,-0.387138687742316,-0.0068383577715263,,
0.0693359375,-0.419678524666814,-0.00767517464718726,,
0.069580078125,-0.44261746295716,-0.00830896382574275,,
0.06982421875,-0.455456953061503,-0.00879106454278755,,
0.070068359375,-0.457148894992647,-0.00904231497611985,,
0.0703125,-0.448180449755641,-0.0090887544106768,,
0.070556640625,-0.428820203140551,-0.00891256180971522,,
0.07080078125,-0.399561611684508,-0.00855380669530215,,
0.071044921875,-0.360591348524193,-0.00797070470057815,,
0.0712890625,-0.313426990572971,-0.0072002892850751,,
0.071533203125,-0.258514671772886,-0.00629457911889997,,
0.07177734375,-0.197936515571539,-0.00520180197670639,,
0.072021484375,-0.132532657188472,-0.00397209909872442,,
0.072265625,-0.0639014544093836,-0.00269243296839461,,
0.072509765625,0.00605676164903328,-0.00134754283620708,,
0.07275390625,0.0759552762571435,3.93507248483971E-05,,
0.072998046875,0.144301270212018,0.00143962418269306,,
0.0732421875,0.209186277720678,0.00281505977380725,,
0.073486328125,0.268897914056791,0.00412009773451505,,
0.07373046875,0.321985235916223,0.00530571267169666,,
0.073974609375,0.36780369399187,0.00637021712331043,,
0.07421875,0.40479595756104,0.0073064744598339,,
0.074462890625,0.432338981156553,0.00806063650109756,,
0.07470703125,0.450148121844718,0.00862170907250759,,
0.074951171875,0.456987757665871,0.00898754262809787,,
0.0751953125,0.453449810108361,0.00910583611313864,,
0.075439453125,0.439257558705837,0.00907958974614509,,
0.07568359375,0.414512580807398,0.00875465232942307,,
0.075927734375,0.380274223474412,0.00828458290867218,,
0.076171875,0.337256923493723,0.00759099151298992,,
0.076416015625,0.286121605629479,0.00674338925621321,,
0.07666015625,0.228273482157825,0.00573197995911201,,
0.076904296875,0.16484560738091,0.00456157271736002,,
0.0771484375,0.0975326819461824,0.00334915006678616,,
0.077392578125,0.0281471470982902,0.00195436513912872,,
0.07763671875,-0.0419117974734403,0.000588979017692726,,
0.077880859375,-0.111570657444537,-0.000814893560508345,,
0.078125,-0.178252933258164,-0.00217937605115548,,
0.078369140625,-0.240736089173029,-0.00354457049333323,,
0.07861328125,-0.297236296784115,-0.00474615299728898,,
0.078857421875,-0.347162129757283,-0.00590308792546645,,
0.0791015625,-0.388724030045957,-0.00687833829965179,,
0.079345703125,-0.421096929265807,-0.00771045903348755,,
0.07958984375,-0.443542128073758,-0.00832883001171458,,
0.079833984375,-0.455677933311216,-0.00880615415010277,,
0.080078125,-0.45691468705193,-0.00905704518482553,,
0.080322265625,-0.448090473162288,-0.00910693655745165,,
0.08056640625,-0.427654539396945,-0.00892243329151077,,
0.080810546875,-0.398142075304467,-0.00852753294555741,,
0.0810546875,-0.358830580158039,-0.00794119978619579,,
0.081298828125,-0.311396009481496,-0.00714864712779617,,
0.08154296875,-0.256311094071519,-0.00622164516116674,,
0.081787109375,-0.195450346289633,-0.00515206292063342,,
0.08203125,-0.129914069523895,-0.00393110540880537,,
0.082275390625,-0.0611285908406374,-0.00263301239836222,,
0.08251953125,0.00881264850205241,-0.00128167362827503,,
0.082763671875,0.0787997249772052,0.000108042067572534,,
0.0830078125,0.147007889221271,0.00150533251696183,,
0.083251953125,0.211652145680027,0.00288637814922144,,
0.08349609375,0.271069235998277,0.00416293462587181,,
0.083740234375,0.324202112044909,0.00535515222892835,,
0.083984375,0.369460055556302,0.00642680015575303,,
0.084228515625,0.4060256376702,0.00735789926652553,,
0.08447265625,0.433382200337978,0.00810922719304319,,
0.084716796875,0.450683737225906,0.00866311179227219,,
0.0849609375,0.45708112960237,0.00898654315767988,,
0.085205078125,0.453067268113979,0.00913020676167742,,
0.08544921875,0.438435885664649,0.00904188369778858,,
0.085693359375,0.41332590837808,0.00876016995378315,,
0.0859375,0.378666528495064,0.00826837574282546,,
0.086181640625,0.33522084938753,0.00759303495079555,,
0.08642578125,0.28382582314082,0.0067113617058796,,
0.086669921875,0.225753571653412,0.00569595794995159,,
0.0869140625,0.162234340924991,0.00451058603468724,,
0.087158203125,0.0948834654569814,0.00326720376107525,,
0.08740234375,0.0253145820792374,0.00192836521689577,,
0.087646484375,-0.0446979594695059,0.000522630611615504,,
0.087890625,-0.11427759476721,-0.000852695448493979,,
0.088134765625,-0.180905828035773,-0.00226767173229314,,
