Time domain (s),Current (AC) (A),Potential (AC) (V),Frequency (Hz),Column 5
0,0.251102759770352,0.0046407469022598,63.096,0.3
0.000236030463500063,0.261791099481845,0.00496103425653782,,
0.000472060927000127,0.270244456692509,0.0052306634163779,,
0.00070809139050019,0.276639883237147,0.00540933351891137,,
0.000944121854000254,0.280551468045661,0.00560284536848377,,
0.00118015231750032,0.281521690174455,0.00570254756404553,,
0.00141618278100038,0.280573211253444,0.00576077136970143,,
0.00165221324450044,0.277221833798391,0.00575629676695799,,
0.00188824370800051,0.271193483761615,0.00573415925864751,,
0.00212427417150057,0.262772284572545,0.00565895943819683,,
0.00236030463500063,0.252197594232824,0.00549001374645064,,
0.0025963350985007,0.239493165826584,0.00535397012268479,,
0.00283236556200076,0.224398263576464,0.00510143473034352,,
0.00306839602550082,0.207530650385937,0.00482004501921374,,
0.00330442648900089,0.188858350949443,0.00453449471255007,,
0.00354045695250095,0.168503259699686,0.00418833610797931,,
0.00377648741600101,0.146750345127745,0.00378711830166667,,
0.00401251787950108,0.12355673748466,0.0033355366826755,,
0.00424854834300114,0.0993947120335956,0.00288667809495902,,
0.0044845788065012,0.0741704212527249,0.00244695024814812,,
0.00472060927000127,0.0484469274335058,0.00192629685566503,,
0.00495663973350133,0.0222302830444913,0.00138753407861358,,
0.0051926701970014,-0.00412193664010981,0.000845854468962237,,
0.00542870066050146,-0.0303577205334541,0.000339812224473324,,
0.00566473112400152,-0.0566039649196182,-0.000197672445105823,,
0.00590076158750159,-0.0823563735508677,-0.000734428519830743,,
0.00613679205100165,-0.107249468684619,-0.00128207671965486,,
0.00637282251450171,-0.13105992565102,-0.0017939280975301,,
0.00660885297800178,-0.153954609866099,-0.00230876254390111,,
0.00684488344150184,-0.175330695461982,-0.00277855658107695,,
0.0070809139050019,-0.195123226889368,-0.00322670374620815,,
0.00731694436850197,-0.213352074516714,-0.00365575289469522,,
0.00755297483200203,-0.229522489008946,-0.0040720896575368,,
0.00778900529550209,-0.24400743946595,-0.00441843961025112,,
0.00802503575900216,-0.256310988898448,-0.00475517309215734,,
0.00826106622250222,-0.265949990439384,-0.00502855316624862,,
0.00849709668600228,-0.273736616850054,-0.00527267659981412,,
0.00873312714950235,-0.279023870661899,-0.00546056821096208,,
0.00896915761300241,-0.281792383975548,-0.00560579899880409,,
0.00920518807650247,-0.281955183959871,-0.00568384941595834,,
0.00944121854000254,-0.27979146071144,-0.00574996755913038,,
0.0096772490035026,-0.275337437683555,-0.00574184262256949,,
0.00991327946700266,-0.268181501335608,-0.00568396716866237,,
0.0101493099305027,-0.258856908406372,-0.00557887288053971,,
0.0103853403940028,-0.247132614473649,-0.00543058297558119,,
0.0106213708575029,-0.233250033094441,-0.00522192518448517,,
0.0108574013210029,-0.217475244490038,-0.00495866938973721,,
0.011093431784503,-0.199806558537146,-0.00467374709749402,,
0.011329462248003,-0.180266266591643,-0.0043669816787002,,
0.0115654927115031,-0.159166904425903,-0.00397107746314518,,
0.0118015231750032,-0.136794742382729,-0.00359055960088428,,
0.0120375536385032,-0.11304608911408,-0.00313790103528966,,
0.0122735841020033,-0.0884656667897259,-0.00267715187767292,,
0.0125096145655034,-0.0630710618277249,-0.00219379665411212,,
0.0127456450290034,-0.0370305556933539,-0.00168001952889352,,
0.0129816754925035,-0.0106924051432005,-0.00116889429269129,,
0.0132177059560036,0.015723217004431,-0.000624133487291179,,
0.0134537364195036,0.0418560175743588,-8.71615326096808E-05,,
0.0136897668830037,0.0679270144465344,0.000460290412708009,,
0.0139257973465037,0.0931723175710608,0.000973319317621346,,
0.0141618278100038,0.117699957801732,0.00149614132239861,,
0.0143978582735039,0.141062029626126,0.00202002310151039,,
0.0146338887370039,0.163391207722822,0.00251760187041539,,
0.014869919200504,0.184138224860764,0.00300537772673071,,
0.0151059496640041,0.20309448785016,0.00345680234211665,,
0.0153419801275041,0.220609281225279,0.00387372541529585,,
0.0155780105910042,0.235896583456872,0.00423022172598619,,
0.0158140410545042,0.249201416743567,0.00458069302333275,,
0.0160500715180043,0.260430413193121,0.00488347447564896,,
0.0162861019815044,0.269076901249385,0.00512865523036687,,
0.0165221324450044,0.276124989459569,0.00534918151273134,,
0.0167581629085045,0.280206500177646,0.00555415462547115,,
0.0169941933720046,0.281992001240276,0.0056454129708996,,
0.0172302238355046,0.280840707523981,0.00572931667870469,,
0.0174662542990047,0.277717542392632,0.00575086051713347,,
0.0177022847625048,0.272207557738038,0.00574371685310426,,
0.0179383152260048,0.263885938786292,0.00564765027227176,,
0.0181743456895049,0.253787040993347,0.00551608125124936,,
0.0184103761530049,0.241532459457368,0.00534999106256961,,
0.018646406616505,0.226930342344979,0.00514139214782583,,
0.0188824370800051,0.210224250126554,0.00485943329862737,,
0.0191184675435051,0.191794049432178,0.00456114607450564,,
0.0193544980070052,0.17154034274056,0.00421053249264158,,
0.0195905284705053,0.150027174441828,0.00380535034530194,,
0.0198265589340053,0.126965327897166,0.00338882468749802,,
0.0200625893975054,0.102964457986139,0.00295234485276596,,
0.0202986198610055,0.0779489887900974,0.00249913922773537,,
0.0205346503245055,0.0522936252112312,0.00196966419519429,,
0.0207706807880056,0.0261142777322054,0.00148487140737474,,
0.0210067112515056,-0.000272292566371827,0.000938641146358332,,
0.0212427417150057,-0.0264648184391903,0.000397469345242207,,
0.0214787721785058,-0.052744134427108,-0.000147276741070179,,
0.0217148026420058,-0.0786079084797323,-0.000673687750131435,,
0.0219508331055059,-0.103510687563168,-0.00119546960602568,,
0.022186863569006,-0.127715080294103,-0.00171516871097133,,
0.022422894032506,-0.150746070668897,-0.00224026972120317,,
0.0226589244960061,-0.172190537739677,-0.00271824757129169,,
0.0228949549595062,-0.192360058019649,-0.00316115474110479,,
0.0231309854230062,-0.210815382168395,-0.00364154652162041,,
0.0233670158865063,-0.22757377685092,-0.00400031938458367,,
0.0236030463500063,-0.242108837179643,-0.00437414251499835,,
0.0238390768135064,-0.254538460674074,-0.00471036818836934,,
0.0240751072770065,-0.264759230060222,-0.00500716142506219,,
0.0243111377405065,-0.273020735437509,-0.00526121533664625,,
0.0245471682040066,-0.27831187196503,-0.00545697920667809,,
0.0247831986675067,-0.281718932130769,-0.00560503115304778,,
0.0250192291310067,-0.282258492572639,-0.00567050165634875,,
0.0252552595945068,-0.280330473005214,-0.00574168807214592,,
0.0254912900580068,-0.276138053655842,-0.00574427617844764,,
0.0257273205215069,-0.269450418497367,-0.00572549462219474,,
0.025963350985007,-0.260598055152286,-0.00561313891733928,,
0.026199381448507,-0.249078129101118,-0.00545342700011409,,
0.0264354119120071,-0.2355248476902,-0.00525895840982349,,
0.0266714423755072,-0.219853293643757,-0.00500908717240511,,
0.0269074728390072,-0.202546613828845,-0.0047235368657419,,
0.0271435033025073,-0.183191139149495,-0.0043990104141276,,
0.0273795337660074,-0.162345067082821,-0.0040461644372547,,
0.0276155642295074,-0.140100669224874,-0.00365322121156408,,
0.0278515946930075,-0.116732339376392,-0.00319734407206607,,
0.0280876251565075,-0.0921331429797714,-0.00275231980676649,,
0.0283236556200076,-0.0668759404736749,-0.00228582039211522,,
0.0285596860835077,-0.0409072417397965,-0.00177414319011415,,
0.0287957165470077,-0.0145656195850391,-0.00123909698277558,,
0.0290317470105078,0.0117966494813103,-0.000724105532799335,,
0.0292677774740079,0.0380021481923857,-0.000170216439674853,,
0.0295038079375079,0.0641058740737553,0.000363458439300857,,
0.029739838401008,0.0896157956913184,0.00088669257854157,,
0.0299758688645081,0.114206815545517,0.00144798046655348,,
0.0302118993280081,0.137798173150299,0.00193399003231187,,
0.0304479297915082,0.16006173335208,0.00244040025400016,,
0.0306839602550082,0.181088351697665,0.00291857435859511,,
0.0309199907185083,0.200517095505761,0.00338195087341475,,
0.0311560211820084,0.218020377770877,0.00380745026851903,,
0.0313920516455084,0.23366945774541,0.00419520992206257,,
0.0316280821090085,0.247448073702531,0.00453147729951597,,
0.0318641125725086,0.258899618278802,0.00482901385015122,,
0.0321001430360086,0.268162955658382,0.00511450528046264,,
0.0323361734995087,0.275194416709673,0.00534882825461969,,
0.0325722039630088,0.279705492818483,0.00552086986120326,,
0.0328082344265088,0.281512737088897,0.0056398197174703,,
0.0330442648900089,0.281197369218031,0.00571633934947569,,
0.0332802953535089,0.278520031204244,0.00576799353553348,,
0.033516325817009,0.273202629247154,0.00572795761624878,,
0.0337523562805091,0.265548837391593,0.00566908617072182,,
0.0339883867440091,0.25567504574981,0.00553791947143756,,
0.0342244172075092,0.243297130892375,0.00538700466245734,,
0.0344604476710093,0.229003438441644,0.00514274139755644,,
0.0346964781345093,0.212904328880818,0.00491862365772677,,
0.0349325085980094,0.194592710891072,0.00459111413761715,,
0.0351685390615094,0.174701330090489,0.00426531203171221,,
0.0354045695250095,0.153316245730041,0.00389539191279109,,
0.0356405999885096,0.130547978169454,0.00343717689148715,,
0.0358766304520096,0.106582600847601,0.00300763465355303,,
0.0361126609155097,0.0817905933584367,0.00254541604032044,,
0.0363486913790098,0.0561169810158957,0.00205825347933697,,
0.0365847218425098,0.0299794526686453,0.00158085948640485,,
0.0368207523060099,0.00364239841468262,0.00103407971277125,,
0.03705678276951,-0.0226502558435556,0.00048866881431886,,
0.03729281323301,-0.0488791878857078,-4.1731067582873E-05,,
0.0375288436965101,-0.0748058162532671,-0.000595482782553169,,
0.0377648741600101,-0.0999778730885505,-0.00111023627394058,,
0.0380009046235102,-0.124200902854728,-0.00163282277331023,,
0.0382369350870103,-0.147393414201622,-0.00215236732783275,,
0.0384729655505103,-0.169257031849323,-0.00264592778572093,,
0.0387089960140104,-0.189417005216634,-0.00311894284998138,,
0.0389450264775105,-0.208373793514622,-0.00355179933589067,,
0.0391810569410105,-0.225136116591831,-0.00397462966970918,,
0.0394170874045106,-0.240113029964424,-0.00431952733907703,,
0.0396531178680107,-0.252896391696397,-0.00466895848754056,,
0.0398891483315107,-0.263351037603233,-0.00496793260243455,,
0.0401251787950108,-0.271666809641962,-0.00522143454821933,,
0.0403612092585108,-0.277657017707102,-0.00539054705629649,,
0.0405972397220109,-0.281257574150505,-0.0055717488419611,,
0.040833270185511,-0.282303440716459,-0.0056947243687886,,
0.041069300649011,-0.280782147035793,-0.00576800580144043,,
0.0413053311125111,-0.27664915607576,-0.00576207646216886,,
0.0415413615760112,-0.270596048016677,-0.00571246577615803,,
0.0417773920395112,-0.261919457494176,-0.00561529526372739,,
0.0420134225030113,-0.251010625211323,-0.00548749678240767,,
0.0422494529665114,-0.237689119086727,-0.00527974176204049,,
0.0424854834300114,-0.222473076107531,-0.00504411860177933,,
0.0427215138935115,-0.20526360122153,-0.00477303225223036,,
0.0429575443570115,-0.186248709225433,-0.00443135560994712,,
0.0431935748205116,-0.165575714919869,-0.00408596485113222,,
0.0434296052840117,-0.143482377541203,-0.00369692954329803,,
0.0436656357475117,-0.1200978316449,-0.00326279494991644,,
0.0439016662110118,-0.0958684068176102,-0.00282391099748258,,
0.0441376966745119,-0.0705932981403985,-0.00234997599022391,,
0.0443737271380119,-0.0447327672973385,-0.00183926288848513,,
0.044609757601512,-0.0184837821706975,-0.00134474078351587,,
0.044845788065012,0.00791484738597766,-0.000772678523107917,,
0.0450818185285121,0.0340702819043432,-0.000274211702562255,,
0.0453178489920122,0.0603022744400279,0.000284937011330921,,
0.0455538794555122,0.0859071855546167,0.000842672692778823,,
0.0457899099190123,0.110640906629641,0.00136347327614139,,
0.0460259403825124,0.134402943847618,0.00184924243012974,,
0.0462619708460124,0.15689218118816,0.00236539178169304,,
0.0464980013095125,0.178175652595431,0.00283848289457467,,
0.0467340317730126,0.197779278485452,0.00331907092959716,,
0.0469700622365126,0.215627711334615,0.00374180313616268,,
0.0472060927000127,0.231716588797662,0.00411694362495085,,
0.0474421231635127,0.245665678812441,0.00450427642494278,,
0.0476781536270128,0.257307796209867,0.00480640533102594,,
0.0479141840905129,0.266809395294898,0.00506763970435875,,
0.0481502145540129,0.274304589634867,0.00531575937030881,,
0.048386245017513,0.278813473151295,0.00549871272744218,,
0.0486222754810131,0.281529546963821,0.00560996940706238,,
0.0488583059445131,0.281501591410958,0.005731764953671,,
0.0490943364080132,0.278940826225451,0.00573150982281279,,
0.0493303668715133,0.274113285949585,0.00574134217357836,,
0.0495663973350133,0.266952827379851,0.00569810730584086,,
0.0498024277985134,0.257191406097618,0.00557327472074753,,
0.0500384582620134,0.245213639349798,0.00542550979659318,,
0.0502744887255135,0.231331606118685,0.00519812441923362,,
0.0505105191890136,0.21512231879069,0.00493059518261108,,
0.0507465496525136,0.197438878518231,0.00464974026501075,,
0.0509825801160137,0.177828149542474,0.00432256437756173,,
0.0512186105795138,0.156704714539546,0.00393795951520737,,
0.0514546410430138,0.1339596747545,0.00352623718644507,,
0.0516906715065139,0.110222852348911,0.00308293750761957,,
0.051926701970014,0.0854482028827657,0.00260077943654702,,
0.052162732433514,0.0599514596589952,0.00210804324758485,,
0.0523987628970141,0.0338952399458905,0.00161832447165722,,
0.0526347933605141,0.00756786964161255,0.00108844221101556,,
0.0528708238240142,-0.0187218611601171,0.000558947553023881,,
0.0531068542875143,-0.0449607969050097,2.2228276019387E-05,,
0.0533428847510143,-0.0709794227945741,-0.000506321907160601,,
0.0535789152145144,-0.0963213598604123,-0.00103300767253067,,
0.0538149456780145,-0.120681061218367,-0.00156772515357106,,
0.0540509761415145,-0.144017781193349,-0.00207313938363995,,
0.0542870066050146,-0.166058404996845,-0.00255263084660839,,
0.0545230370685146,-0.186655069680129,-0.00303747515123565,,
0.0547590675320147,-0.205667083898725,-0.00349883024464104,,
0.0549950979955148,-0.222809456322052,-0.00389993520461251,,
0.0552311284590148,-0.238257731377651,-0.00429411238051181,,
0.0554671589225149,-0.251153509148181,-0.00461991693959796,,
0.055703189386015,-0.262194673517056,-0.0049163569181796,,
0.055939219849515,-0.27076729861747,-0.00518878025155312,,
0.0561752503130151,-0.277011436287788,-0.00541307707361938,,
0.0564112807765152,-0.280976922325679,-0.00556499523376308,,
0.0566473112400152,-0.28234235923123,-0.00567984582403014,,
0.0568833417035153,-0.281005243310606,-0.00574468831291108,,
0.0571193721670153,-0.277337949836592,-0.00575501129994205,,
0.0573554026305154,-0.271494325707954,-0.00570702707315229,,
0.0575914330940155,-0.263383789451931,-0.00564347986401303,,
0.0578274635575155,-0.252540826298538,-0.00553314558057227,,
0.0580634940210156,-0.239660807785749,-0.00532705872350903,,
0.0582995244845157,-0.224750814159798,-0.00509538027882428,,
0.0585355549480157,-0.207739586168287,-0.00483412628004087,,
0.0587715854115158,-0.189190939806305,-0.00449629377289984,,
0.0590076158750159,-0.168680745485064,-0.00414919559987981,,
0.0592436463385159,-0.14665432785304,-0.00376564069913421,,
0.059479676802016,-0.123665910313653,-0.00331464539048021,,
0.059715707265516,-0.0994765002973247,-0.00289630928485574,,
0.0599517377290161,-0.0743640088884041,-0.00241989901763651,,
0.0601877681925162,-0.0485713113721453,-0.00189904201110336,,
0.0604237986560162,-0.0223316447631256,-0.00141066267218104,,
0.0606598291195163,0.00403174343891853,-0.000863092974159319,,
0.0608958595830164,0.0303518507809329,-0.000341978383586738,,
0.0611318900465164,0.0564550056747032,0.000220997293179259,,
0.0613679205100165,0.0821002741928131,0.000735868537270257,,
0.0616039509735166,0.106985284142158,0.0012739959403576,,
0.0618399814370166,0.13091818368936,0.00178099001920229,,
0.0620760119005167,0.153735921615553,0.00230539677911779,,
0.0623120423640167,0.175066579438033,0.00276684999977617,,
0.0625480728275168,0.194816903462076,0.00324094201063962,,
0.0627841032910169,0.213095267134036,0.00367260379724188,,
0.0630201337545169,0.229128416207387,0.00406287060210309,,
0.063256164218017,0.243513832106075,0.00442045612530295,,
0.0634921946815171,0.255803677836189,0.00475281313171871,,
0.0637282251450171,0.26573648675624,0.00501382671873207,,
0.0639642556085172,0.273245750230656,0.005280708315484,,
0.0642002860720172,0.27821818431973,0.00547403862963769,,
0.0644363165355173,0.281311018589803,0.00562249044456431,,
0.0646723469990174,0.281630223497337,0.00570650699871011,,
0.0649083774625174,0.279483858271925,0.00574636628893943,,
0.0651444079260175,0.275001834012169,0.00575600238519858,,
0.0653804383895176,0.268176111212671,0.0056889814712977,,
0.0656164688530176,0.258854670134982,0.0055929933922676,,
0.0658524993165177,0.247211821873429,0.00543779532868749,,
0.0660885297800178,0.233609344170952,0.00520827568357207,,
0.0663245602435178,0.217825602480991,0.00496594061919531,,
0.0665605907070179,0.200045505427717,0.00471289005877473,,
0.0667966211705179,0.180845887523482,0.00436491119365812,,
0.067032651634018,0.159871731518525,0.00399061459924699,,
0.0672686820975181,0.137351067020515,0.00358970589378149,,
0.0675047125610181,0.113758224847973,0.00314085221242788,,
0.0677407430245182,0.0890928395688377,0.00267441412730962,,
0.0679767734880183,0.0636647975730195,0.00220204915610145,,
0.0682128039515183,0.0377554815494722,0.00167099918114744,,
0.0684488344150184,0.0114593556866299,0.00117877816026457,,
0.0686848648785185,-0.0148744096787605,0.000641963209187857,,
0.0689208953420185,-0.0411330787550862,0.000110017823049091,,
0.0691569258055186,-0.067196195998391,-0.000430368960042227,,
0.0693929562690186,-0.0926334194748065,-0.000977077591417075,,
0.0696289867325187,-0.117183328221852,-0.00148121616719532,,
0.0698650171960188,-0.140688832131199,-0.00201049494522998,,
0.0701010476595188,-0.162773536177363,-0.00248961352463617,,
0.0703370781230189,-0.183728689715015,-0.00297624129208973,,
0.070573108586519,-0.203036475510068,-0.00342258536894402,,
0.070809139050019,-0.220370928161812,-0.00383784027881973,,
0.0710451695135191,-0.235967934067285,-0.00420473807834343,,
0.0712811999770192,-0.249232387110955,-0.00458969129244657,,
0.0715172304405192,-0.260721936621838,-0.00487738077322897,,
0.0717532609040193,-0.269624775270701,-0.00512996277601552,,
0.0719892913675193,-0.276332280797632,-0.0053664862538243,,
0.0722253218310194,-0.280393647073204,-0.00555341621789163,,
0.0724613522945195,-0.28215635431087,-0.00565297612893634,,
0.0726973827580195,-0.281588609921097,-0.00573517242253674,,
0.0729334132215196,-0.278124770748479,-0.00573668358223545,,
0.0731694436850197,-0.272607751526661,-0.00571894217486602,,
0.0734054741485197,-0.26445244984285,-0.0056312311296387,,
0.0736415046120198,-0.254365428591971,-0.00550767174565481,,
0.0738775350755198,-0.241854313747362,-0.0053529054419883,,
0.0741135655390199,-0.227029465792224,-0.00513993250493527,,
0.07434959600252,-0.210401941467467,-0.00485502493178025,,
0.07458562646602,-0.191886412386247,-0.00456806404585297,,
0.0748216569295201,-0.171652439026061,-0.00419669164358538,,
0.0750576873930202,-0.150262055900691,-0.00384329615409484,,
0.0752937178565202,-0.127136738374487,-0.00340808216092858,,
0.0755297483200203,-0.103129724636891,-0.00294866998713594,,
0.0757657787835204,-0.0780775295184601,-0.00247752179386662,,
0.0760018092470204,-0.0523383221205073,-0.00197781856993107,,
0.0762378397105205,-0.0262331345108833,-0.00147046142024987,,
0.0764738701740205,0.000166043193887198,-0.000954312068686569,,
0.0767099006375206,0.0263923715325864,-0.000425266342878317,,
0.0769459311010207,0.0526082622179698,0.000137179446720648,,
0.0771819615645207,0.0783423992460406,0.000660663810456708,,
0.0774179920280208,0.103349257949084,0.00120605263027729,,
0.0776540224915209,0.127475630934445,0.0017235217933953,,
