Time domain (s),Current (AC) (A),Potential (AC) (V),Frequency (Hz),Column 5
0,0.34532083677965,0.00705239801350999,31.623,0.4
0.000239330847010088,0.350712895548955,0.00722064051135085,,
0.000478661694020175,0.354918391176426,0.00738371737201904,,
0.000717992541030263,0.358166222949081,0.00754356740421658,,
0.00095732338804035,0.360985867349103,0.0076539710354453,,
0.00119665423505044,0.363195426996462,0.00776308664690673,,
0.00143598508206053,0.363988114157762,0.00785788490179451,,
0.00167531592907061,0.364261430246879,0.00792826501351085,,
0.0019146467760807,0.363594943205833,0.00799724864063744,,
0.00215397762309079,0.362251863713741,0.00804162431115341,,
0.00239330847010088,0.360041834047312,0.00803342165895016,,
0.00263263931711096,0.357132416004948,0.00803590279176536,,
0.00287197016412105,0.353131143663326,0.00804723736571944,,
0.00311130101113114,0.348641756517666,0.00800320064777349,,
0.00335063185814123,0.343359212191637,0.00792728883010829,,
0.00358996270515131,0.337083517571017,0.00784638763060652,,
0.0038292935521614,0.33005250230515,0.00778153922483904,,
0.00406862439917149,0.322570503741763,0.00768446659820388,,
0.00430795524618158,0.313894656740961,0.00755998287720061,,
0.00454728609319166,0.305113995487582,0.00739531971850349,,
0.00478661694020175,0.295008585485835,0.00724249278356437,,
0.00502594778721184,0.284449607081683,0.00706942699064683,,
0.00526527863422193,0.27353834938468,0.00689425630226737,,
0.00550460948123201,0.261626656097505,0.00667630979950395,,
0.0057439403282421,0.249334952392356,0.00646268833153885,,
0.00598327117525219,0.236410838028726,0.0062149411187864,,
0.00622260202226228,0.223205446627983,0.00600095358204555,,
0.00646193286927237,0.209294497851014,0.00573349288779879,,
0.00670126371628245,0.194708866075469,0.00544996584171598,,
0.00694059456329254,0.180034635705257,0.00515835816635457,,
0.00717992541030263,0.164567953183281,0.00485401943244934,,
0.00741925625731272,0.149027712676873,0.00453928163368422,,
0.0076585871043228,0.133020772610297,0.00419935287988737,,
0.00789791795133289,0.11669275076663,0.0038657964344142,,
0.00813724879834298,0.100107922253676,0.00353766323006743,,
0.00837657964535306,0.0833124664450448,0.00317204526096049,,
0.00861591049236315,0.0663574685383923,0.00286388992111242,,
0.00885524133937324,0.0491881419358887,0.00250238005715886,,
0.00909457218638333,0.0318921451940609,0.00214239547977213,,
0.00933390303339342,0.0145352516064958,0.00175191195010083,,
0.0095732338804035,-0.00280983275193933,0.00140782085874003,,
0.00981256472741359,-0.0201229851898166,0.000999586382957496,,
0.0100518955744237,-0.0374384877230431,0.000627441882107505,,
0.0102912264214338,-0.054687717567421,0.000230745351821326,,
0.0105305572684439,-0.0716845471712901,-0.000131374626759051,,
0.0107698881154539,-0.088548596387927,-0.000543013881110888,,
0.011009218962464,-0.105507119437603,-0.00090965209745475,,
0.0112485498094741,-0.1219491502819,-0.00128294734228085,,
0.0114878806564842,-0.138182140144881,-0.00166727888279938,,
0.0117272115034943,-0.154166842434215,-0.00205361702253448,,
0.0119665423505044,-0.169647566775903,-0.00240128575827603,,
0.0122058731975145,-0.184866314238534,-0.00277158635714292,,
0.0124452040445246,-0.199634548422716,-0.00311943304298401,,
0.0126845348915346,-0.21392853336542,-0.00344820347816333,,
0.0129238657385447,-0.227617133746159,-0.00379584679246214,,
0.0131631965855548,-0.241055155210285,-0.00413300969328434,,
0.0134025274325649,-0.253874044054652,-0.00444598493868309,,
0.013641858279575,-0.265869400736261,-0.0047618887342904,,
0.0138811891265851,-0.277531337640196,-0.005079824550557,,
0.0141205199735952,-0.28847567292924,-0.00534172811741174,,
0.0143598508206053,-0.298813507361027,-0.00563825738409518,,
0.0145991816676153,-0.308181986213636,-0.00590716879534314,,
0.0148385125146254,-0.317334080036962,-0.00616395926267366,,
0.0150778433616355,-0.325526336167274,-0.00637862470455541,,
0.0153171742086456,-0.332990709015542,-0.00659983871009739,,
0.0155565050556557,-0.339684485598792,-0.00681293141205241,,
0.0157958359026658,-0.345712950188672,-0.00700702921196283,,
0.0160351667496759,-0.350841269507407,-0.00718465391695222,,
0.016274497596686,-0.355170967674086,-0.00733749610475698,,
0.016513828443696,-0.358762794653486,-0.0074833389219835,,
0.0167531592907061,-0.361077638572491,-0.00762123838572215,,
0.0169924901377162,-0.362978160681424,-0.00774114455226194,,
0.0172318209847263,-0.364419944178185,-0.00783612075724927,,
0.0174711518317364,-0.364572700375886,-0.00788951256613757,,
0.0177104826787465,-0.364510892868201,-0.00793704727460964,,
0.0179498135257566,-0.362969171566713,-0.00798660044563837,,
0.0181891443727667,-0.360561028862344,-0.00800623427327851,,
0.0184284752197767,-0.357907124936826,-0.00802971690735532,,
0.0186678060667868,-0.354003381552198,-0.00799133391828422,,
0.0189071369137969,-0.349158366227814,-0.00796966806998434,,
0.019146467760807,-0.344044323738325,-0.00791889466970241,,
0.0193857986078171,-0.33779547895707,-0.0078624658457831,,
0.0196251294548272,-0.330639908637693,-0.00776347813712519,,
0.0198644603018373,-0.322750638550283,-0.00765905193447569,,
0.0201037911488474,-0.314437646271403,-0.00752520634347853,,
0.0203431219958574,-0.305242193188883,-0.00740079888680389,,
0.0205824528428675,-0.295891163794243,-0.00724851258121451,,
0.0208217836898776,-0.285139712580989,-0.00707106413156167,,
0.0210611145368877,-0.274048672589769,-0.0068721142256063,,
0.0213004453838978,-0.26244084663125,-0.00667184579415192,,
0.0215397762309079,-0.250001086919099,-0.00646578974755796,,
0.021779107077918,-0.237381544912731,-0.00623475798081463,,
0.0220184379249281,-0.223852986025276,-0.00596518222252884,,
0.0222577687719381,-0.209684026155151,-0.00571724689109976,,
0.0224970996189482,-0.195287342045685,-0.00545885656763723,,
0.0227364304659583,-0.180507122375223,-0.0051765090764988,,
0.0229757613129684,-0.165070697330867,-0.00486056460658357,,
0.0232150921599785,-0.14955472155894,-0.0045629778078804,,
0.0234544230069886,-0.133569549250537,-0.00425039574746311,,
0.0236937538539987,-0.117310708338714,-0.00391643255890539,,
0.0239330847010088,-0.100766742108644,-0.00357849684622247,,
0.0241724155480188,-0.083956510075505,-0.00325270919366272,,
0.0244117463950289,-0.0670623796383979,-0.00289069429037925,,
0.024651077242039,-0.0498509863291428,-0.00254999272472212,,
0.0248904080890491,-0.0326811897075694,-0.00217249446802281,,
0.0251297389360592,-0.0153320808108487,-0.00178493609903452,,
0.0253690697830693,0.00200762770447504,-0.00141811993259111,,
0.0256084006300794,0.0194084386988791,-0.001043050271059,,
0.0258477314770895,0.0366870447351225,-0.000641311821288237,,
0.0260870623240995,0.0539485244515083,-0.000274021121246193,,
0.0263263931711096,0.0710078665916673,0.000119055395587875,,
0.0265657240181197,0.087872826470252,0.000509255899862726,,
0.0268050548651298,0.104710319609442,0.000873685840210303,,
0.0270443857121399,0.121149236577401,0.00122965382963791,,
0.02728371655915,0.137445943400539,0.0016258080358118,,
0.0275230474061601,0.15330180171235,0.00200538068224176,,
0.0277623782531702,0.168959341352877,0.00234102846507422,,
0.0280017091001802,0.183934148918257,0.00272702426271332,,
0.0282410399471903,0.198820592898505,0.0030788705888849,,
0.0284803707942004,0.213046425076081,0.00342556483598644,,
0.0287197016412105,0.22695452436244,0.00380789994586506,,
0.0289590324882206,0.240152189824722,0.00411258102186673,,
0.0291983633352307,0.252841764672497,0.00441431660003122,,
0.0294376941822408,0.265112082509968,0.00472520389759667,,
0.0296770250292509,0.276682306942898,0.00503922311691252,,
0.0299163558762609,0.287759481371558,0.0053652005829119,,
0.030155686723271,0.297990386464955,0.00564773449796352,,
0.0303950175702811,0.307743047154781,0.00590199637911892,,
0.0306343484172912,0.31641442897442,0.00613606007660428,,
0.0308736792643013,0.324570434883969,0.00637617407747149,,
0.0311130101113114,0.332144087165977,0.006621585907014,,
0.0313523409583215,0.33882799334876,0.00680290519502025,,
0.0315916718053316,0.344820266470261,0.00700734443785356,,
0.0318310026523417,0.350069204432797,0.00717416333489851,,
0.0320703334993517,0.354372934045867,0.00734269055289838,,
0.0323096643463618,0.357781747349944,0.00750172709892727,,
0.0325489951933719,0.360577420777405,0.00762535326992708,,
0.032788326040382,0.362608373178221,0.00776194776627026,,
0.0330276568873921,0.364036291112421,0.00783394468174725,,
0.0332669877344022,0.36446001330389,0.00790624665453832,,
0.0335063185814123,0.363902100667979,0.00800044835290192,,
0.0337456494284223,0.362480292981687,0.00801130839325737,,
0.0339849802754324,0.360628417846483,0.00804352244554751,,
0.0342243111224425,0.357603375112937,0.00802707646683221,,
0.0344636419694526,0.353837817334844,0.0080258155632702,,
0.0347029728164627,0.349234215555211,0.00799699103668416,,
0.0349423036634728,0.343823121013577,0.00793692864121009,,
0.0351816345104829,0.337769745412996,0.00786907033661732,,
0.035420965357493,0.331101819878587,0.00777772939794774,,
0.035660296204503,0.323529577653789,0.00768680876046535,,
0.0358996270515131,0.315035863042553,0.00755966087225879,,
0.0361389578985232,0.306290688228948,0.00743088601171493,,
0.0363782887455333,0.296361300368859,0.00726154191802042,,
0.0366176195925434,0.285926171989613,0.00712021564379484,,
0.0368569504395535,0.274798000491875,0.00692816850693534,,
0.0370962812865636,0.263277833089883,0.00671387930240641,,
0.0373356121335737,0.251157686345229,0.00649131965516014,,
0.0375749429805838,0.238442730467682,0.00625299871339013,,
0.0378142738275938,0.224921456875809,0.00602123650385789,,
0.0380536046746039,0.211025108066197,0.005750847259403,,
0.038292935521614,0.196777420001873,0.00547737693608363,,
0.0385322663686241,0.181853139486502,0.00518654546210851,,
0.0387715972156342,0.166643557395732,0.0048724279465473,,
0.0390109280626443,0.151061955211178,0.00459468004178953,,
0.0392502589096544,0.135172960554942,0.00428222000429734,,
0.0394895897566645,0.118793500999319,0.00395736447130624,,
0.0397289206036745,0.102225093777617,0.00361103968250598,,
0.0399682514506846,0.0855211154304558,0.00325400399248155,,
0.0402075822976947,0.0685308073411808,0.00290564887778499,,
0.0404469131447048,0.0513948814688284,0.00254691842490873,,
0.0406862439917149,0.0341205056042136,0.00217930402516231,,
0.040925574838725,0.0167939576228457,0.00179855182378708,,
0.0411649056857351,-0.000575362093878554,0.00142313134634442,,
0.0414042365327452,-0.017947031905952,0.00103059376409709,,
0.0416435673797552,-0.0352402085333607,0.000668034841937892,,
0.0418828982267653,-0.0524422014612188,0.000284559156659814,,
0.0421222290737754,-0.0695156441734732,-9.33865174319592E-05,,
0.0423615599207855,-0.0863329264926601,-0.000480456794718975,,
0.0426008907677956,-0.103348086840253,-0.00085795505141828,,
0.0428402216148057,-0.11988570781288,-0.00121567373087217,,
0.0430795524618158,-0.136170987297382,-0.00160465400589338,,
0.0433188833088258,-0.152112624089441,-0.00197655446089229,,
0.0435582141558359,-0.167728537666094,-0.00233989636348886,,
0.043797545002846,-0.183002218607514,-0.00270474491026107,,
0.0440368758498561,-0.197673393853772,-0.00306803427520919,,
0.0442762066968662,-0.21218711271163,-0.00340712242663122,,
0.0445155375438763,-0.225949212324417,-0.00375533687601148,,
0.0447548683908864,-0.239468429582859,-0.0040750471089841,,
0.0449941992378965,-0.25212674816249,-0.0044154927654505,,
0.0452335300849066,-0.264304707252735,-0.00473211514050709,,
0.0454728609319166,-0.276253297036894,-0.00502441258434905,,
0.0457121917789267,-0.287131359637089,-0.00531695746356764,,
0.0459515226259368,-0.297398749960783,-0.00557824922103256,,
0.0461908534729469,-0.307181021852009,-0.00587605294938065,,
0.046430184319957,-0.316286936301723,-0.00610538825850959,,
0.0466695151669671,-0.324439887087319,-0.00636147200973047,,
0.0469088460139772,-0.331992388511183,-0.00657946088156525,,
0.0471481768609873,-0.339039384425425,-0.00677743629888106,,
0.0473875077079973,-0.344874906187131,-0.00698771061021342,,
0.0476268385550074,-0.350405385572506,-0.00717128562757585,,
0.0478661694020175,-0.35449502149926,-0.00732838336490182,,
0.0481055002490276,-0.358422500846916,-0.00746822163734384,,
0.0483448310960377,-0.361424277636504,-0.00761521689330946,,
0.0485841619430478,-0.363218105416582,-0.00772948627860348,,
0.0488234927900579,-0.364325881611832,-0.00779750728043016,,
0.049062823637068,-0.364943780431532,-0.00790033193218465,,
0.049302154484078,-0.364531279945356,-0.00794755649905499,,
0.0495414853310881,-0.363071224457254,-0.00795323564937167,,
0.0497808161780982,-0.36132768871765,-0.00801530294929931,,
0.0500201470251083,-0.358108998127326,-0.0080147894361553,,
0.0502594778721184,-0.354480744670013,-0.00799656734597098,,
0.0504988087191285,-0.350086947652684,-0.00797639288898111,,
0.0507381395661386,-0.344670682901282,-0.00793062073387496,,
0.0509774704131487,-0.338684343770538,-0.00787263272813199,,
0.0512168012601587,-0.331698626592527,-0.00776495597033211,,
0.0514561321071688,-0.324220153172165,-0.00768189733771996,,
0.0516954629541789,-0.315929721808638,-0.00756974471122795,,
0.051934793801189,-0.306873394370793,-0.00741187416204125,,
0.0521741246481991,-0.297275604964482,-0.00725659321049266,,
0.0524134554952092,-0.286715157750738,-0.00709719059568759,,
0.0526527863422193,-0.275693093058018,-0.00691052433088313,,
0.0528921171892294,-0.263965882255758,-0.00672201077457002,,
0.0531314480362394,-0.251560610192857,-0.00648310344485337,,
0.0533707788832495,-0.238647541277368,-0.0062829316148818,,
0.0536101097302596,-0.225556041372489,-0.00602880023046604,,
0.0538494405772697,-0.211655932410318,-0.00575577901930213,,
0.0540887714242798,-0.197331278723306,-0.0055009663402199,,
0.0543281022712899,-0.182500532002835,-0.00521712915253492,,
0.0545674331183,-0.167219742022983,-0.00492118288427257,,
0.0548067639653101,-0.1515920192172,-0.00457565293925022,,
0.0550460948123201,-0.13573146071469,-0.00428151159342516,,
0.0552854256593302,-0.119441774801408,-0.00397578993303283,,
0.0555247565063403,-0.103017428424615,-0.0036244045823568,,
0.0557640873533504,-0.08627135399451,-0.00327827977557327,,
0.0560034182003605,-0.0692681791331979,-0.00291878667941337,,
0.0562427490473706,-0.0521832209537321,-0.00256818769870071,,
0.0564820798943807,-0.0349384562905178,-0.00218693384752156,,
0.0567214107413908,-0.0176184885761278,-0.00183522310237816,,
0.0569607415884008,-0.000229428058469903,-0.00144233470422028,,
0.0572000724354109,0.017103259546998,-0.00110345161910308,,
0.057439403282421,0.0344840653547416,-0.000708004129038819,,
0.0576787341294311,0.0516721633438473,-0.000348917775963464,,
0.0579180649764412,0.0687634961569478,6.71956523179418E-05,,
0.0581573958234513,0.0857217841970893,0.000435393050485455,,
0.0583967266704614,0.102560687393489,0.000808701853414195,,
0.0586360575174715,0.119061411869133,0.00118667464371214,,
0.0588753883644815,0.135334412105435,0.0015526891873261,,
0.0591147192114916,0.151253458605949,0.00192888586615503,,
0.0593540500585017,0.166905828036708,0.00231294963414275,,
0.0595933809055118,0.182172752453999,0.00268655332580803,,
0.0598327117525219,0.196937461495157,0.00305310680400916,,
0.060072042599532,0.21126528781089,0.0033930558949602,,
0.0603113734465421,0.225212398680045,0.00372626999833736,,
0.0605507042935522,0.238451925215736,0.0040431804830785,,
0.0607900351405622,0.251361909631079,0.00439617585846408,,
0.0610293659875723,0.263677819318324,0.00470882231986947,,
0.0612686968345824,0.275198456739386,0.00500175191025543,,
0.0615080276815925,0.286209123469662,0.00531670324913991,,
0.0617473585286026,0.296683498441241,0.00559425117188095,,
0.0619866893756127,0.306412188158504,0.00585913921611825,,
0.0622260202226228,0.315546068742874,0.00611737701092441,,
0.0624653510696329,0.323671758422419,0.00633978412951386,,
0.0627046819166429,0.331287242401642,0.00656174383071084,,
0.062944012763653,0.338002404852571,0.00677718547397888,,
0.0631833436106631,0.343807610384272,0.00699400665420846,,
0.0634226744576732,0.349250196203585,0.00716194748426169,,
0.0636620053046833,0.353743343501804,0.00733886716790444,,
0.0639013361516934,0.357414897465927,0.00745104352107617,,
0.0641406669987035,0.360683880096725,0.0075818182017855,,
0.0643799978457136,0.362759484309177,0.00769903816920481,,
0.0646193286927236,0.363896695448676,0.00780273392906539,,
0.0648586595397337,0.364409016234811,0.00790441631065786,,
0.0650979903867438,0.36399234432939,0.00797630476131284,,
0.0653373212337539,0.362751258975455,0.00798855789673247,,
0.065576652080764,0.360678474877422,0.00801585035770058,,
0.0658159829277741,0.358041197876501,0.008061310676442,,
0.0660553137747842,0.354391734808661,0.00804755937066126,,
0.0662946446217943,0.349792833219726,0.00802474447314783,,
0.0665339754688044,0.344305830598312,0.00795572017171287,,
0.0667733063158144,0.338826113272481,0.00787610699197883,,
0.0670126371628245,0.332278982639023,0.00780677085417913,,
0.0672519680098346,0.324333310263231,0.00771419951767882,,
0.0674912988568447,0.316190934906707,0.00756533832781292,,
0.0677306297038548,0.307402048319605,0.0074428713746042,,
0.0679699605508649,0.297761252168404,0.00730704630059575,,
0.068209291397875,0.287230709917978,0.00713160445015992,,
0.068448622244885,0.276379144642846,0.00693457810004139,,
0.0686879530918951,0.264742882530601,0.00672668154099032,,
0.0689272839389052,0.252506641075695,0.0064926483492358,,
0.0691666147859153,0.239903549736772,0.00627987087317106,,
0.0694059456329254,0.226605300193542,0.00604253628338114,,
0.0696452764799355,0.212805070283714,0.00579991403349345,,
0.0698846073269456,0.198450893523878,0.00552106453288159,,
0.0701239381739557,0.183984881601609,0.00523157192155965,,
0.0703632690209657,0.168656619695703,0.00492952450702999,,
0.0706025998679758,0.153138000066508,0.00461991167112963,,
0.0708419307149859,0.137163226930025,0.00430448240912096,,
0.071081261561996,0.120901742160934,0.00397902015102858,,
0.0713205924090061,0.104442643749164,0.00365621528108839,,
0.0715599232560162,0.0877738874560488,0.00328373691195649,,
0.0717992541030263,0.0706978596389102,0.00293918145557415,,
0.0720385849500364,0.053604705501914,0.00258338972148309,,
0.0722779157970465,0.036303509174126,0.00224994174083237,,
0.0725172466440565,0.0190176178422999,0.00184905575677607,,
0.0727565774910666,0.00167955439372064,0.0015009006240958,,
0.0729959083380767,-0.0156693782458489,0.00112664953302088,,
0.0732352391850868,-0.0330400492673989,0.000735135587536018,,
0.0734745700320969,-0.0502234764419979,0.000348743215389913,,
0.073713900879107,-0.0672611977049439,-3.32563314442424E-05,,
0.0739532317261171,-0.0841626134376337,-0.000410646123320646,,
0.0741925625731271,-0.101037473092877,-0.000800183975320223,,
0.0744318934201372,-0.117672858032033,-0.00121605166298799,,
0.0746712242671473,-0.134109366152258,-0.00157303820488996,,
0.0749105551141574,-0.15008695940316,-0.00193581066716808,,
0.0751498859611675,-0.1657942916889,-0.00230061684486893,,
0.0753892168081776,-0.181080545640438,-0.00266552131881515,,
0.0756285476551877,-0.195774693068735,-0.00301252740228142,,
0.0758678785021978,-0.210266144773159,-0.00334726340269986,,
0.0761072093492079,-0.224157558382537,-0.00371788770127157,,
0.0763465401962179,-0.23747789882205,-0.00403230010556888,,
0.076585871043228,-0.250450895168944,-0.00437293388071192,,
0.0768252018902381,-0.263071377213452,-0.00468399912837647,,
0.0770645327372482,-0.274545071479913,-0.00497591694534005,,
0.0773038635842583,-0.285660669967532,-0.00527621536460599,,
0.0775431944312684,-0.296130873519866,-0.00554749944384669,,
0.0777825252782785,-0.305896048467426,-0.00582935884328339,,
0.0780218561252886,-0.315216232860608,-0.00607614343073593,,
0.0782611869722986,-0.323494972499772,-0.0063251922213583,,
0.0785005178193087,-0.331189360930346,-0.00654654180792846,,
0.0787398486663188,-0.338015212872224,-0.00677393830835449,,
0.0789791795133289,-0.344047202605128,-0.00698136372333247,,
0.079218510360339,-0.349490199691127,-0.00715317200221399,,
