Time domain (s),Current (AC) (A),Potential (AC) (V),Frequency (Hz),Column 5
0,-0.329316276921357,-0.00482937944661632,501.19,0.5
6.23516031844211E-05,-0.385058332702601,-0.00591371243291894,,
0.000124703206368842,-0.425294139284049,-0.00674300760911883,,
0.000187054809553263,-0.449761477144035,-0.00733052678389035,,
0.000249406412737684,-0.456930107568715,-0.00764809310628278,,
0.000311758015922105,-0.446405321917435,-0.00763021045834877,,
0.000374109619106527,-0.418103863546818,-0.0073728605171941,,
0.000436461222290948,-0.374793432274576,-0.00681141656722151,,
0.000498812825475369,-0.316848223209858,-0.00597556493353935,,
0.00056116442865979,-0.246430433309448,-0.00489007673742181,,
0.000623516031844211,-0.166790325535598,-0.0036773888164463,,
0.000685867635028632,-0.0805660107759703,-0.0023041746510204,,
0.000748219238213053,0.00798386646115409,-0.000808107772484412,,
0.000810570841397474,0.0970955315162117,0.00067971518652854,,
0.000872922444581895,0.183001957273851,0.00216554091612853,,
0.000935274047766316,0.26125623452201,0.00360591470163518,,
0.000997625650950737,0.329262941739448,0.00483140919304681,,
0.00105997725413516,0.38421250320966,0.00592833482204247,,
0.00112232885731958,0.424916124413861,0.00675859352879904,,
0.001184680460504,0.449068756406058,0.00737502033169291,,
0.00124703206368842,0.455871008084454,0.00766259398444769,,
0.00130938366687284,0.445626302874512,0.00765705240018066,,
0.00137173527005726,0.418262171420972,0.00739613243284243,,
0.00143408687324168,0.374759443474964,0.0068167202638385,,
0.00149643847642611,0.316906297724908,0.00597890391776001,,
0.00155879007961053,0.246880210171741,0.00494325404018836,,
0.00162114168279495,0.167201692578558,0.00365872233726039,,
0.00168349328597937,0.0812120455456988,0.00231379455378988,,
0.00174584488916379,-0.00724859782938542,0.000826291630681375,,
0.00180819649234821,-0.0969244203689465,-0.000695658793395282,,
0.00187054809553263,-0.182925986470972,-0.00215456043291029,,
0.00193289969871705,-0.26111889996541,-0.00355085312330372,,
0.00199525130190147,-0.329302058921936,-0.00482551676727994,,
0.0020576029050859,-0.384967719482408,-0.00590392652222071,,
0.00211995450827032,-0.425453225257675,-0.0067433789876814,,
0.00218230611145474,-0.449919431336612,-0.00732880851625461,,
0.00224465771463916,-0.456661380306019,-0.00762148220641423,,
0.00230700931782358,-0.446309615682524,-0.00764938522985315,,
0.002369360921008,-0.418488739839612,-0.00734868325933569,,
0.00243171252419242,-0.374758205589442,-0.00679228286984346,,
0.00249406412737684,-0.316701940509344,-0.0059793454646222,,
0.00255641573056126,-0.246344417949765,-0.00492933162264153,,
0.00261876733374569,-0.166749652154168,-0.0036669440082977,,
0.00268111893693011,-0.080665678244551,-0.0022724928079203,,
0.00274347054011453,0.00795659761151757,-0.000841879261782807,,
0.00280582214329895,0.0970577583237191,0.000680772845292665,,
0.00286817374648337,0.183014725178804,0.0021758642133185,,
0.00293052534966779,0.261261079959624,0.00357593743479523,,
0.00299287695285221,0.329297036643534,0.00484681883626603,,
0.00305522855603663,0.38469793117498,0.0059098206594097,,
0.00311758015922105,0.425024350976621,0.00677882595906754,,
0.00317993176240548,0.4488940377067,0.00733617447631874,,
0.0032422833655899,0.45600650349685,0.00762548351092907,,
0.00330463496877432,0.445639919615251,0.00766659186611829,,
0.00336698657195874,0.418284877778257,0.00739391785284216,,
0.00342933817514316,0.374724782680355,0.00679380774679972,,
0.00349168977832758,0.316961118369443,0.00598912795247708,,
0.003554041381512,0.246892164609065,0.00490720122543298,,
0.00361639298469642,0.167322404101009,0.00365058623731995,,
0.00367874458788084,0.0811921332728774,0.00228950947634887,,
0.00374109619106526,-0.00723098448681864,0.000822209889335568,,
0.00380344779424969,-0.0969278864484074,-0.000705376247215561,,
0.00386579939743411,-0.182807573878776,-0.00216788042993077,,
0.00392815100061853,-0.261214040309797,-0.00358379970722345,,
0.00399050260380295,-0.329291519210922,-0.00482377111689303,,
0.00405285420698737,-0.384940981155138,-0.00590344561265344,,
0.00411520581017179,-0.425609411042363,-0.00673825156752539,,
0.00417755741335621,-0.449763174815608,-0.00734875171621363,,
0.00423990901654063,-0.456659682634447,-0.00764391552530785,,
0.00430226061972505,-0.446186605229819,-0.00762636318180965,,
0.00436461222290948,-0.418565418005646,-0.00737665473965299,,
0.0044269638260939,-0.374686620438127,-0.0067844205974148,,
0.00448931542927832,-0.31683174164834,-0.00599645797267945,,
0.00455166703246274,-0.2463017639515,-0.00492967561845292,,
0.00461401863564716,-0.166694548564371,-0.0036946536410567,,
0.00467637023883158,-0.0805454972444668,-0.0022819364342288,,
0.004738721842016,0.00798213342142363,-0.000825398268424316,,
0.00480107344520042,0.0972392677093671,0.00068167989892487,,
0.00486342504838485,0.182984343931284,0.00219282782766639,,
0.00492577665156927,0.261333796891988,0.00359105613628286,,
0.00498812825475369,0.329254135068165,0.00484412505812015,,
0.00505047985793811,0.384702776612594,0.00590550445325722,,
0.00511283146112253,0.424774687150961,0.00674556276208715,,
0.00517518306430695,0.449073000584989,0.00734692220615196,,
0.00523753466749137,0.456005371715801,0.00762737976644745,,
0.00529988627067579,0.445708675313945,0.00765660058478623,,
0.00536223787386021,0.418304188792397,0.00739142944532967,,
0.00542458947704463,0.374748373241584,0.00680304600247439,,
0.00548694108022906,0.317111645248889,0.0059630013850196,,
0.00554929268341348,0.246841871088724,0.00494990804872186,,
0.0056116442865979,0.167288875087448,0.00367825308453007,,
0.00567399588978232,0.0811364637925558,0.00226985208385511,,
0.00573634749296674,-0.00726677706247644,0.000812875794031331,,
0.00579869909615116,-0.0969349600799603,-0.000674491926743404,,
0.00586105069933558,-0.182931645376215,-0.00214488405321633,,
0.00592340230252,-0.261280815391656,-0.00360226081577597,,
0.00598575390570442,-0.3293747758543,-0.00484686162181447,,
0.00604810550888884,-0.384550445957101,-0.00592032365590356,,
0.00611045711207327,-0.425546102039965,-0.00675224415337183,,
0.00617280871525769,-0.449702412320568,-0.00733322056203622,,
0.00623516031844211,-0.456722779427899,-0.00763428021974111,,
0.00629751192162653,-0.446284645763142,-0.00763660261932442,,
0.00635986352481095,-0.418655465335315,-0.00735858041246074,,
0.00642221512799537,-0.374991423221742,-0.00679805549607382,,
0.00648456673117979,-0.316789724276916,-0.00597485127058706,,
0.00654691833436421,-0.246484971008721,-0.00490779337742664,,
0.00660926993754864,-0.166607330687324,-0.00367429627698623,,
0.00667162154073306,-0.0805336135434579,-0.00229100697055307,,
0.00673397314391748,0.00802362027048152,-0.000818966744744021,,
0.0067963247471019,0.0971034893517087,0.000675631733761062,,
0.00685867635028632,0.182874419696951,0.00218765591053982,,
0.00692102795347074,0.261147159123464,0.00357574575553699,,
0.00698337955665516,0.329243913670571,0.0048561221259753,,
0.00704573115983958,0.384505917446476,0.00592320740188645,,
0.007108082763024,0.424876087659272,0.00674358435831568,,
0.00717043436620842,0.448919325939502,0.00733588353458758,,
0.00723278596939285,0.455754823686197,0.0076690528908796,,
0.00729513757257727,0.445685650643241,0.00764660930345418,,
0.00735748917576169,0.418114721571252,0.00736181157709881,,
0.00741984077894611,0.374488134336752,0.00679100443764868,,
0.00748219238213053,0.316869373368202,0.0059966753232672,,
0.00754454398531495,0.246868008157312,0.00492030044902236,,
0.00760689558849937,0.167297398813469,0.00364965180093657,,
0.00766924719168379,0.0811941492578699,0.00229086834537551,,
0.00773159879486821,-0.00727752898243688,0.000811075378142512,,
0.00779395039805264,-0.0969488951341196,-0.000696882460088144,,
0.00785630200123706,-0.182714343414909,-0.00218462155942545,,
0.00791865360442148,-0.261118617020148,-0.00356703119497759,,
0.0079810052076059,-0.32950514288382,-0.00484518613972762,,
0.00804335681079032,-0.384829359249233,-0.00591075680721476,,
0.00810570841397474,-0.425319958039218,-0.00675069189366484,,
0.00816806001715916,-0.449714013076315,-0.00732208776226484,,
0.00823041162034358,-0.456885543689932,-0.00763309762717501,,
0.00829276322352801,-0.446210514104468,-0.0076335648453667,,
0.00835511482671242,-0.418646340350612,-0.00738895644061444,,
0.00841746642989685,-0.374935753741421,-0.00680987628746843,,
0.00847981803308127,-0.316640258442202,-0.00597990852244301,,
0.00854216963626569,-0.246618804117702,-0.00493172247910278,,
0.00860452123945011,-0.166667880973417,-0.0036560713446625,,
0.00866687284263453,-0.0805812898201246,-0.00225773179361921,,
0.00872922444581895,0.00798043574985092,-0.000831555964592834,,
0.00879157604900337,0.0970662820497404,0.000678724273220688,,
0.00885392765218779,0.182791481366993,0.00214984375402194,,
0.00891627925537222,0.261287499973474,0.00356566890310761,,
0.00897863085855664,0.329435078563289,0.00484299894247853,,
0.00904098246174106,0.384198037633135,0.00591083724404662,,
0.00910333406492548,0.424904771235219,0.00674395402545613,,
0.0091656856681099,0.449102568364881,0.00734950987613692,,
0.00922803727129432,0.456137471785052,0.00763999636904744,,
0.00929038887447874,0.445415225708972,0.00765130886812315,,
0.00935274047766316,0.418147401749026,0.0073692870681672,,
0.00941509208084758,0.374722236172996,0.00681992404572496,,
0.00947744368403201,0.316977847508066,0.00597469724261179,,
0.00953979528721643,0.246934747871014,0.00490863197418134,,
0.00960214689040085,0.167229244373457,0.00367394030122137,,
0.00966449849358527,0.0812799170404492,0.00229515716877726,,
0.00972685009676969,-0.00725340789884141,0.000804505229284214,,
0.00978920169995411,-0.0969080095437437,-0.000706339777772236,,
0.00985155330313853,-0.182828016673964,-0.00218089579384495,,
0.00991390490632295,-0.261202156608788,-0.00357289966083707,,
0.00997625650950737,-0.329289821539349,-0.00482803084612149,,
0.0100386081126918,-0.384815707140336,-0.00590714228406064,,
0.0101009597158762,-0.425423374532521,-0.00675605206720586,,
0.0101633113190606,-0.449724835732591,-0.00733264381283982,,
0.0102256629222451,-0.456664563440218,-0.00764453334863102,,
0.0102880145254295,-0.446120466774799,-0.00765364667050372,,
0.0103503661286139,-0.418635588430651,-0.0073569853672053,,
0.0104127177317983,-0.374768462355194,-0.0068111547196632,,
0.0104750693349827,-0.316675202182074,-0.00597116657913288,,
0.0105374209381672,-0.246496642500783,-0.00492454819829691,,
0.0105997725413516,-0.166632654288283,-0.00369283953379185,,
0.010662124144536,-0.080565161940184,-0.00229427920931746,,
0.0107244757477204,0.00792278565269459,-0.000848545250269783,,
0.0107868273509048,0.0971364524747454,0.000696098628836239,,
0.0108491789540893,0.182939461739081,0.0021809060623772,,
0.0109115305572737,0.261197452643805,0.00357358594103863,,
0.0109738821604581,0.329368055904325,0.00483777568269339,,
0.0110362337636425,0.384471009074762,0.00590693520200558,,
0.011098585366827,0.425030045250021,0.00677672433291532,,
0.0111609369700114,0.449130968995566,0.00737040291527746,,
0.0112232885731958,0.455896862207779,0.00764395659943506,,
0.0112856401763802,0.445660397778597,0.00766795415798871,,
0.0113479917795646,0.418137463296694,0.00737089580479822,,
0.0114103433827491,0.374973314724967,0.00680995672430029,,
0.0114726949859335,0.316917049644868,0.00596518515942535,,
0.0115350465891179,0.246974254103237,0.00492971669258013,,
0.0115973981923023,0.167337187990954,0.00367117464335376,,
0.0116597497954867,0.0811779506416137,0.00228240365242094,,
0.0117221013986712,-0.00722468895473654,0.000827556371501004,,
0.0117844530018556,-0.0969713185461424,-0.000700854670429241,,
0.01184680460504,-0.182802976018267,-0.00219758215783727,,
0.0119091562082244,-0.261217223443996,-0.0035861905636847,,
0.0119715078114088,-0.329374209963776,-0.00481902705525306,,
0.0120338594145933,-0.384907805823155,-0.00589767127500096,,
0.0120962110177777,-0.42529017805038,-0.00675885537635645,,
0.0121585626209621,-0.449771663173472,-0.00733005956569821,,
0.0122209142241465,-0.456848902278487,-0.00763950176810413,,
0.012283265827331,-0.446266466530051,-0.00765312297538756,,
0.0123456174305154,-0.418629292898569,-0.00737099164442734,,
0.0124079690336998,-0.37490222472786,-0.00677723262523333,,
0.0124703206368842,-0.316682912440467,-0.00595905826885135,,
0.0125326722400686,-0.246487800461342,-0.00490977178119856,,
0.0125950238432531,-0.166734302373699,-0.00365798129155648,,
0.0126573754464375,-0.0804930108983441,-0.00227245173379353,,
0.0127197270496219,0.00795857822835239,-0.000843748134550015,,
0.0127820786528063,0.0970952485709496,0.000664882292506164,,
0.0128444302559907,0.182939744684343,0.00215484795179766,,
0.0129067818591752,0.261340304633017,0.0035644743305876,,
0.0129691334623596,0.329391328152134,0.00483498264207416,,
0.013031485065544,0.384398858032922,0.00589934675708825,,
0.0130938366687284,0.42514081832014,0.00675682049566095,,
0.0131561882719128,0.449000566597887,0.00732833958664125,,
0.0132185398750973,0.456144580784763,0.00764388471971289,,
0.0132808914782817,0.445650423958107,0.00765480016889697,,
0.0133432430814661,0.41831868973708,0.00736794189051615,,
0.0134055946846505,0.374654647623507,0.00682140613713189,,
0.013467946287835,0.316848895204856,0.00597179809383208,,
0.0135302978910194,0.246715182347611,0.00490563698577251,,
0.0135926494942038,0.167236070427905,0.00365576842297832,,
0.0136550010973882,0.0811512476825015,0.00229060820923932,,
0.0137173527005726,-0.0072403216804685,0.000820710683709258,,
0.0137797043037571,-0.0969031287379722,-0.000680979927347725,,
0.0138420559069415,-0.182861545687525,-0.00220056516629263,,
0.0139044075101259,-0.261039109401493,-0.00357901628287882,,
0.0139667591133103,-0.329369046212742,-0.00485361146997709,,
0.0140291107164947,-0.384622596998941,-0.00591951244190048,,
0.0140914623196792,-0.425295836955622,-0.00674676075745051,,
0.0141538139228636,-0.449806606913343,-0.00733213552052137,,
0.014216165526048,-0.456519412520752,-0.00764522134025425,,
0.0142785171292324,-0.446375541928597,-0.00765026490073462,,
0.0143408687324168,-0.418280209181432,-0.00735411360117677,,
0.0144032203356013,-0.374969848645506,-0.00681164932060652,,
0.0144655719387857,-0.316711277702994,-0.00595027525141445,,
0.0145279235419701,-0.246526493225937,-0.00491300294583619,,
0.0145902751451545,-0.166706503001696,-0.0036687033500602,,
0.014652626748339,-0.0805210932156092,-0.00228556464875851,,
0.0147149783515234,0.007949771557069,-0.000824023996599976,,
0.0147773299547078,0.0971728109409274,0.000677445841025914,,
0.0148396815578922,0.182880113970352,0.00215244169253914,,
0.0149020331610766,0.261300550823689,0.00357141585800846,,
0.0149643847642611,0.329187678299725,0.00482283496908797,,
0.0150267363674455,0.384462449980583,0.00589401396629841,,
0.0150890879706299,0.424869862863505,0.0067533702690139,,
0.0151514395738143,0.448965905803278,0.00734378688114301,,
0.0152137911769987,0.456178074430166,0.00762777681633908,,
0.0152761427801832,0.445680840573785,0.00766635911273328,,
0.0153384943833676,0.418324348642323,0.0073572763089369,,
0.015400845986552,0.374906009120741,0.00680848832426895,,
0.0154631975897364,0.316732993751861,0.0059651167025474,,
0.0155255491929209,0.246759781594552,0.0049163025673522,,
0.0155879007961053,0.167320140538912,0.00366817965494448,,
0.0156502523992897,0.0812026729838912,0.00229978827656829,,
0.0157126040024741,-0.00725284200831718,0.000829947227962258,,
0.0157749556056585,-0.0969019969569237,-0.000719190845179352,,
0.015837307208843,-0.182884534990072,-0.00217708788001092,,
0.0158996588120274,-0.261097891279698,-0.00355903029737092,,
0.0159620104152118,-0.329386093664785,-0.00481759801792681,,
0.0160243620183962,-0.384975076059223,-0.00589877171931352,,
0.0160867136215806,-0.425444666163496,-0.00674674706607492,,
0.0161490652247651,-0.449993562995287,-0.0073228579021416,,
0.0162114168279495,-0.456802852937078,-0.0076271179188887,,
0.0162737684311339,-0.446156259350457,-0.00765870392235968,,
0.0163361200343183,-0.4185952687308,-0.00736097126892199,,
0.0163984716375027,-0.37472580835693,-0.00681061904459357,,
0.0164608232406872,-0.316763834785432,-0.00598180648938307,,
0.0165231748438716,-0.246444085418345,-0.0049073809247373,,
0.016585526447056,-0.166681250137052,-0.0036862556935584,,
0.0166478780502404,-0.0805873024069446,-0.00229397628763239,,
0.0167102296534248,0.0079571635020418,-0.000829468029816205,,
0.0167725812566093,0.0970898372428116,0.000683535080316489,,
0.0168349328597937,0.183033187357157,0.00218501689789585,,
0.0168972844629781,0.261171032629955,0.00357592374341964,,
0.0169596360661625,0.329377110152713,0.00486096202724395,,
0.017021987669347,0.384495978994144,0.00592072241721819,,
0.0170843392725314,0.424548861463633,0.00677012508988417,,
0.0171466908757158,0.449213058489737,0.00735385346504103,,
0.0172090424789002,0.456325807225149,0.00764680098271242,,
0.0172713940820846,0.445715218423132,0.00764795448110522,,
0.0173337456852691,0.418230905969508,0.00738292367824833,,
0.0173960972884535,0.374764854803102,0.00680378533675619,,
0.0174584488916379,0.317002003959819,0.005972814678469,,
0.0175208004948223,0.246812621622253,0.00491797976086117,,
0.0175831520980067,0.167173291947873,0.00368485232756122,,
0.0176455037011912,0.0812248134506519,0.00230931405113033,,
0.0177078553043756,-0.00722525484526077,0.00084260661611113,,
0.01777020690756,-0.0969554028751483,-0.000656732501189694,,
0.0178325585107444,-0.18278996053621,-0.00216350945827593,,
0.0178949101139289,-0.261008692785815,-0.00359028770782821,,
0.0179572617171133,-0.329128754948889,-0.00484383753923234,,
0.0180196133202977,-0.384763786684737,-0.00591088002959506,,
0.0180819649234821,-0.425162074582956,-0.00674754458870286,,
0.0181443165266665,-0.449534484307502,-0.0073301964794541,,
0.018206668129851,-0.456451788603106,-0.00764678729133639,,
0.0182690197330354,-0.446034663624062,-0.00765823670416799,,
0.0183313713362198,-0.418588124362931,-0.00736640161076263,,
0.0183937229394042,-0.3749743757697,-0.00680814432845711,,
0.0184560745425886,-0.316540590973622,-0.00598175172388071,,
0.0185184261457731,-0.246444934254132,-0.00492967561845292,,
0.0185807777489575,-0.166739749069994,-0.00366708092205359,,
0.0186431293521419,-0.0806153847242097,-0.00231038882411339,,
0.0187054809553263,0.0079676678448979,-0.00080515214678023,,
0.0187678325585107,0.097220805531014,0.000703108613135051,,
0.0188301841616952,0.183026113725604,0.00216440110911131,,
0.0188925357648796,0.261317881220994,0.00356298881633688,,
0.018954887368064,0.329199597368892,0.00481093031801816,,
0.0190172389712484,0.384281506485459,0.00587257327213475,,
0.0190795905744329,0.42485111773989,0.0067421125354401,,
0.0191419421776173,0.448886681129885,0.00732153497297627,,
0.0192042937808017,0.456019306769961,0.00764413458731728,,
0.0192666453839861,0.445597018039883,0.00765734334191182,,
0.0193289969871705,0.418234018367392,0.00736535764337498,,
0.019391348590355,0.374586457815337,0.00681332480269381,,
0.0194537001935394,0.317028989864193,0.00598095077840988,,
0.0195160517967238,0.24698306077452,0.00491535443959323,,
0.0195784033999082,0.167170144181832,0.00366631078217772,,
0.0196407550030926,0.0811782335868759,0.00228835255511228,,
0.0197031066062771,-0.00725171022726871,0.000813700699410447,,
0.0197654582094615,-0.0969363748062709,-0.000679152128707283,,
0.0198278098126459,-0.182699630261279,-0.00216346667272704,,
0.0198901614158303,-0.261083390335014,-0.00357842413088516,,
0.0199525130190147,-0.329396633375799,-0.00481884906737085,,
0.0200148646221992,-0.384574001150172,-0.00588527373440995,,
0.0200772162253836,-0.42538446955898,-0.0067531922811308,,
0.020139567828568,-0.449850392692656,-0.00735998206703625,,
0.0202019194317524,-0.45691737503192,-0.00763052707140899,,
0.0202642710349369,-0.446247721406436,-0.00761958423947418,,
0.0203266226381213,-0.418465113910226,-0.00737419371489167,,
0.0203889742413057,-0.375187433552074,-0.00679639370536256,,
0.0204513258444901,-0.316622928044898,-0.00597125043880853,,
