Time domain (s),Current (AC) (A),Potential (AC) (V),Frequency (Hz),Column 5
0,-0.0895319448737746,-0.00801837690810281,0.79433,0.5
0.00307354153815165,-0.082508606841192,-0.00773788768358852,,
0.0061470830763033,-0.0755451117315472,-0.00745055397228134,,
0.00922062461445495,-0.0685798482140141,-0.00717178934286444,,
0.0122941661526066,-0.0615777310760903,-0.00687925489946695,,
0.0153677076907583,-0.0545302012235968,-0.00658170498321775,,
0.0184412492289099,-0.0475536198955791,-0.00628798824904031,,
0.0215147907670615,-0.040479422452131,-0.00597252544855653,,
0.0245883323052132,-0.0334318218633219,-0.00567252337365298,,
0.0276618738433649,-0.026381038140314,-0.00539427073340581,,
0.0307354153815165,-0.0193380354120143,-0.00508104451718872,,
0.0338089569196681,-0.0122205473434623,-0.00478788692907806,,
0.0368824984578198,-0.0051576677104989,-0.00447966944901346,,
0.0399560399959715,0.00192162274766729,-0.00417528178267101,,
0.0430295815341231,0.00903599841833598,-0.00387339343187953,,
0.0461031230722748,0.0161019904491827,-0.00355962491134498,,
0.0491766646104264,0.0231292543472771,-0.00322551492637047,,
0.052250206148578,0.0302277497151095,-0.0029473128113704,,
0.0553237476867297,0.0371924473421183,-0.00265962879168402,,
0.0583972892248813,0.0442844703370798,-0.0023270514058682,,
0.061470830763033,0.051279160161873,-0.00201818720264191,,
0.0645443723011846,0.0583043727068171,-0.00172306586659809,,
0.0676179138393363,0.0653104157102527,-0.00139299116468372,,
0.0706914553774879,0.0722955207642917,-0.00105397686240094,,
0.0737649969156396,0.0792296603029919,-0.000766777885085723,,
0.0768385384537913,0.0862896751151764,-0.000464353966676434,,
0.0799120799919429,0.093222399927566,-0.00013595333461236,,
0.0829856215300945,0.100075369544196,0.000168249072491022,,
0.0860591630682462,0.106994477615847,0.000489151757901318,,
0.0891327046063978,0.113799877060284,0.000793852680775142,,
0.0922062461445495,0.120676295765512,0.00113292424500466,,
0.0952797876827012,0.127361761786969,0.00142698791921125,,
0.0983533292208528,0.13419510207604,0.00174962193641859,,
0.101426870759004,0.140938288930969,0.00204753900279586,,
0.104500412297156,0.147571374710777,0.00232708508936641,,
0.107573953835308,0.154309185605726,0.00265471100097647,,
0.110647495373459,0.160962855653352,0.00296190450270206,,
0.113721036911611,0.167565418713009,0.00326775066450802,,
0.116794578449763,0.17424038039161,0.00357887166209991,,
0.119868119987914,0.180694078875236,0.00388932572643164,,
0.122941661526066,0.18712454047921,0.00419544809292116,,
0.126015203064218,0.193393794020093,0.00448345547418816,,
0.129088744602369,0.199981891503225,0.0048071673633312,,
0.132162286140521,0.206282233654783,0.00509711491408282,,
0.135235827678673,0.212638634336398,0.00538070302041271,,
0.138309369216824,0.218672972573408,0.00572357408321578,,
0.141382910754976,0.224916690304385,0.00598177830545588,,
0.144456452293128,0.23115142452329,0.00628075303367037,,
0.147529993831279,0.237156407189356,0.00659190771476048,,
0.150603535369431,0.243266291811352,0.00687323229002512,,
0.153677076907583,0.249308623252017,0.00716220975603443,,
0.156750618445734,0.255033419372272,0.00746396000448391,,
0.159824159983886,0.260725712155541,0.00774822178077361,,
0.162897701522037,0.266547063346493,0.00803213324868457,,
0.165971243060189,0.272348502264623,0.00832911391381774,,
0.169044784598341,0.277918598062815,0.00861041154228381,,
0.172118326136492,0.283535344461099,0.0088911971815806,,
0.175191867674644,0.288963083424288,0.00915716208175876,,
0.178265409212796,0.294327442648764,0.00942559935068976,,
0.181338950750947,0.29969859255953,0.00970534080154861,,
0.184412492289099,0.305464168165687,0.00997290229953185,,
0.187486033827251,0.310338749141438,0.0102711157806916,,
0.190559575365402,0.315505895518218,0.0104969568980571,,
0.193633116903554,0.320886665567896,0.0107671726556826,,
0.196706658441706,0.325933560208276,0.0110401167766456,,
0.199780199979857,0.330550378050238,0.0113009954686265,,
0.202853741518009,0.335471079103714,0.0115556763969757,,
0.205927283056161,0.339950102603026,0.0118040921946982,,
0.209000824594312,0.344903059416383,0.012032607781804,,
0.212074366132464,0.34954194698879,0.0122988893068636,,
0.215147907670616,0.35418111750646,0.0125256196685761,,
0.218221449208767,0.358395021295168,0.0127394964074528,,
0.221294990746919,0.362750963605458,0.0130324889464233,,
0.22436853228507,0.366989200686708,0.0132459951668222,,
0.227442073823222,0.371164340974506,0.0134345351785066,,
0.230515615361374,0.375493686430157,0.0137107937556724,,
0.233589156899525,0.379456334826105,0.0139279041103566,,
0.236662698437677,0.383467649807137,0.0141252624618162,,
0.239736239975829,0.387093310395904,0.0143561426304819,,
0.24280978151398,0.39097814884477,0.0145939481263353,,
0.245883323052132,0.394744433228809,0.0147941897852233,,
0.248956864590284,0.398146850005765,0.0150157530983428,,
0.252030406128435,0.401656785982326,0.0152018207412739,,
0.255103947666587,0.404941497530242,0.015390010444579,,
0.258177489204739,0.40800070170425,0.0155800392668746,,
0.26125103074289,0.41133945579723,0.0157916794214845,,
0.264324572281042,0.414524570612881,0.0159727349599139,,
0.267398113819194,0.417230659099767,0.016140667407524,,
0.270471655357345,0.42030514231793,0.0163192168937023,,
0.273545196895497,0.422908238729406,0.0164965200904548,,
0.276618738433648,0.425844927604918,0.0166820353240191,,
0.2796922799718,0.428484806900469,0.0168618176262241,,
0.282765821509952,0.430468253187909,0.0170251691181069,,
0.285839363048103,0.432871307299068,0.0172050389974068,,
0.288912904586255,0.435767817947359,0.0173087033308397,,
0.291986446124407,0.437815209864038,0.0174921032407296,,
0.295059987662558,0.44014384937126,0.0176050911664083,,
0.29813352920071,0.441806718676722,0.0177919672132916,,
0.301207070738862,0.443683211655081,0.0178736968528295,,
0.304280612277013,0.445614313069029,0.0180259193169743,,
0.307354153815165,0.447145895772869,0.0181567460231915,,
0.310427695353317,0.448757834931149,0.0182904223533393,,
0.313501236891468,0.450277816879241,0.0184167017873271,,
0.31657477842962,0.451569462000805,0.018549926758602,,
0.319648319967772,0.45289336288225,0.0186275941682816,,
0.322721861505923,0.453971667276178,0.0187600848392999,,
0.325795403044075,0.454755991542766,0.0188725877226075,,
0.328868944582227,0.455779404555843,0.0189349156672995,,
0.331942486120378,0.456541376146724,0.0190296336636653,,
0.33501602765853,0.457585161218674,0.0191462863539256,,
0.338089569196681,0.457946482318397,0.019261834225452,,
0.341163110734833,0.458359299455826,0.0193463393852249,,
0.344236652272985,0.458700814387201,0.0194189340601065,,
0.347310193811136,0.459193987979071,0.0194424047215103,,
0.350383735349288,0.459441848028685,0.0195336735276808,,
0.35345727688744,0.459724793290802,0.0195608897940618,,
0.356530818425591,0.459460239470723,0.0196775424843225,,
0.359604359963743,0.45922199956002,0.0197137050877711,,
0.362677901501895,0.458931131830564,0.0197615356549257,,
0.365751443040046,0.458883031136004,0.0198039701257016,,
0.368824984578198,0.458151617633432,0.019840624508221,,
0.37189852611635,0.457510463669475,0.0198844669492129,,
0.374972067654501,0.456927596429514,0.0199069405790757,,
0.378045609192653,0.456092907906269,0.0199206026058634,,
0.381119150730805,0.455467881822252,0.0199790232647876,,
0.384192692268956,0.454160674711272,0.0199793466263687,,
0.387266233807108,0.453074730795267,0.0199995836719649,,
0.39033977534526,0.451697636204544,0.0200102546041299,,
0.393413316883411,0.450746657178569,0.0199970169894175,,
0.396486858421563,0.449300806889151,0.0200262340555795,,
0.399560399959714,0.447828925635619,0.0200096617745653,,
0.402633941497866,0.445920176897378,0.0199995028315696,,
0.405707483036018,0.444314745480126,0.0199865953151375,,
0.408781024574169,0.442134935180777,0.0199284912810938,,
0.411854566112321,0.440667863996701,0.0199022518361547,,
0.414928107650473,0.43842637163021,0.0199161294373291,,
0.418001649188624,0.436446320685916,0.0198722869963373,,
0.421075190726776,0.434049491370523,0.0198217011190467,,
0.424148732264928,0.431618991568939,0.0197668711210084,,
0.427222273803079,0.429142654634891,0.0197151871616827,,
0.430295815341231,0.426709042435423,0.0196691081364242,,
0.433369356879383,0.424032946146321,0.0196300622255468,,
0.436442898417534,0.421110121588653,0.0195707792690736,,
0.439516439955686,0.418235114780282,0.0195079393352118,,
0.442589981493838,0.415508654234523,0.0194323535657079,,
0.445663523031989,0.412238089949714,0.0193387942816736,,
0.448737064570141,0.409223025236595,0.0192879187263002,,
0.451810606108293,0.406164104007849,0.0192190157627992,,
0.454884147646444,0.402833272382208,0.0191085069425729,,
0.457957689184596,0.399220627275499,0.0190092349372786,,
0.461031230722747,0.395673059579077,0.0189268046809823,,
0.464104772260899,0.392280262941032,0.0188255386126062,,
0.467178313799051,0.388473517384511,0.0187150836859771,,
0.470251855337202,0.384687426832124,0.0185982154213291,,
0.473325396875354,0.381000084176216,0.0185279920647066,,
0.476398938413506,0.376734967295065,0.0183724484076597,,
0.479472479951657,0.372346769224893,0.0182359426636802,,
0.482546021489809,0.368487961740142,0.0181066788717699,,
0.485619563027961,0.364246612261009,0.018017397391981,,
0.488693104566112,0.359806635207869,0.0178881672835689,,
0.491766646104264,0.35551096023841,0.0177146029550936,,
0.494840187642416,0.351158979161789,0.0175992167643577,,
0.497913729180567,0.34660950229221,0.0174431948016394,,
0.500987270718719,0.341577886695985,0.0172701155155353,,
0.504060812256871,0.33710112675877,0.0171347617471871,,
0.507134353795022,0.332336328544721,0.0169671796079562,,
0.510207895333174,0.327595014787427,0.0167977920332327,,
0.513281436871326,0.322279605093298,0.016657021958407,,
0.516354978409477,0.317240349974995,0.0164608223192784,,
0.519428519947629,0.312002467282686,0.0163191630001056,,
0.52250206148578,0.306955006751781,0.0161146368002725,,
0.525575603023932,0.301906697385091,0.0159545391342966,,
0.528649144562084,0.296349369491852,0.0157584809658595,,
0.531722686100235,0.290869533232275,0.0155790422353341,,
0.534796227638387,0.285286528056499,0.0153737615251455,,
0.537869769176539,0.279787133205678,0.0151872088398433,,
0.54094331071469,0.274176646971319,0.0150032161003888,,
0.544016852252842,0.268603191198139,0.0147620355180358,,
0.547090393790994,0.263020928753676,0.0145822464791312,,
0.550163935329145,0.256837796676949,0.0143649474968579,,
0.553237476867297,0.251136980167659,0.0141448797310493,,
0.556311018405449,0.245130299830021,0.013921005729967,,
0.5593845599436,0.239106147622446,0.0136885357001963,,
0.562458101481752,0.23289295261162,0.0135068603854038,,
0.565531643019904,0.22697458656392,0.0132847716097153,,
0.568605184558055,0.220985236623586,0.0130472490552451,,
0.571678726096207,0.214724153127146,0.0127926893874886,,
0.574752267634358,0.20825068384333,0.0125865194329533,,
0.57782580917251,0.202042051324856,0.0123031199542121,,
0.580899350710662,0.195511922252301,0.0121017532664909,,
0.583972892248813,0.189167723585115,0.0118406051065261,,
0.587046433786965,0.182877001572468,0.0115844016840669,,
0.590119975325117,0.176348322594382,0.0113590119255749,,
0.593193516863268,0.169643085772734,0.0111230859689098,,
0.59626705840142,0.163078472746359,0.010862894420288,,
0.599340599939572,0.156442274568668,0.0105863394283396,,
0.602414141477723,0.149935382375764,0.0103431715196054,,
0.605487683015875,0.14319053321742,0.0100803930783377,,
0.608561224554027,0.13645954837692,0.00982132655854873,,
0.611634766092178,0.129692346542869,0.0095259222811217,,
0.61470830763033,0.122847051816473,0.00927265605968808,,
0.617781849168482,0.116105880946537,0.0089995772047331,,
0.620855390706633,0.109258039712782,0.00871464175848358,,
0.623928932244785,0.102333520312994,0.00847185110492665,,
0.627002473782937,0.0954545551004067,0.00816705586825828,,
0.630076015321088,0.0885136248754157,0.00790930974159076,,
0.63314955685924,0.0815576985515325,0.00763027564418994,,
0.636223098397392,0.0745873420192813,0.00733404948941185,,
0.639296639935543,0.0676416017248343,0.00707425540606677,,
0.642370181473695,0.0605541058540667,0.0067844964829038,,
0.645443723011846,0.0536392065931905,0.00649692025041126,,
0.648517264549998,0.0465573696276653,0.00621059030734417,,
0.65159080608815,0.0395275945903695,0.00591036928970379,,
0.654664347626301,0.0325247347211327,0.00564547552476213,,
0.657737889164453,0.0254909630820096,0.00533195626211258,,
0.660811430702605,0.0183531029545852,0.0050342008765254,,
0.663884972240756,0.0113009752415822,0.00473233610418289,,
0.666958513778908,0.00415996734811675,0.00447318874399905,,
0.67003205531706,-0.00281969100962651,0.00416881791940549,,
0.673105596855211,-0.00996264415176901,0.00384724156403538,,
0.676179138393363,-0.0170187330984416,0.00355521910980716,,
0.679252679931515,-0.0241042483523744,0.00325290297859127,,
0.682326221469666,-0.0310963916698085,0.00294816163551959,,
0.685399763007818,-0.03825122851296,0.00266325313606819,,
0.68847330454597,-0.0452144406773427,0.00234775328373704,,
0.691546846084121,-0.0523093638612408,0.00204258752859054,,
0.694620387622273,-0.0593368753364396,0.00173884321705975,,
0.697693929160425,-0.0663527860558916,0.00144078467999043,,
0.700767470698576,-0.0732846620324948,0.00113103123241709,,
0.703841012236728,-0.0802753906236184,0.000864473502674379,,
0.706914553774879,-0.0872528207874225,0.000540566249242591,,
0.709988095313031,-0.0941232976421464,0.000236128057653051,,
0.713061636851183,-0.101105254930144,-9.01168305391664E-05,,
0.716135178389334,-0.108011665833157,-0.00043026289835435,,
0.719208719927486,-0.114885184349449,-0.000703425962054638,,
0.722282261465638,-0.121658115825058,-0.000989035078264422,,
0.725355803003789,-0.128483038492581,-0.00130013586575739,,
0.728429344541941,-0.135171510807448,-0.00159485299982531,,
0.731502886080093,-0.141907659398982,-0.00192026253726763,,
0.734576427618244,-0.148765686662173,-0.00221726678084933,,
0.737649969156396,-0.155321528385422,-0.00252982606380581,,
0.740723510694548,-0.161950935876823,-0.00282284554957446,,
0.743797052232699,-0.168580909258747,-0.00313933232839725,,
0.746870593770851,-0.175089216177961,-0.00341540564632448,,
0.749944135309003,-0.181586558968268,-0.00371793735192716,,
0.753017676847154,-0.188163550849861,-0.00399624388577147,,
0.756091218385306,-0.194429585888388,-0.00430484198936343,,
0.759164759923458,-0.201034801559877,-0.00461478069617582,,
0.762238301461609,-0.207418188145867,-0.00491890226288438,,
0.765311842999761,-0.213620419027786,-0.00520205922043981,,
0.768385384537913,-0.219671203458157,-0.00551159709362592,,
0.771458926076064,-0.22587194887745,-0.00581824829103406,,
0.774532467614216,-0.231925067606234,-0.0060818182945046,,
0.777606009152367,-0.237913533342623,-0.00635996314755838,,
0.780679550690519,-0.243956678250917,-0.00663449712962727,,
0.783753092228671,-0.250077350161031,-0.00694684083819652,,
0.786826633766822,-0.255725008329201,-0.00721563178385631,,
0.789900175304974,-0.261724225985551,-0.00753559469967247,,
0.792973716843126,-0.267374925815289,-0.00781072487965551,,
0.796047258381277,-0.273192563349676,-0.00810571148170736,,
0.799120799919429,-0.278722445552489,-0.00836380791675362,,
0.802194341457581,-0.284494175218098,-0.00864009344071803,,
0.805267882995732,-0.289911869624482,-0.0089326009373174,,
0.808341424533884,-0.295216456662335,-0.00919136767397388,,
0.811414966072036,-0.300768691540856,-0.00948064492311529,,
0.814488507610187,-0.306160213510495,-0.00973165435018331,,
0.817562049148339,-0.311268224327492,-0.01001664369003,,
0.820635590686491,-0.316422072276952,-0.0102946538090918,,
0.823709132224642,-0.321415773208055,-0.0105453398745787,,
0.826782673762794,-0.326603928270547,-0.0107951636425172,,
0.829856215300945,-0.331573508118053,-0.0110248581520533,,
0.832929756839097,-0.336484306087355,-0.0113128655333203,,
0.836003298377249,-0.34119364703003,-0.0115749500945292,,
0.8390768399154,-0.345813860215137,-0.0118177912733333,,
0.842150381453552,-0.350296562002856,-0.0120590762745296,,
0.845223922991704,-0.354696926719299,-0.0123220770268841,,
0.848297464529855,-0.359474174524882,-0.0125330435115343,,
0.851371006068007,-0.363785128538496,-0.0127802500716787,,
0.854444547606159,-0.368141141585102,-0.0130024836864084,,
0.85751808914431,-0.372370536626911,-0.0132574576611906,,
0.860591630682462,-0.376410075397839,-0.0134757503066547,,
0.863665172220614,-0.380485760426002,-0.0136956328132243,,
0.866738713758765,-0.384384392456396,-0.0139261963570085,,
0.869812255296917,-0.38825961076635,-0.0141790347980177,,
0.872885796835069,-0.39201733605621,-0.0143750424412077,,
0.87595933837322,-0.395363234517058,-0.0145827786783999,,
0.879032879911372,-0.399143453955256,-0.0147982991719786,,
0.882106421449524,-0.402685574955383,-0.0150000767983753,,
0.885179962987675,-0.405715918712656,-0.0151950368847777,,
0.888253504525827,-0.409213688042945,-0.0153965686216391,,
0.891327046063979,-0.412439476240025,-0.0156064606027031,,
0.89440058760213,-0.415345607027229,-0.0158071334103651,,
0.897474129140282,-0.418353668845109,-0.0159956262651524,,
0.900547670678433,-0.421339377987283,-0.0161760081336215,,
0.903621212216585,-0.424045395737854,-0.0163764114733,,
0.906694753754737,-0.426800433755087,-0.0165254036899869,,
0.909768295292888,-0.429143220525415,-0.016668945916698,,
0.91284183683104,-0.43184506483337,-0.0168860293245841,,
0.915915378369192,-0.434185588041601,-0.0170596205998574,,
0.918988919907343,-0.4363405698942,-0.0172236996552968,,
0.922062461445495,-0.438896060765324,-0.0173800988731929,,
0.925136002983647,-0.440755364819011,-0.017521246203196,,
0.928209544521798,-0.442841449500283,-0.0176924661602107,,
0.93128308605995,-0.444760667213223,-0.0178414280617489,,
0.934356627598102,-0.446442776796508,-0.0179748416606125,,
0.937430169136253,-0.448177514198547,-0.0181071201255936,,
0.940503710674405,-0.449629306338469,-0.0182228330462602,,
0.943577252212557,-0.450923780912654,-0.0183456296065554,,
0.946650793750708,-0.452240608162546,-0.0184818726192506,,
0.94972433528886,-0.453653919746821,-0.0186152053777189,,
0.952797876827011,-0.454586012176549,-0.01873840277164,,
0.955871418365163,-0.455952567056259,-0.0188262762812124,,
0.958944959903315,-0.456761012406442,-0.0189593395716967,,
0.962018501441466,-0.457623075883797,-0.0190834329466649,,
0.965092042979618,-0.458164916060751,-0.019126898132479,,
0.96816558451777,-0.458719842456078,-0.0192746238496411,,
0.971239126055921,-0.459157558776573,-0.0193305081411665,,
0.974312667594073,-0.459790436591613,-0.0194217230537403,,
0.977386209132225,-0.460038013695965,-0.0194965543128891,,
0.980459750670376,-0.460210893251119,-0.0195861793643575,,
0.983533292208528,-0.460339633345382,-0.0196346297078751,,
0.98660683374668,-0.460193350644868,-0.0196990561344927,,
0.989680375284831,-0.459720266166608,-0.0197601209480101,,
0.992753916822983,-0.459400255075154,-0.0198552700931498,,
0.995827458361135,-0.459047493069609,-0.0198906478710952,,
0.998900999899286,-0.458793974114753,-0.0199330924469203,,
1.00197454143744,-0.458211672765316,-0.0199861810081119,,
1.00504808297559,-0.457277033828228,-0.0200311282678385,,
1.00812162451374,-0.456457058458613,-0.0200623326603822,,
1.01119516605189,-0.455681293286204,-0.0200825124440316,,
1.01426870759004,-0.45453868958146,-0.0201069531901776,,
1.0173422491282,-0.453555949949813,-0.0201492866104593,,
1.02041579066635,-0.452505374191572,-0.0201973058052025,,
1.0234893322045,-0.451086403702056,-0.0201676407485176,,
1.02656287374265,-0.44940889197928,-0.0201328760102353,,
1.0296364152808,-0.448036607458013,-0.0201396396566333,,
1.03270995681895,-0.446529358046716,-0.0201795478650593,,
1.03578349835711,-0.444383784124083,-0.0201740237713879,,
1.03885703989526,-0.442413636263962,-0.0201436580979442,,
1.04193058143341,-0.440711437567067,-0.0201225857015976,,
1.04500412297156,-0.438587933374879,-0.0200961744708188,,
1.04807766450971,-0.436348704570486,-0.0200585836870548,,
