Time domain (s),Current (AC) (A),Potential (AC) (V),Frequency (Hz),Column 5
0,0.156804249097862,0.0086887805950262,1.2589,0.3
0.00193931706251489,0.153045620447459,0.00854015354215099,,
0.00387863412502979,0.149419232525062,0.00844851195068319,,
0.00581795118754468,0.145732000164079,0.00832176071382085,,
0.00775726825005958,0.14191051719874,0.00816801901579689,,
0.00969658531257447,0.138174705212806,0.0080499538573342,,
0.0116359023750894,0.134223630901922,0.00792849363269488,,
0.0135752194376043,0.130429738057383,0.00779704347307275,,
0.0155145365001192,0.126452375477426,0.00768842655072266,,
0.017453853562634,0.122606203008292,0.00756096984556365,,
0.0193931706251489,0.118627195984048,0.00740319060130767,,
0.0213324876876638,0.114606164272493,0.00727734009628822,,
0.0232718047501787,0.110653080085259,0.00713760698300714,,
0.0252111218126936,0.106636296521443,0.00699748964145774,,
0.0271504388752085,0.102547819754654,0.00684634935777684,,
0.0290897559377234,0.0983740146010208,0.00669736957075351,,
0.0310290730002383,0.0943983193048532,0.00655791360573188,,
0.0329683900627532,0.0902555987161275,0.00642145588096987,,
0.0349077071252681,0.0860399744307185,0.00627305558576197,,
0.036847024187783,0.0818817458187948,0.00611957213952508,,
0.0387863412502979,0.0775973974659296,0.00594639856922941,,
0.0407256583128128,0.0734643379873847,0.00579316077713177,,
0.0426649753753277,0.0693033686349843,0.00563734676598715,,
0.0446042924378426,0.0650046085551118,0.00547814398749003,,
0.0465436095003575,0.0607352657563571,0.00534531438539521,,
0.0484829265628724,0.0565625797384183,0.00519222776507533,,
0.0504222436253872,0.0521920122580531,0.00505350246364644,,
0.0523615606879021,0.0479164571142177,0.00485035278957779,,
0.054300877750417,0.0435106254397176,0.00471322109063976,,
0.0562401948129319,0.0392352530119139,0.00454846904813255,,
0.0581795118754468,0.0349412663883719,0.00437832521221715,,
0.0601188289379617,0.030570470512967,0.00419582308346689,,
0.0620581460004766,0.0262399406830674,0.00406024719407538,,
0.0639974630629915,0.0218763164119103,0.00389270477250303,,
0.0659367801255064,0.0175278575713915,0.00372326640488385,,
0.0678760971880213,0.0131909098408753,0.00356758466904505,,
0.0698154142505362,0.00877758680907189,0.00340096817461166,,
0.0717547313130511,0.00440464402029354,0.00321087596285086,,
0.073694048375566,5.57283896952896E-06,0.00304932372297362,,
0.0756333654380809,-0.00433699340952409,0.00290497357164599,,
0.0775726825005958,-0.0087226349625117,0.00271280904676408,,
0.0795119995631107,-0.0130814629378344,0.00255019230561837,,
0.0814513166256256,-0.0174224304210499,0.00237801394952664,,
0.0833906336881405,-0.0218375806131713,0.00221151713275081,,
0.0853299507506553,-0.0261979159957562,0.00204656982669738,,
0.0872692678131702,-0.0305781674258061,0.00182228129903317,,
0.0892085848756851,-0.0348716287407567,0.00167083237297261,,
0.0911479019382,-0.0391667344999935,0.00148550207221243,,
0.0930872190007149,-0.0434890649479666,0.00132117834974244,,
0.0950265360632298,-0.0477993361378417,0.00112979487904585,,
0.0969658531257447,-0.0521426332504625,0.000970554307604399,,
0.0989051701882596,-0.0564246291344184,0.000781564390056388,,
0.100844487250774,-0.0607610287168392,0.000644369702877956,,
0.102783804313289,-0.0650343912682932,0.000436741564891818,,
0.104723121375804,-0.0693163414732412,0.000269646359828624,,
0.106662438438319,-0.0733454126901948,7.29214863168792E-05,,
0.108601755500834,-0.0776260838829203,-9.26116103756591E-05,,
0.110541072563349,-0.0818667402646843,-0.000256028302178635,,
0.112480389625864,-0.0860852880066019,-0.000452047707394598,,
0.114419706688379,-0.090230246866717,-0.000598435528310848,,
0.116359023750894,-0.0943910106635817,-0.000790467777886938,,
0.118298340813409,-0.0983621608984586,-0.00095733937469511,,
0.120237657875923,-0.10255371234668,-0.00113524651128305,,
0.122176974938438,-0.106652169976705,-0.00131327332552811,,
0.124116292000953,-0.11061400169396,-0.00150334664081697,,
0.126055609063468,-0.114573686497843,-0.00168555587424812,,
0.127994926125983,-0.118609655244996,-0.0018517440486443,,
0.129934243188498,-0.12265274991739,-0.00201911955137879,,
0.131873560251013,-0.126488005103624,-0.00219133255100257,,
0.133812877313528,-0.130428824477224,-0.00235071484598581,,
0.135752194376043,-0.134370694468007,-0.00252717955186066,,
0.137691511438557,-0.138034424979401,-0.00272494058193296,,
0.139630828501072,-0.141806917208717,-0.00287009383333059,,
0.141570145563587,-0.145623489680701,-0.00306165052168872,,
0.143509462626102,-0.149277810316458,-0.00322045332485699,,
0.145448779688617,-0.153134214883372,-0.00339843604733403,,
0.147388096751132,-0.156753454041025,-0.00354885196624588,,
0.149327413813647,-0.160452677141594,-0.00371320088401239,,
0.151266730876162,-0.163931818781874,-0.00391929840774807,,
0.153206047938677,-0.167391364127745,-0.00405547898425063,,
0.155145365001192,-0.171009324273176,-0.00421208979664067,,
0.157084682063706,-0.174541453562675,-0.00438513109163052,,
0.159023999126221,-0.177992182860012,-0.00456165563633393,,
0.160963316188736,-0.181394355371902,-0.00473693616328275,,
0.162902633251251,-0.184619293332957,-0.00488281692886083,,
0.164841950313766,-0.187812255988449,-0.00501819125588199,,
0.166781267376281,-0.19126047294035,-0.00520909286653648,,
0.168720584438796,-0.19441342078488,-0.00534918186337752,,
0.170659901501311,-0.197526216781426,-0.00550451086506865,,
0.172599218563826,-0.200775410295701,-0.00567057306298313,,
0.17453853562634,-0.203926165547851,-0.00582177003608075,,
0.176477852688855,-0.206879222053606,-0.00598667325036573,,
0.17841716975137,-0.209744072395015,-0.00611799428409432,,
0.180356486813885,-0.212736412847605,-0.0062457564822207,,
0.1822958038764,-0.21554105825654,-0.00642998448876808,,
0.184235120938915,-0.218420480201485,-0.00657173322575311,,
0.18617443800143,-0.221148613272109,-0.00670360225717603,,
0.188113755063945,-0.223921694486553,-0.00685338829368076,,
0.19005307212646,-0.226447926342052,-0.00700869524948766,,
0.191992389188975,-0.229174780400453,-0.00714207914810094,,
0.193931706251489,-0.231862533228052,-0.00727070113571315,,
0.195871023314004,-0.234331026817506,-0.00740831784410512,,
0.197810340376519,-0.236626671040888,-0.00753973650960704,,
0.199749657439034,-0.239058073275889,-0.00766576338170077,,
0.201688974501549,-0.241354448363399,-0.00782401818717426,,
0.203628291564064,-0.243765386402839,-0.00793744426170573,,
0.205567608626579,-0.246005850384622,-0.00807821038213508,,
0.207506925689094,-0.248015726734288,-0.00818755796807791,,
0.209446242751609,-0.250199366030185,-0.00831269985538929,,
0.211385559814123,-0.252214723860804,-0.00843502616833858,,
0.213324876876638,-0.254264615021432,-0.00857097998717471,,
0.215264193939153,-0.256151660518729,-0.0086768537716404,,
0.217203511001668,-0.25800389861197,-0.00878191500780012,,
0.219142828064183,-0.259963345336863,-0.00892381491656291,,
0.221082145126698,-0.261519172347536,-0.00903298613543191,,
0.223021462189213,-0.263353275874623,-0.00912759447303912,,
0.224960779251728,-0.264838209064963,-0.00927969847680332,,
0.226900096314243,-0.266591917538062,-0.00935223573485189,,
0.228839413376758,-0.267988005057945,-0.00945455383312677,,
0.230778730439272,-0.269414332081089,-0.0095683609865147,,
0.232718047501787,-0.271158767715575,-0.00964482871078598,,
0.234657364564302,-0.271893240484355,-0.00975853508298874,,
0.236596681626817,-0.273268544055622,-0.00984948695322041,,
0.238535998689332,-0.274388593330481,-0.00991303263990195,,
0.240475315751847,-0.275769743814765,-0.010028549924026,,
0.242414632814362,-0.276665235086558,-0.0101004100584863,,
0.244353949876877,-0.277783228806059,-0.0102090773714294,,
0.246293266939392,-0.278629066996213,-0.0102798037175562,,
0.248232584001906,-0.279224903975873,-0.0103372458437083,,
0.250171901064421,-0.280339106337716,-0.0104267647314633,,
0.252111218126936,-0.280904612456099,-0.0105169890875141,,
0.254050535189451,-0.281632233373686,-0.0105691433508555,,
0.255989852251966,-0.282426499963868,-0.0106766737260529,,
0.257929169314481,-0.282942672753669,-0.0107456615967347,,
0.259868486376996,-0.283113831996446,-0.0108002598038173,,
0.261807803439511,-0.283596247999374,-0.0108736253572315,,
0.263747120502026,-0.283913762783613,-0.0109429376173535,,
0.265686437564541,-0.284197520780979,-0.0109810108594752,,
0.267625754627055,-0.284283214599888,-0.0110484114264904,,
0.26956507168957,-0.284633298516793,-0.0110776883607913,,
0.271504388752085,-0.284670207155215,-0.011156067778169,,
0.2734437058146,-0.284573367658367,-0.011198295094768,,
0.275383022877115,-0.284641703454256,-0.0112478290472944,,
0.27732233993963,-0.284523851613753,-0.0112940403701209,,
0.279261657002145,-0.284452226929292,-0.0113217520466393,,
0.28120097406466,-0.283703456631025,-0.011379071345722,,
0.283140291127175,-0.283537733190194,-0.0113790965410185,,
0.285079608189689,-0.283242098650761,-0.0114225332318401,,
0.287018925252204,-0.282678602408727,-0.0114603513715865,,
0.288958242314719,-0.282152608632218,-0.011474133198663,,
0.290897559377234,-0.281388992656369,-0.0115135102973682,,
0.292836876439749,-0.280914433442808,-0.0115069878650385,,
0.294776193502264,-0.280008527357204,-0.0115435714352663,,
0.296715510564779,-0.279303791622598,-0.0115632489616768,,
0.298654827627294,-0.278354079368373,-0.0115937856607928,,
0.300594144689809,-0.277561639938509,-0.0115944911290891,,
0.302533461752323,-0.276555422751453,-0.0115707571599741,,
0.304472778814838,-0.275520519147407,-0.0115605026743801,,
0.306412095877353,-0.274245343961559,-0.0115777362570495,,
0.308351412939868,-0.273108850243839,-0.0116159323262406,,
0.310290730002383,-0.271912608383724,-0.0116083485420542,,
0.312230047064898,-0.270455493709224,-0.0115650378277139,,
0.314169364127413,-0.269175293832503,-0.0115881167191252,,
0.316108681189928,-0.267700044591848,-0.0115615356815284,,
0.318047998252443,-0.266166006467965,-0.0115670534514183,,
0.319987315314958,-0.264483922679326,-0.0115288825775233,,
0.321926632377472,-0.262848431478793,-0.0115231600958512,,
0.323865949439987,-0.261103721770259,-0.0114845105113264,,
0.325805266502502,-0.259256599725908,-0.0114817169828494,,
0.327744583565017,-0.257501657919593,-0.0114495425894741,,
0.329683900627532,-0.255622743285711,-0.0113932059069466,,
0.331623217690047,-0.253737068158653,-0.0113791217363146,,
0.333562534752562,-0.251853859698023,-0.0113095071326375,,
0.335501851815077,-0.249558580906705,-0.011302002083752,,
0.337441168877592,-0.247585293442404,-0.0112440025116687,,
0.339380485940107,-0.245390417110552,-0.0111924781307349,,
0.341319803002621,-0.243285528424357,-0.0111899050611002,,
0.343259120065136,-0.240805341008868,-0.0110864783697879,,
0.345198437127651,-0.238365579515413,-0.011077839532569,,
0.347137754190166,-0.235859994571507,-0.011043775491971,,
0.349077071252681,-0.233724044159907,-0.0109378229722044,,
0.351016388315196,-0.2310322259006,-0.0108946130390497,,
0.352955705377711,-0.228549115028604,-0.0108649865200126,,
0.354895022440226,-0.225901970839069,-0.0107901060994084,,
0.356834339502741,-0.223195215544164,-0.0107140163045818,,
0.358773656565255,-0.220389565197054,-0.0106248249556793,,
0.36071297362777,-0.217670065458932,-0.0105592919900022,,
0.362652290690285,-0.214645932416811,-0.0105030560886603,,
0.3645916077528,-0.211893726508999,-0.0103931794014951,,
0.366530924815315,-0.208974198395077,-0.0103005646417076,,
0.36847024187783,-0.20585765671988,-0.010274005649995,,
0.370409558940345,-0.202999247118591,-0.0101347984885241,,
0.37234887600286,-0.199897322725937,-0.0100636501211846,,
0.374288193065375,-0.196728432907632,-0.00999191911261788,,
0.376227510127889,-0.193642724562799,-0.00991837404271756,,
0.378166827190404,-0.190233243409638,-0.00982351375214696,,
0.380106144252919,-0.187022557299062,-0.00970345816527685,,
0.382045461315434,-0.183642493427019,-0.00961754220489297,,
0.383984778377949,-0.180444597438668,-0.00949572609669325,,
0.385924095440464,-0.176912696544209,-0.00939544566800654,,
0.387863412502979,-0.173581646247693,-0.00929214495317554,,
0.389802729565494,-0.169937512030709,-0.0091873073252704,,
0.391742046628009,-0.166651546915036,-0.00908005094892061,,
0.393681363690524,-0.162909522584021,-0.00898367894057239,,
0.395620680753038,-0.159368622924997,-0.00885450265644083,,
0.397559997815553,-0.155767335617466,-0.00872295801445766,,
0.399499314878068,-0.152045455728956,-0.00862996532522553,,
0.401438631940583,-0.148365509169741,-0.00847974781927174,,
0.403377949003098,-0.144541034229382,-0.00836019613832706,,
0.405317266065613,-0.14095491235249,-0.00828675184961192,,
0.407256583128128,-0.137052828777629,-0.00812683730399444,,
0.409195900190643,-0.13313466619197,-0.00798307294330547,,
0.411135217253158,-0.129167535709793,-0.00787468277862224,,
0.413074534315672,-0.125348359534356,-0.00774142800590205,,
0.415013851378187,-0.121501867312166,-0.00759203879531434,,
0.416953168440702,-0.117489605970137,-0.00744714379570377,,
0.418892485503217,-0.113505254501963,-0.00730705794827458,,
0.420831802565732,-0.109467458594492,-0.00720720898903693,,
0.422771119628247,-0.105490461446598,-0.00703842884853367,,
0.424710436690762,-0.101359617399938,-0.00689484085491898,,
0.426649753753277,-0.0972602005107461,-0.00676953834759386,,
0.428589070815792,-0.093240995959509,-0.00662607633046042,,
0.430528387878307,-0.0890483482150973,-0.00647337078899701,,
0.432467704940821,-0.0848824683693425,-0.00630259707067404,,
0.434407022003336,-0.0808097280207916,-0.00615691786746631,,
0.436346339065851,-0.0765040247317112,-0.00599914177262217,,
0.438285656128366,-0.0723172695793247,-0.0058393028128938,,
0.440224973190881,-0.0680519465332693,-0.00570473788476633,,
0.442164290253396,-0.0638162234843637,-0.0055490057583345,,
0.444103607315911,-0.0595810485835533,-0.0053717064582699,,
0.446042924378426,-0.0552484860378001,-0.00522396124076563,,
0.447982241440941,-0.0509387629960203,-0.00507389805600145,,
0.449921558503455,-0.0467306757469226,-0.00489478469460325,,
0.45186087556597,-0.0423051107409893,-0.00473658342913419,,
0.453800192628485,-0.0380143444875076,-0.0045620808069593,,
0.455739509691,-0.0336761177447689,-0.00439226450989549,,
0.457678826753515,-0.0293608675430276,-0.00422501498364269,,
0.45961814381603,-0.0249636692010294,-0.0040570662879178,,
0.461557460878545,-0.0205945634489186,-0.0038990161942265,,
0.46349677794106,-0.0162464700404634,-0.00374524930090603,,
0.465436095003575,-0.011909705025979,-0.00358500406702467,,
0.46737541206609,-0.00748363755095836,-0.00339347257396261,,
0.469314729128604,-0.00314664414143427,-0.00323204631056706,,
0.471254046191119,0.00126174555751092,-0.00305331087861349,,
0.473193363253634,0.00563139945771709,-0.002866109827103,,
0.475132680316149,0.0100127471839577,-0.00271097923837038,,
0.477071997378664,0.0143557245435228,-0.00253232254171776,,
0.479011314441179,0.0186886296818357,-0.00237565818932284,,
0.480950631503694,0.0230473434596385,-0.00219772900685111,,
0.482889948566209,0.0274281430377838,-0.0020051613572285,,
0.484829265628724,0.031760705583537,-0.00180717671890118,,
0.486768582691238,0.0360506952938837,-0.00165524908221126,,
0.488707899753753,0.0403887393205905,-0.00148175427188768,,
0.490647216816268,0.0447375635931729,-0.00129921435019265,,
0.492586533878783,0.049054777992256,-0.00111246996342773,,
0.494525850941298,0.0533180911619616,-0.000956180391065597,,
0.496465168003813,0.0576950765429433,-0.000763814303813337,,
0.498404485066328,0.0619161594698019,-0.000582508951636918,,
0.500343802128843,0.0662132751053883,-0.000402009848942342,,
0.502283119191358,0.0704382179084185,-0.000233881636730882,,
0.504222436253873,0.0746531113297004,-5.57256965922903E-05,,
0.506161753316387,0.0787779257473109,0.000130165199510923,,
0.508101070378902,0.0830578660759092,0.000288341269683468,,
0.510040387441417,0.0871768564200064,0.000473470008073296,,
0.511979704503932,0.0913538819437003,0.000672594733558185,,
0.513919021566447,0.0954929938907981,0.000854019763391722,,
0.515858338628962,0.0996124867039828,0.00105302481121905,,
0.517797655691477,0.103596792493148,0.0012058531797523,,
0.519736972753992,0.107733300736793,0.00137834017822325,,
0.521676289816506,0.111717789241991,0.00155677326662129,,
0.523615606879021,0.11567688021877,0.00174188310853918,,
0.525554923941536,0.119746697110812,0.00190812167352794,,
0.527494241004051,0.12366485969647,0.0020914426494083,,
0.529433558066566,0.127611525983088,0.00226954190013018,,
0.531372875129081,0.131404733642507,0.0024366434040175,,
0.533312192191596,0.135326162277234,0.00262347282490749,,
0.535251509254111,0.139170302030514,0.00279887617892571,,
0.537190826316626,0.143002428204704,0.00295753095972806,,
0.539130143379141,0.146632972916825,0.00315014899994326,,
0.541069460441655,0.150403158356239,0.00330094284829974,,
0.54300877750417,0.15411377836929,0.00346335172825096,,
0.544948094566685,0.15765223420139,0.003653525824725,,
0.5468874116292,0.161381102978116,0.00380283315059993,,
0.548826728691715,0.164903708194458,0.00398950510088847,,
0.55076604575423,0.168484005997836,0.00415684596009047,,
0.552705362816745,0.171896410607506,0.00432208301205117,,
0.55464467987926,0.175310825093525,0.00446504742208287,,
0.556583996941775,0.178946874126103,0.00463965082544293,,
0.55852331400429,0.18236857441389,0.00479757494265298,,
0.560462631066804,0.185465085844103,0.00498829703682135,,
0.562401948129319,0.188851750332794,0.0051307512421026,,
0.564341265191834,0.191994443240041,0.00528570231434911,,
0.566280582254349,0.195079603436779,0.00546086001422808,,
0.568219899316864,0.198231637701151,0.00560326382891718,,
0.570159216379379,0.201488185535706,0.00577045981516511,,
0.572098533441894,0.204448733398764,0.00593894706034881,,
0.574037850504409,0.207550520754394,0.00607015786465626,,
0.575977167566924,0.210459177264425,0.00623277460580196,,
0.577916484629438,0.213410589325894,0.00637252661555499,,
0.579855801691953,0.216215097697805,0.00651755074105909,,
0.581795118754468,0.218856623369362,0.00666232291360025,,
0.583734435816983,0.221789763827652,0.00684258895980383,,
0.585673752879498,0.224497980850812,0.00696433893035087,,
0.587613069942013,0.226989679376302,0.00710373820595578,,
0.589552387004528,0.229689126029936,0.00723034456986449,,
0.591491704067043,0.232092572712073,0.00738126439470266,,
0.593431021129558,0.234821071214761,0.00753986878491242,,
0.595370338192073,0.237088942601312,0.00764385607156726,,
0.597309655254587,0.239412542377558,0.00779180285144232,,
0.599248972317102,0.241802650789374,0.00791528499860972,,
0.601188289379617,0.243963450581297,0.00804660288292647,,
0.603127606442132,0.24635721331375,0.00818807447165204,,
0.605066923504647,0.248325064976105,0.00830775212907797,,
0.607006240567162,0.250286521577347,0.00841460538068706,,
0.608945557629677,0.252651232460746,0.00855518883521844,,
0.610884874692192,0.254415538463689,0.00867461453968144,,
0.612824191754707,0.25626444198935,0.00879726524207092,,
0.614763508817221,0.258193740568998,0.00888441577197296,,
0.616702825879736,0.260073705820063,0.00901435421381747,,
0.618642142942251,0.261712851341232,0.00912717875064972,,
0.620581460004766,0.263340303036366,0.00924734141752959,,
0.622520777067281,0.264795453513524,0.00935016342173078,,
0.624460094129796,0.266351828672293,0.00944454500167113,,
0.626399411192311,0.267912406299793,0.00955089434735434,,
0.628338728254826,0.269449230843161,0.00963755986780335,,
0.630278045317341,0.27072257886869,0.00972906918396577,,
0.632217362379855,0.272112317006468,0.00984925074731757,,
0.63415667944237,0.273160924312899,0.00992778448588538,,
0.636095996504885,0.274421299500171,0.010015035796973,,
0.6380353135674,0.275398099406109,0.0101032445293199,,
0.639974630629915,0.276591417809715,0.0102050335263728,,
0.64191394769243,0.27749531401897,0.0102807957823474,,
0.643853264754945,0.278272953450259,0.0103702894748059,,
0.64579258181746,0.279234953357622,0.0104236027217772,,
0.647731898879975,0.28014433104783,0.0104966627822236,,
0.64967121594249,0.280720800128121,0.0105908679950901,,
