Time domain (s),Current (AC) (A),Potential (AC) (V),Frequency (Hz),Column 5
0,-0.334766191719465,-0.0108831300783043,7.9433,0.5
0.000307354153815165,-0.329865296834338,-0.0108000709993994,,
0.00061470830763033,-0.324837359526519,-0.0106783325854973,,
0.000922062461445495,-0.319947428770299,-0.0105857130991929,,
0.00122941661526066,-0.314635485155631,-0.0104849410298713,,
0.00153677076907582,-0.309304796417347,-0.010414173537669,,
0.00184412492289099,-0.304112467912239,-0.0103147350619901,,
0.00215147907670615,-0.298767066020325,-0.0102014359153428,,
0.00245883323052132,-0.293519280243842,-0.0101008686204773,,
0.00276618738433648,-0.287995410627849,-0.0100013866302269,,
0.00307354153815165,-0.282345771842844,-0.00988493395696199,,
0.00338089569196681,-0.27690416856181,-0.00980931075047886,,
0.00368824984578198,-0.271140290627226,-0.00970516246231945,,
0.00399560399959714,-0.265556931769872,-0.0095550013539687,,
0.00430295815341231,-0.259875107961302,-0.00945450061080155,,
0.00461031230722747,-0.253849505659259,-0.00933312567155786,,
0.00491766646104264,-0.247888980767503,-0.00918335619435373,,
0.0052250206148578,-0.241839611063443,-0.00908125309107044,,
0.00553237476867297,-0.235808420592473,-0.0089605027139168,,
0.00583972892248813,-0.229940913955638,-0.00884209956396154,,
0.0061470830763033,-0.223650474888254,-0.00870311914089106,,
0.00645443723011846,-0.217590706945811,-0.00856540831944574,,
0.00676179138393363,-0.21141761942589,-0.00842618216702817,,
0.00706914553774879,-0.204867436607882,-0.00829105150372467,,
0.00737649969156396,-0.198619722275078,-0.00817234375176623,,
0.00768385384537912,-0.192347108759207,-0.00803440511873887,,
0.00799120799919429,-0.185689406741595,-0.0078702399973003,,
0.00829856215300945,-0.179338205179172,-0.00772671358131394,,
0.00860591630682462,-0.172782292719606,-0.00759737803510552,,
0.00891327046063978,-0.166239183533152,-0.00743323083143199,,
0.00922062461445495,-0.159710858236643,-0.00728970185576472,,
0.00952797876827011,-0.153010360748136,-0.00714791858233177,,
0.00983533292208528,-0.146399627644035,-0.00699595545877107,,
0.0101426870759004,-0.139673523609306,-0.00683609060090173,,
0.0104500412297156,-0.132821084515042,-0.00668426570009872,,
0.0107573953835308,-0.125940421630882,-0.00651518343204316,,
0.0110647495373459,-0.11923794352554,-0.00635800111954321,,
0.0113721036911611,-0.112461475234155,-0.00618160840341941,,
0.0116794578449763,-0.105538087615415,-0.0060243185843305,,
0.0119868119987914,-0.0986876998743016,-0.00589072628912479,,
0.0122941661526066,-0.0917917579459872,-0.00571392402409021,,
0.0126015203064218,-0.0847753520723265,-0.00554664633092505,,
0.0129088744602369,-0.0778524596077954,-0.00537082698327751,,
0.0132162286140521,-0.070830607037839,-0.00518390374077082,,
0.0135235827678673,-0.0638613115503208,-0.00504392248254826,,
0.0138309369216824,-0.0568890451375503,-0.00486886336006709,,
0.0141382910754976,-0.0498872816812042,-0.00469750553587289,,
0.0144456452293128,-0.0428045958798926,-0.00452627313603271,,
0.0147529993831279,-0.0357572782363456,-0.00433663151262653,,
0.0150603535369431,-0.0286786244050192,-0.00415184560350079,,
0.0153677076907582,-0.0216074686231388,-0.00398496978020502,,
0.0156750618445734,-0.0145607168701161,-0.0037798088127392,,
0.0159824159983886,-0.00750059595345833,-0.00363892398723076,,
0.0162897701522037,-0.000416283216889569,-0.00347608734007343,,
0.0165971243060189,0.00663980572978303,-0.00325957930808185,,
0.0169044784598341,0.0137635185941016,-0.00308267465581924,,
0.0172118326136492,0.0208323400775694,-0.00290186137113402,,
0.0175191867674644,0.0278830530642618,-0.00272856074929129,,
0.0178265409212796,0.0349456497519631,-0.00253424770861477,,
0.0181338950750947,0.0420105100017613,-0.00234184163005713,,
0.0184412492289099,0.0490589594263568,-0.00217654768943154,,
0.0187486033827251,0.0559823470450965,-0.00197638065900385,,
0.0190559575365402,0.0630172150971103,-0.00179888216081947,,
0.0193633116903554,0.0700504208457092,-0.00161874207215718,,
0.0196706658441706,0.0770521489338976,-0.00143786735513496,,
0.0199780199979857,0.0838533041994028,-0.00124979737567621,,
0.0202853741518009,0.0909487579056675,-0.00106191937226985,,
0.0205927283056161,0.0978480951771273,-0.000884441351531429,,
0.0209000824594312,0.104809362092833,-0.000686322065659883,,
0.0212074366132464,0.11160938557729,-0.000461233983975795,,
0.0215147907670615,0.118413653240678,-0.000314738338381471,,
0.0218221449208767,0.12523970768925,-0.000158024447449279,,
0.0221294990746919,0.132073932182265,7.67853015188891E-05,,
0.022436853228507,0.138790239237293,0.000274397770612111,,
0.0227442073823222,0.145571305389188,0.000446674520176327,,
0.0230515615361374,0.152118941699836,0.000600055706842628,,
0.0233589156899525,0.158810880094164,0.000804313107023003,,
0.0236662698437677,0.165437458132943,0.00101062337112134,,
0.0239736239975829,0.172005466502464,0.00117986433938011,,
0.024280978151398,0.178586773299304,0.00136533368325198,,
0.0245883323052132,0.185017553216699,0.00157860115948205,,
0.0248956864590284,0.19153919393139,0.00174652133250142,,
0.0252030406128435,0.197847953704496,0.00194844942324846,,
0.0255103947666587,0.204271695358495,0.0021186374733646,,
0.0258177489204739,0.210600049091003,0.00228802690310381,,
0.026125103074289,0.216843483876718,0.00246476773580229,,
0.0264324572281042,0.222973528348639,0.00266091606753749,,
0.0267398113819193,0.22903223524635,0.00283037204897463,,
0.0270471655357345,0.235237507789837,0.00302130887081287,,
0.0273545196895497,0.241278389136034,0.00319038601950705,,
0.0276618738433648,0.247167930135156,0.00340185659988856,,
0.02796922799718,0.253064474029515,0.00357061122881541,,
0.0282765821509952,0.259102808868353,0.00375503110360143,,
0.0285839363048103,0.264818020217854,0.00390480314048647,,
0.0288912904586255,0.270728746743477,0.00409309325248497,,
0.0291986446124407,0.276121683439426,0.00429240023019917,,
0.0295059987662558,0.281909010462608,0.00446660697900825,,
0.029813352920071,0.287296606566735,0.00463355447336333,,
0.0301207070738862,0.292766256796876,0.00480564692591745,,
0.0304280612277013,0.298232723892818,0.00496299561766245,,
0.0307354153815165,0.303517292553376,0.00514886939108417,,
0.0310427695353317,0.308909380413539,0.00531148078634036,,
0.0313501236891468,0.313859224829013,0.00549716514339016,,
0.031657477842962,0.319196704253587,0.0056456522205659,,
0.0319648319967772,0.324144285106964,0.0058284953320431,,
0.0322721861505923,0.328777796719391,0.00598161031191724,,
0.0325795403044075,0.333810544096665,0.00615214135924669,,
0.0328868944582226,0.338615237592673,0.00630805662980238,,
0.0331942486120378,0.343526318507237,0.00645039535394609,,
0.033501602765853,0.348021186941227,0.00664884227894635,,
0.0338089569196681,0.352519450718363,0.00679515362753014,,
0.0341163110734833,0.357173334389662,0.00694257075817495,,
0.0344236652272985,0.361262459317777,0.00707977476284238,,
0.0347310193811136,0.365761006040174,0.0072489542987646,,
0.0350383735349288,0.369940390506904,0.00739114968078924,,
0.035345727688744,0.374223049994306,0.00756248446785746,,
0.0356530818425591,0.378106190771599,0.00766866002312794,,
0.0359604359963743,0.382026114432967,0.00786505920357117,,
0.0362677901501895,0.385796642995938,0.00799674965601982,,
0.0365751443040046,0.389724489124645,0.00814066514347234,,
0.0368824984578198,0.393546796670583,0.00827196652445483,,
0.037189852611635,0.39689177555933,0.00838461295252468,,
0.0374972067654501,0.40044839750414,0.00853185090552078,,
0.0378045609192653,0.403706229252154,0.00866329050926096,,
0.0381119150730805,0.407331889840921,0.00879670618649842,,
0.0384192692268956,0.410101923957046,0.00893879406193365,,
0.0387266233807108,0.413483685729868,0.00904972038457608,,
0.0390339775345259,0.4163963242581,0.00918759502558597,,
0.0393413316883411,0.419489764808824,0.00932456865899089,,
0.0396486858421563,0.422478515612566,0.00942070514657178,,
0.0399560399959714,0.425094061615575,0.00954434796291181,,
0.0402633941497866,0.427595014787427,0.00965410707115666,,
0.0405707483036018,0.430086064875104,0.00975363257597905,,
0.0408781024574169,0.432559572356531,0.00989906339440338,,
0.0411854566112321,0.435170308290084,0.00999575789237594,,
0.0414928107650473,0.437040576472677,0.0101246224573357,,
0.0418001649188624,0.439407413590285,0.0102210917034071,,
0.0421075190726776,0.441445468313314,0.0103056635536034,,
0.0424148732264928,0.44319859715739,0.0104204396360124,,
0.0427222273803079,0.444967570936146,0.0105005422837134,,
0.0430295815341231,0.44665222702679,0.0105700478533328,,
0.0433369356879383,0.448237003439907,0.0107003458394828,,
0.0436442898417534,0.449917981242144,0.0107911837880224,,
0.0439516439955686,0.450909704385864,0.0108780235153154,,
0.0442589981493837,0.452399128245647,0.0109714467413582,,
0.0445663523031989,0.453289839930792,0.0110427901617176,,
0.0448737064570141,0.454382857478349,0.0111164270559803,,
0.0451810606108293,0.455711285483988,0.0111866083813035,,
0.0454884147646444,0.45619936606114,0.0112557146407344,,
0.0457957689184596,0.457201558179558,0.0113385510274187,,
0.0461031230722747,0.457904111265395,0.0114436822329655,,
0.0464104772260899,0.458460664595979,0.0114463852557805,,
0.0467178313799051,0.458786617537938,0.0115187474290566,,
0.0470251855337202,0.458981283878274,0.0115960139505464,,
0.0473325396875354,0.459379387862073,0.0116638096534607,,
0.0476398938413506,0.459551984471964,0.0117297316701057,,
0.0479472479951657,0.45954745734777,0.0117319585923115,,
0.0482546021489809,0.45951803104051,0.0118145850851787,,
0.0485619563027961,0.459050605467493,0.0118749935496045,,
0.0488693104566112,0.458624206957483,0.0119230131594614,,
0.0491766646104264,0.458203750297977,0.0119405008979769,,
0.0494840187642416,0.457861952421339,0.0119746367997386,,
0.0497913729180567,0.457093756034692,0.0120189909468391,,
0.0500987270718719,0.456489950845334,0.0120430724228271,,
0.0504060812256871,0.45579701789841,0.0120869351112343,,
0.0507134353795022,0.454794825779992,0.0120920288758191,,
0.0510207895333174,0.453291820547626,0.012137473446896,,
0.0513281436871325,0.452444399487586,0.0121819299812245,,
0.0516354978409477,0.451211606980543,0.0121820118910065,,
0.0519428519947629,0.449707187021867,0.0121817866391054,,
0.052250206148578,0.448281991736584,0.0122199310008373,,
0.0525575603023932,0.446789738424179,0.0122308250018799,,
0.0528649144562084,0.444930505106808,0.0122320997228664,,
0.0531722686100235,0.443410806103978,0.012224441158224,,
0.0534796227638387,0.44120836018366,0.0122335075472493,,
0.0537869769176539,0.439118809422926,0.0122083868408986,,
0.054094331071469,0.436710379351787,0.012232243064985,,
0.0544016852252842,0.434822851508204,0.0122182979245533,,
0.0547090393790994,0.432473274051585,0.0122239087446392,,
0.0550163935329145,0.430031456439516,0.0121995764199427,,
0.0553237476867297,0.42773309207534,0.0121586676030589,,
0.0556311018405449,0.424803476831381,0.0121798003268854,,
0.05593845599436,0.422555476723862,0.0121471746367341,,
0.0562458101481752,0.419385923897628,0.012097931499504,,
0.0565531643019904,0.416360390209811,0.0120946090339609,,
0.0568605184558055,0.413526976354972,0.0120681521742867,,
0.0571678726096207,0.410437779983179,0.0120107999686119,,
0.0574752267634358,0.406877762695223,0.0120170046346191,,
0.057782580917251,0.403863829763154,0.0119510672598899,,
0.0580899350710662,0.400326165150905,0.0119024947590023,,
0.0583972892248813,0.396854709729992,0.011868235992567,,
0.0587046433786965,0.39336061868811,0.0118163819810273,,
0.0590119975325117,0.389594617249334,0.0117759236679462,,
0.0593193516863268,0.385779100389686,0.0117192267405293,,
0.059626705840142,0.381865684469347,0.0116572363934333,,
0.0599340599939572,0.378046772266554,0.0115971350906912,,
0.0602414141477723,0.374097422297926,0.0115291294939595,,
0.0605487683015875,0.369809103905281,0.0114584208744128,,
0.0608561224554027,0.365761006040174,0.0114156639680667,,
0.0611634766092178,0.361031293038627,0.0113192766317778,,
0.061470830763033,0.357325275995419,0.0112706682953605,,
0.0617781849168482,0.352550291751933,0.0112135106254185,,
0.0620855390706633,0.347947055282553,0.0111414760912716,,
0.0623928932244785,0.343236865504092,0.0110182581819269,,
0.0627002473782936,0.338580152380171,0.0109782196564798,,
0.0630076015321088,0.333668788520345,0.0108615647684402,,
0.063314955685924,0.329030183893199,0.0107800440576336,,
0.0636223098397391,0.323848607308052,0.0106846601161772,,
0.0639296639935543,0.31891913495145,0.0105991258260394,,
0.0642370181473695,0.314009185817935,0.0104935441166907,,
0.0645443723011846,0.308749516340443,0.0103969724833912,,
0.0648517264549998,0.303346959505581,0.0103094518810334,,
0.065159080608815,0.297893755468801,0.0102106482061672,,
0.0654664347626301,0.292613148041913,0.0101057627299679,,
0.0657737889164453,0.287068552685469,0.00999459067797837,,
0.0660811430702605,0.28185044079335,0.00988034700915419,,
0.0663884972240756,0.276054908357566,0.00974286655897139,,
0.0666958513778908,0.27048994094225,0.00966119738668469,,
0.067003205531706,0.264744171504441,0.00952451043751745,,
0.0673105596855211,0.258828069018838,0.00943203429333206,,
0.0676179138393363,0.253003888375265,0.00928877408413786,,
0.0679252679931514,0.247100836739876,0.00917854399464479,,
0.0682326221469666,0.241137482395499,0.00905498308808728,,
0.0685399763007818,0.235113542396872,0.00894274620892821,,
0.068847330454597,0.22898017331812,0.0088024142744505,,
0.0691546846084121,0.222853842502764,0.00865559098972701,,
0.0694620387622273,0.216565101106953,0.00853856238830542,,
0.0697693929160425,0.210269286079588,0.00839362302857483,,
0.0700767470698576,0.204086366211809,0.00824935430518625,,
0.0703841012236728,0.19777131090662,0.00811109571207203,,
0.0706914553774879,0.191450632064347,0.00798957743070927,,
0.0709988095313031,0.184995483486253,0.00786264286499438,,
0.0713061636851183,0.178558443404935,0.0076888303070124,,
0.0716135178389334,0.17184447064832,0.00754587725950184,,
0.0719208719927486,0.165478202250688,0.00739022819573876,,
0.0722282261465638,0.158652996637903,0.00725788758439361,,
0.0725355803003789,0.152182604383812,0.0071222193881435,,
0.0728429344541941,0.145411441316092,0.00695547154888265,,
0.0731502886080093,0.138748646283762,0.00677975458846314,,
0.0734576427618244,0.131947455650099,0.00662709523175309,,
0.0737649969156396,0.125132754380169,0.00646720733675732,,
0.0740723510694548,0.118232285327661,0.00629781790701811,,
0.0743797052232699,0.111534122137567,0.0061705710602582,,
0.0746870593770851,0.104692505699579,0.00596989209369081,,
0.0749944135309003,0.0976777621293329,0.00582594077070864,,
0.0753017676847154,0.0908363932684493,0.00566172701533674,,
0.0756091218385306,0.0839033855107975,0.00549133419076497,,
0.0759164759923457,0.0769434979532447,0.00531624691179644,,
0.0762238301461609,0.0699010257473115,0.00513490377320691,,
0.0765311842999761,0.0628989793457032,0.00495820389539992,,
0.0768385384537912,0.0559529207378364,0.00480073233898137,,
0.0771458926076064,0.0489296534415693,0.0046400867784997,,
0.0774532467614216,0.041854890107597,0.00445910711456898,,
0.0777606009152367,0.0348330375376406,0.00426915832947916,,
0.0780679550690519,0.0277724214667741,0.00410644454699538,,
0.0783753092228671,0.0207664138314962,0.00393445448166885,,
0.0786826633766822,0.0136794838512528,0.00375908563782401,,
0.0789900175304974,0.0065891585278641,0.00358105472605486,,
0.0792973716843126,-0.000442314181004329,0.00340204601626004,,
0.0796047258381277,-0.00755980224955631,0.00319057031651715,,
0.0799120799919429,-0.0145936092568372,0.00302361770280069,,
0.0802194341457581,-0.021724042071131,0.00284474209640218,,
0.0805267882995732,-0.0287753209483476,0.0026636190903524,,
0.0808341424533884,-0.0358435765412913,0.00248608475663836,,
0.0811414966072035,-0.0429075879553031,0.00229357629085314,,
0.0814488507610187,-0.0500098677160163,0.00211421434512227,,
0.0817562049148339,-0.0569818511835247,0.00191306951666803,,
0.082063559068649,-0.0639041070212159,0.0017481646475086,,
0.0823709132224642,-0.0709242619195997,0.00156359631124214,,
0.0826782673762794,-0.0779582811358272,0.00136838482264157,,
0.0829856215300945,-0.084857618407287,0.0011781903082051,,
0.0832929756839097,-0.0918540059036529,0.000993729478527605,,
0.0836003298377249,-0.098778242358179,0.000791125632077172,,
0.08390768399154,-0.10577661047138,0.000629660973772594,,
0.0842150381453552,-0.112523440246559,0.000442563672978569,,
0.0845223922991704,-0.119346594506193,0.000254166054391103,,
0.0848297464529855,-0.126194506476263,6.97871344956802E-05,,
0.0851371006068007,-0.133042913600542,-0.000128803132623201,,
0.0854444547606159,-0.139829992339257,-0.000313857808222018,,
0.085751808914431,-0.146588918024391,-0.000492892114823729,,
0.0860591630682462,-0.153195689894822,-0.00069185353564416,,
0.0863665172220613,-0.159744528722835,-0.000868653240998274,,
0.0866738713758765,-0.166371036025298,-0.00106719999354565,,
0.0869812255296917,-0.173053000599137,-0.00124726073210635,,
0.0872885796835068,-0.17939076226161,-0.00146000347379394,,
0.087595933837322,-0.185917743568124,-0.00160696754095557,,
0.0879032879911372,-0.192466440923505,-0.00180627451866977,,
0.0882106421449523,-0.198831931221666,-0.00196550713540722,,
0.0885179962987675,-0.205116711383807,-0.00218846556275221,,
0.0888253504525827,-0.211308685499975,-0.00237046909896144,,
0.0891327046063978,-0.217631097381978,-0.00255288218408189,,
0.089440058760213,-0.22404546647417,-0.00272782100156999,,
0.0897474129140282,-0.230150010504343,-0.00291469816982426,,
0.0900547670678433,-0.236064415318374,-0.00309387581854503,,
0.0903621212216585,-0.242043614597429,-0.00326731978250683,,
0.0906694753754737,-0.248338863734269,-0.00345186252196639,,
0.0909768295292888,-0.254074447142642,-0.00362962722694293,,
0.091284183683104,-0.259758817458572,-0.00376907863126164,,
0.0915915378369192,-0.265612389041247,-0.00399478103631301,,
0.0918988919907343,-0.271357875533794,-0.00417105088776282,,
0.0922062461445495,-0.277137315457795,-0.00432080244720234,,
0.0925136002983647,-0.282485829747592,-0.00449594603914605,,
0.0928209544521798,-0.288175646759817,-0.00466011372026554,,
0.093128308605995,-0.29351503606491,-0.00483749191345684,,
0.0934356627598101,-0.299087925947566,-0.00500155464766783,,
0.0937430169136253,-0.304383812418609,-0.00520804920877627,,
0.0940503710674405,-0.309586044007891,-0.0053767219279206,,
0.0943577252212556,-0.314645671185067,-0.00552499911127891,,
0.0946650793750708,-0.319817061740778,-0.00567956287042692,,
0.094972433528886,-0.325127095474927,-0.00587061487789642,,
0.0952797876827011,-0.33024925355503,-0.006009024492172,,
0.0955871418365163,-0.334546626196063,-0.00617847535424776,,
0.0958944959903315,-0.339613256268475,-0.00635118213016872,,
0.0962018501441466,-0.344255326975082,-0.00651561601808082,,
0.0965092042979618,-0.349194702415857,-0.00669061626790546,,
0.096816558451777,-0.353475664231687,-0.00685034290301711,,
0.0971239126055921,-0.357843490242986,-0.00699876086881401,,
0.0974312667594073,-0.362147370625047,-0.0071274820916547,,
0.0977386209132225,-0.366779467511164,-0.00731118269616537,,
0.0980459750670376,-0.370976677529407,-0.00744433216661067,,
0.0983533292208528,-0.374864345430894,-0.00758325115734459,,
0.0986606833746679,-0.379119559227871,-0.00772415390061765,,
0.0989680375284831,-0.383067848151766,-0.00788789155537994,,
0.0992753916822983,-0.386886406672981,-0.00799891770556949,,
0.0995827458361134,-0.390444443344102,-0.00815686536259763,,
0.0998900999899286,-0.394433405649427,-0.00828994572166364,,
0.100197454143744,-0.39785074778896,-0.00842833229881279,,
0.100504808297559,-0.401165310062029,-0.00855633681105905,,
0.100812162451374,-0.404919074118219,-0.00868304868455372,,
0.101119516605189,-0.408198126760892,-0.00881376133897627,,
0.101426870759004,-0.411311939370489,-0.00893566357244291,,
0.10173422491282,-0.414304368462638,-0.00907107836030407,,
0.102041579066635,-0.417254992392309,-0.00922066610017858,,
0.10234893322045,-0.420544796954943,-0.00933025882917837,,
