Time domain (s),Current (AC) (A),Potential (AC) (V),Frequency (Hz),Column 5
0,0.0878041743098622,0.00219300362317076,0.050119,0.4
0.048712189987829,0.0933993106935331,0.00247677842280902,,
0.0974243799756579,0.0988990038298329,0.00278629608965542,,
0.146136569963487,0.104549338078019,0.00309270724755883,,
0.194848759951316,0.109994038983147,0.00340527504387467,,
0.243560949939145,0.11551300290131,0.00371010757654444,,
0.292273139926974,0.120919896647507,0.00400880602259068,,
0.340985329914803,0.126361278042953,0.00433167998650497,,
0.389697519902632,0.131835355139946,0.00462077137041383,,
0.438409709890461,0.137165165758688,0.00491734431034141,,
0.48712189987829,0.14253325355543,0.00521451487267965,,
0.535834089866119,0.147829134672567,0.00551725008896709,,
0.584546279853948,0.153092936988186,0.00580433436364958,,
0.633258469841777,0.158245991060472,0.00609301981535504,,
0.681970659829606,0.16342930261038,0.00641270833906527,,
0.730682849817434,0.168696365683297,0.00668471110481672,,
0.779395039805263,0.17381678280642,0.00700030647881356,,
0.828107229793092,0.178753569354193,0.00728578393852564,,
0.876819419780921,0.183870931353362,0.00758272334502585,,
0.92553160976875,0.188794410486219,0.00788114553165631,,
0.974243799756579,0.193840006448662,0.00815373464392311,,
1.02295598974441,0.198702383102438,0.00842674660223475,,
1.07166817973224,0.203525924430569,0.00870059297674164,,
1.12038036972007,0.208438828134354,0.0089735823832644,,
1.1690925597079,0.213156174528891,0.00925074387076208,,
1.21780474969572,0.21783638941691,0.00954344917886685,,
1.26651693968355,0.222429210134128,0.00980861311458714,,
1.31522912967138,0.227100200897901,0.0100851375140443,,
1.36394131965921,0.231607478144407,0.0103314256023248,,
1.41265350964704,0.236112140909837,0.0106007334292837,,
1.46136569963487,0.240344163238563,0.0108544636079526,,
1.5100778896227,0.244590109882233,0.011108357287092,,
1.55879007961053,0.249224027891872,0.0113581860062544,,
1.60750226959836,0.253659832863569,0.0116419100643674,,
1.65621445958619,0.257461817119575,0.0118657365707482,,
1.70492664957401,0.261794217895906,0.0121105982583707,,
1.75363883956184,0.265721227224492,0.0123321301202148,,
1.80235102954967,0.269649176591217,0.012603788971183,,
1.8510632195375,0.273985572529641,0.012827818443665,,
1.89977540952533,0.277584508547473,0.013078030543241,,
1.94848759951316,0.281576380507698,0.0133226497991314,,
1.99719978950099,0.285256394815079,0.0135269915597678,,
2.04591197948882,0.288899277615941,0.0137416112982662,,
2.09462416947665,0.292299160557692,0.013961451775931,,
2.14333635946447,0.296019596505079,0.0141935378750535,,
2.1920485494523,0.299620647608725,0.0143922811540564,,
2.24076073944013,0.303031105979547,0.0145922535055631,,
2.28947292942796,0.306411953148969,0.0148386712666304,,
2.33818511941579,0.309359207726455,0.0150375273045786,,
2.38689730940362,0.312657331539584,0.0152066262568678,,
2.43560949939145,0.315734781399418,0.0154192445240873,,
2.48432168937928,0.319050765937201,0.0156157157103434,,
2.53303387936711,0.321847379402801,0.01583079212257,,
2.58174606935494,0.32473893672051,0.0159859709830643,,
2.63045825934276,0.327640129429151,0.0161662725365668,,
2.67917044933059,0.330382925711253,0.0163745834120768,,
2.72788263931842,0.332989181453565,0.0165204483836909,,
2.77659482930625,0.335671815294726,0.016713424042643,,
2.82530701929408,0.338287471418434,0.016864988978941,,
2.87401920928191,0.340556723487664,0.0170410789858373,,
2.92273139926974,0.342816105156426,0.0171986088703404,,
2.97144358925757,0.344952341828889,0.0173584728650109,,
3.0201557792454,0.347438037679784,0.0174985645786268,,
3.06886796923322,0.349351485313138,0.0176680863769607,,
3.11758015922105,0.351425914477915,0.0177687350115172,,
3.16629234920888,0.353116808081696,0.0179289203691821,,
3.21500453919671,0.355507090061412,0.0180841443332542,,
3.26371672918454,0.356897641479559,0.018190814295489,,
3.31242891917237,0.358641647238233,0.0183078298909534,,
3.3611411091602,0.360031963646845,0.0184428136243477,,
3.40985329914803,0.361688545858527,0.0185435073624829,,
3.45856548913586,0.363068286838068,0.0186349266773682,,
3.50727767912369,0.36449150458157,0.0187876022892772,,
3.55598986911151,0.365800272681563,0.0188971137769332,,
3.60470205909934,0.367007751672005,0.0189854942382435,,
3.65341424908717,0.368138852563596,0.0191065522418961,,
3.702126439075,0.369191930289592,0.0191708699442836,,
3.75083862906283,0.369979212231588,0.0192936644356934,,
3.79955081905066,0.371001738718044,0.0193505851512707,,
3.84826300903849,0.371608063318149,0.0194273063376391,,
3.89697519902632,0.372373724382933,0.019510567542834,,
3.94568738901415,0.372616489232509,0.0195635360573791,,
3.99439957900198,0.373494249845452,0.0196461263468493,,
4.0431117689898,0.373668391910831,0.0197033853392625,,
4.09182395897763,0.374217609193949,0.0197626683547432,,
4.14053614896546,0.374179067630221,0.0197858966974711,,
4.18924833895329,0.374460844062596,0.0198989544539558,,
4.23796052894112,0.374451678690734,0.019896930430888,,
4.28667271892895,0.374374360553744,0.0199620092561563,,
4.33538490891678,0.374332528856527,0.0199807103272311,,
4.38409709890461,0.374213614031855,0.0200013001106392,,
4.43280928889244,0.373733489552005,0.0200090522881271,,
4.48152147888027,0.373007780108158,0.0200632893408068,,
4.53023366886809,0.372792511374168,0.0200579896703785,,
4.57894585885592,0.372284890778731,0.0201038825611075,,
4.62765804884375,0.371665170635136,0.0201061602918022,,
4.67637023883158,0.371000563670369,0.0200840595385272,,
4.72508242881941,0.370358047601886,0.0201059122221228,,
4.77379461880724,0.369409314109397,0.0200727610922105,,
4.82250680879507,0.368269517865014,0.0200675121633074,,
4.8712189987829,0.367087184894809,0.0200470295008977,,
4.91993118877073,0.36594997375531,0.0200340847739793,,
4.96864337875855,0.364936847650251,0.0200080825611977,,
5.01735556874638,0.363329852450439,0.0199752527942794,,
5.06606775873421,0.362182770910473,0.0199521372104972,,
5.11477994872204,0.360439235170869,0.0199377266172904,,
5.16349213870987,0.358771372501511,0.0198611351037092,,
5.2122043286977,0.357182943054957,0.0198107544069579,,
5.26091651868553,0.355222728524153,0.019758772533184,,
5.30962870867336,0.353296590375913,0.0197058434842696,,
5.35834089866119,0.351684894985402,0.0196544254052218,,
5.40705308864902,0.349754761675068,0.0195593921661401,,
5.45576527863684,0.347626045307723,0.0195053580795621,,
5.50447746862467,0.345168315591484,0.0194273288894284,,
5.5531896586125,0.343172849630442,0.019369212929031,,
5.60190184860033,0.340730160524438,0.0192725108575589,,
5.65061403858816,0.338336353401698,0.0191938953209099,,
5.69932622857599,0.335620818225647,0.0190800989933333,,
5.74803841856382,0.333304564249433,0.0190144056318133,,
5.79675060855165,0.330553777643143,0.0189189439087394,,
5.84546279853948,0.327813566465925,0.0188152789723963,,
5.8941749885273,0.325001207361486,0.0186956360935069,,
5.94288717851513,0.322350064798004,0.0185934764890834,,
5.99159936850296,0.319148294894195,0.0184845738997321,,
6.04031155849079,0.316276713386954,0.01832409536881,,
6.08902374847862,0.313063898035003,0.0182236271485654,,
6.13773593846645,0.309839567215841,0.0180883558798604,,
6.18644812845428,0.306686444285761,0.0179716560094429,,
6.23516031844211,0.303236504313071,0.017841081150809,,
6.28387250842994,0.299817115579922,0.0176919687215706,,
6.33258469841777,0.29645248406841,0.017531805915695,,
6.3812968884056,0.292759544236609,0.0174131835052607,,
6.43000907839342,0.289087520253416,0.0172235455110892,,
6.47872126838125,0.285409856041384,0.0170713491246977,,
6.52743345836908,0.281791649241689,0.0169255236187142,,
6.57614564835691,0.278143831240593,0.0167534309164283,,
6.62485783834474,0.274245258065733,0.0165720243252618,,
6.67357002833257,0.270220719780153,0.0164141561639228,,
6.7222822183204,0.266317446414595,0.0162186377907547,,
6.77099440830823,0.262256716660637,0.0160578660865744,,
6.81970659829606,0.258073781948518,0.0158574934408122,,
6.86841878828388,0.2539056528371,0.0156673367554925,,
6.91713097827171,0.24946068249354,0.0155025057292821,,
6.96584316825954,0.245510877240067,0.0153009378386999,,
7.01455535824737,0.240902310884008,0.015103310873255,,
7.0632675482352,0.236370445764911,0.0149013144986805,,
7.11197973822303,0.23202764581666,0.0147053225379423,,
7.16069192821086,0.227486115930439,0.0144624848733876,,
7.20940411819869,0.222936096324768,0.0142676599677332,,
7.25811630818652,0.218323799192343,0.0140383308248229,,
7.30682849817434,0.213566736186404,0.0138279620985613,,
7.35554068816217,0.208773481712087,0.0136224701966832,,
7.40425287815,0.204030519278243,0.0133699409007817,,
7.45296506813783,0.199073463158084,0.0131427992814097,,
7.50167725812566,0.194325565524007,0.0129320584506289,,
7.55038944811349,0.18928461099988,0.0127015340628991,,
7.59910163810132,0.184259872133662,0.0124608162665152,,
7.64781382808915,0.179342738258248,0.0121926924084814,,
7.69652601807698,0.174225905030532,0.0119703092166006,,
7.74523820806481,0.169138418618489,0.0117298845934748,,
7.79395039805264,0.164006515404346,0.0114923691511373,,
7.84266258804046,0.158754992336927,0.0112176488948048,,
7.89137477802829,0.153591127826034,0.0109583371483444,,
7.94008696801612,0.148278972298604,0.0107106282973537,,
7.98879915800395,0.142958121418381,0.010430360300913,,
8.03751134799178,0.13774278981934,0.0101898905742095,,
8.08622353797961,0.132453430216797,0.00991814151608494,,
8.13493572796744,0.126886994372579,0.00963935629977497,,
8.18364791795527,0.121442058457917,0.00937714101047371,,
8.2323601079431,0.116027203763725,0.00911200526448974,,
8.28107229793092,0.110541376189985,0.00884230278122189,,
8.32978448791875,0.104995386175306,0.00855842649853278,,
8.37849667790658,0.0995238941831967,0.00829874828550059,,
8.42720886789441,0.0939358374617654,0.00803479650844174,,
8.47592105788224,0.0883404954447514,0.00770738963492734,,
8.52463324787007,0.0826683053098172,0.0074428571493006,,
8.5733454378579,0.0771458162486297,0.00714490291229319,,
8.62205762784573,0.071462815675089,0.00687396571857457,,
8.67076981783356,0.0658740539250529,0.00655654928761162,,
8.71948200782139,0.0601301858819667,0.00626770033543522,,
8.76819419780921,0.054418984164235,0.00597755465538841,,
8.81690638779704,0.0486995277365891,0.00567806689672512,,
8.86561857778487,0.0430717837799474,0.00541328634141891,,
8.9143307677727,0.0373974785591988,0.0051129867183497,,
8.96304295776053,0.0315974432372657,0.00482840569225207,,
9.01175514774836,0.0258747260523228,0.00450083531826673,,
9.06046733773619,0.0201075920652791,0.00424120220881274,,
9.10917952772402,0.0143707743082406,0.0039152612015867,,
9.15789171771185,0.00861280569305898,0.00361352390196501,,
9.20660390769967,0.00278738934135405,0.00330843766166833,,
9.2553160976875,-0.00297386940731653,0.00304631821747048,,
9.30402828767533,-0.00873512815598711,0.00270357612739769,,
9.35274047766316,-0.0145022621430308,0.00238329561922512,,
9.40145266765099,-0.0202548255389092,0.00208624345377961,,
9.45016485763882,-0.0259855918004233,0.00177628602704694,,
9.49887704762665,-0.0317298711101956,0.00146827933006755,,
9.54758923761448,-0.0375192722506734,0.0011328665714383,,
9.59630142760231,-0.0432754195419594,0.000842309321241075,,
9.64501361759014,-0.0489791009545735,0.000535898163337212,,
9.69372580757796,-0.0546320203076439,0.000165186216888102,,
9.74243799756579,-0.0603801185223588,-7.98333332578949E-05,,
9.79115018755362,-0.0660310990467661,-0.000394608385927864,,
9.83986237754145,-0.0716633963131469,-0.000715432956011508,,
9.88857456752928,-0.0773259510571493,-0.00102915089356959,,
9.93728675751711,-0.0829180029406743,-0.00131528799311154,,
9.98599894750494,-0.0886080538002628,-0.00162578102483435,,
10.0347111374928,-0.0941385331856377,-0.00195769543718649,,
10.0834233274806,-0.0997033239631115,-0.00224144486606237,,
10.1321355174684,-0.10531024019972,-0.00255958013530178,,
10.1808477074563,-0.110821331298464,-0.00286276920634387,,
10.2295598974441,-0.116316676758368,-0.00318600399888291,,
10.2782720874319,-0.121798920436699,-0.00349485075000455,,
10.3269842774197,-0.127180638786467,-0.00379309816027007,,
10.3756964674076,-0.132487154085059,-0.00407787933349546,,
10.4244086573954,-0.137991312402522,-0.00440914538191217,,
10.4731208473832,-0.143245831841512,-0.00473328224601355,,
10.5218330373711,-0.148584837208308,-0.00500872979754341,,
10.5705452273589,-0.15398347624459,-0.00536096619080872,,
10.6192574173467,-0.15909469861966,-0.00563156510769147,,
10.6679696073345,-0.164393458603599,-0.0059195514539363,,
10.7166817973224,-0.169465199376802,-0.00622796972106565,,
10.7653939873102,-0.17451907942535,-0.00652770554940885,,
10.814106177298,-0.179679418793219,-0.00682394585044799,,
10.8628183672859,-0.184573492358019,-0.00715112720607225,,
10.9115305572737,-0.189483957837879,-0.00744813426793955,,
10.9602427472615,-0.194532785181427,-0.00772026670647774,,
11.0089549372493,-0.199300834883123,-0.00797512447459958,,
11.0576671272372,-0.204263531232121,-0.0083037688775387,,
11.106379317225,-0.209181869531402,-0.00856787287917316,,
11.1550915072128,-0.213815258769586,-0.00885847805192208,,
11.2038036972007,-0.218599759138728,-0.00912885145091424,,
11.2525158871885,-0.222970466469251,-0.00941927620935079,,
11.3012280771763,-0.22762911923244,-0.00971039443530097,,
11.3499402671641,-0.232400517820009,-0.00997652527897674,,
11.398652457152,-0.236808591666585,-0.0102588764969314,,
11.4473646471398,-0.241234291228281,-0.0105092239072415,,
11.4960768371276,-0.245548361260887,-0.0108158831348248,,
11.5447890271155,-0.249871361655821,-0.0110501539385122,,
11.5935012171033,-0.254183375354997,-0.0113475190100303,,
11.6422134070911,-0.25826214209076,-0.0115954110943073,,
11.690925597079,-0.262405595201011,-0.0118671827042212,,
11.7396377870668,-0.266661382868956,-0.0121095665140212,,
11.7883499770546,-0.270653019819647,-0.012314001300787,,
11.8370621670424,-0.274533027241248,-0.0126023231048942,,
11.8857743570303,-0.278468731922626,-0.0128924969746773,,
11.9344865470181,-0.282469005473725,-0.0131081625523932,,
11.9831987370059,-0.28600202131701,-0.0133721058725307,,
12.0319109269938,-0.289543791265471,-0.0135923917480296,,
12.0806231169816,-0.293224980620526,-0.0138477907590886,,
12.1293353069694,-0.296706646880431,-0.0140829833671532,,
12.1780474969572,-0.300372090596646,-0.014296751775615,,
12.2267596869451,-0.303763983214209,-0.0145424084138019,,
12.2754718769329,-0.307088663104784,-0.0147892377450196,,
12.3241840669207,-0.310414048023963,-0.0149717493738493,,
12.3728962569086,-0.313598368469805,-0.0151715807766744,,
12.4216084468964,-0.316745968675814,-0.0153907390627204,,
12.4703206368842,-0.319739226369762,-0.0156087472075246,,
12.519032826872,-0.32279012015215,-0.0158162433996552,,
12.5677450168599,-0.325619869962174,-0.0159989861843228,,
12.6164572068477,-0.328431465285625,-0.0162455646268871,,
12.6651693968355,-0.33093196673722,-0.0164503799750935,,
12.7138815868234,-0.333854604065923,-0.0166173280505015,,
12.7625937768112,-0.336503866553126,-0.016811118392833,,
12.811305966799,-0.33877429367003,-0.0169706300157997,,
12.8600181567868,-0.341154470239744,-0.0171464860478845,,
12.9087303467747,-0.343326428361515,-0.0173030603003266,,
12.9574425367625,-0.345906304283531,-0.0174892957933244,,
13.0061547267503,-0.348178258962412,-0.0176981056271672,,
13.0548669167382,-0.350235238669221,-0.0178518383541881,,
13.103579106726,-0.35222717948724,-0.0180246047911727,,
13.1522912967138,-0.354118301214776,-0.0181667289847769,,
13.2010034867017,-0.356204245846765,-0.0183223137774742,,
13.2497156766895,-0.357729633985575,-0.0184427882535849,,
13.2984278666773,-0.35940343064569,-0.018577735340322,,
13.3471400566651,-0.361007781988235,-0.0187469865171872,,
13.395852246653,-0.362604730530429,-0.0188509502647354,,
13.4445644366408,-0.363887236314895,-0.0189789091158388,,
13.4932766266286,-0.365322380792295,-0.0190933819970871,,
13.5419888166165,-0.36637780861364,-0.0192282191438529,,
13.5907010066043,-0.367848498283197,-0.0193674764412735,,
13.6394131965921,-0.368744824649398,-0.0194480990871484,,
13.6881253865799,-0.369741265077477,-0.0195607903770614,,
13.7368375765678,-0.370908322427912,-0.0196497318141242,,
13.7855497665556,-0.371622927671233,-0.0197389748813661,,
13.8342619565434,-0.372158338144174,-0.0198297909358947,,
13.8829741465313,-0.372627652185418,-0.0199374954614524,,
13.9316863365191,-0.373575210630233,-0.0199904470621557,,
13.9803985265069,-0.373767448429801,-0.0200766399999277,,
14.0291107164947,-0.374108212255442,-0.0201580068548415,,
14.0778229064826,-0.374481113634983,-0.0202105750751311,,
14.1265350964704,-0.374649439214373,-0.020254100028009,,
14.1752472864582,-0.374718297008105,-0.0203453417475559,,
14.2239594764461,-0.375047310356999,-0.0203807283235586,,
14.2726716664339,-0.37458058142064,-0.0204201262990393,,
14.3213838564217,-0.374818117308064,-0.0204579005457082,,
14.3700960464095,-0.374453852528932,-0.0205029590202419,,
14.4188082363974,-0.374333057627981,-0.0205215642462129,,
14.4675204263852,-0.373938006599773,-0.0205599953137381,,
14.516232616373,-0.373151018419695,-0.0205866712612175,,
14.5649448063609,-0.372924939247098,-0.0205937750747704,,
14.6136569963487,-0.37218865437418,-0.0206190105267239,,
14.6623691863365,-0.371200850546509,-0.0206136009163242,,
14.7110813763243,-0.370546407744128,-0.0206171612800214,,
14.7597935663122,-0.369345509020665,-0.0206147961611443,,
14.8085057563,-0.368409936062131,-0.0206020318485383,,
14.8572179462878,-0.367526593972734,-0.0206013073723148,,
14.9059301362757,-0.366194266166864,-0.0205510619862981,,
14.9546423262635,-0.36494942066037,-0.0205305173064683,,
15.0033545162513,-0.36317791878611,-0.0204936479503353,,
15.0520667062392,-0.362190643729893,-0.0204618048241882,,
15.100778896227,-0.36071308003144,-0.0204117793181151,,
15.1494910862148,-0.359271825306132,-0.020369655395132,,
15.1982032762026,-0.357266018925553,-0.0203067330846922,,
15.2469154661905,-0.355373957159877,-0.0202544129340825,,
15.2956276561783,-0.353719255024474,-0.0201710192371269,,
15.3443398461661,-0.351484314347344,-0.0201487380695395,,
15.393052036154,-0.349355891741918,-0.0201068368454735,,
15.4417642261418,-0.347467766385952,-0.0199808400000179,,
15.4904764161296,-0.345235880832775,-0.0199341577966718,,
15.5391886061174,-0.34296686377308,-0.019838428271103,,
15.5879007961053,-0.340413250166592,-0.019732206525676,,
15.6366129860931,-0.33802790338711,-0.0196367419836281,,
15.6853251760809,-0.335388041281305,-0.019538982797044,,
15.7340373660688,-0.333194932301391,-0.0194531957914754,,
15.7827495560566,-0.330487622459062,-0.0193405270533513,,
15.8314617460444,-0.327557229815707,-0.0192093883999909,,
15.8801739360322,-0.324945627606476,-0.0191173545488534,,
15.9288861260201,-0.321742447645457,-0.0190232233813341,,
15.9775983160079,-0.318619405935847,-0.0188654510650985,,
16.0263105059957,-0.315621565555969,-0.0187401307733142,,
16.0750226959836,-0.312591646374573,-0.0185750742292137,,
16.1237348859714,-0.309534583591893,-0.0184613455570042,,
16.1724470759592,-0.305972132804358,-0.0183151648603435,,
16.221159265947,-0.302666312428961,-0.0181648769191005,,
16.2698714559349,-0.299495211269459,-0.0179983996122894,,
16.3185836459227,-0.295864137697727,-0.0178275275255859,,
16.3672958359105,-0.292088239500097,-0.0176610051151966,,
16.4160080258984,-0.288619792526532,-0.0175282427330243,,
16.4647202158862,-0.284943068352641,-0.0173259278144293,,
16.513432405874,-0.281031980920046,-0.0171557548331864,,
16.5621445958618,-0.277369122308715,-0.0169932917448272,,
16.6108567858497,-0.273466553971761,-0.0167764111894759,,
16.6595689758375,-0.26932609723308,-0.0166176212237592,,
16.7082811658253,-0.265386691151527,-0.0164155149092133,,
16.7569933558132,-0.261117742949626,-0.0162117369433035,,
16.805705545801,-0.257077694034741,-0.0160368055345699,,
16.8544177357888,-0.252996988470315,-0.015832551162116,,
16.9031299257767,-0.248377406042307,-0.0156360348722822,,
16.9518421157645,-0.24421985235996,-0.0154067733847394,,
