Time domain (s),Current (AC) (A),Potential (AC) (V),Frequency (Hz),Column 5
0,-0.433199594539439,-0.00790509220593805,316.23,0.5
9.88204787654555E-05,-0.395974467019547,-0.00744088440535862,,
0.000197640957530911,-0.343520376656733,-0.00673317720145006,,
0.000296461436296367,-0.277977026259442,-0.00575171094274962,,
0.000395281915061822,-0.201574944065259,-0.00454856762197764,,
0.000494102393827278,-0.117624518904634,-0.00312934701174772,,
0.000592922872592733,-0.0291577214700987,-0.00161186511037714,,
0.000691743351358189,0.0601963923064354,-8.58363677984642E-05,,
0.000790563830123644,0.148230849380456,0.00150681631979133,,
0.0008893843088891,0.230283808245166,0.00304658606918995,,
0.000988204787654555,0.303095562640191,0.00445396363953998,,
0.00108702526642001,0.363875034395533,0.00570341119253515,,
0.00118584574518547,0.410909591207759,0.00668463100647498,,
0.00128466622395092,0.4424393135465,0.00747809756419482,,
0.00138348670271638,0.456562526305067,0.00796333702909191,,
0.00148230718148183,0.453518601175213,0.00812203376347975,,
0.00158112766024729,0.432650822203564,0.00796087258148726,,
0.00167994813901274,0.39582662812009,0.00750810905947397,,
0.0017787686177782,0.343810819968296,0.00679565779392499,,
0.00187758909654365,0.278439146608795,0.00577077276040594,,
0.00197640957530911,0.202168421752549,0.00454842043969039,,
0.00207523005407457,0.118183477269946,0.00313386516569025,,
0.00217405053284002,0.0298080711550745,0.00164097468628954,,
0.00227287101160548,-0.0598125770583737,7.18472047962493E-05,,
0.00237169149037093,-0.148064123884754,-0.00152044779560612,,
0.00247051196913639,-0.229947280224036,-0.003038285672742,,
0.00256933244790184,-0.30264575040974,-0.00443633941632005,,
0.0026681529266673,-0.364244985325751,-0.00565350270568965,,
0.00276697340543275,-0.411254077064386,-0.00667638537552984,,
0.00286579388419821,-0.442482745644235,-0.00740991622521081,,
0.00296461436296367,-0.456942946209984,-0.00790640486657201,,
0.00306343484172912,-0.453761792628003,-0.00808091513975873,,
0.00316225532049458,-0.433429063147016,-0.00793992135400012,,
0.00326107579926003,-0.396090757522277,-0.00749744347789427,,
0.00335989627802549,-0.343378055189888,-0.00674923718500908,,
0.00345871675679094,-0.27804351839604,-0.0057392244082175,,
0.0035575372355564,-0.201720943820511,-0.00454619901400166,,
0.00365635771432185,-0.11747965093043,-0.00315125321268139,,
0.00375517819308731,-0.02908839988088,-0.00162778646875861,,
0.00385399867185277,0.0602442100557331,-0.000104153716907085,,
0.00395281915061822,0.148337555112432,0.00148756624572099,,
0.00405163962938368,0.230031986961882,0.00301624255805288,,
0.00415046010814913,0.302929190826066,0.00443234495749367,,
0.00424928058691459,0.363989344281429,0.00568710134137174,,
0.00434810106568004,0.410891765656246,0.00670304590663484,,
0.0044469215444455,0.441916996592632,0.00743805371345729,,
0.00454574202321095,0.456284674057668,0.00791640299359209,,
0.00464456250197641,0.45328432249818,0.00812510063161076,,
0.00474338298074187,0.432916224859429,0.00793244928577597,,
0.00484220345950732,0.395720806592059,0.00749084765770691,,
0.00494102393827278,0.343676703914053,0.00677785558282284,,
0.00503984441703823,0.278381425775323,0.0057614626250091,,
0.00513866489580369,0.202240006903864,0.00457172316093368,,
0.00523748537456914,0.118199605149887,0.00315907441098329,,
0.0053363058533346,0.0298525289293846,0.00165833535052951,,
0.00543512633210005,-0.0598219142520236,8.39093066851149E-05,,
0.00553394681086551,-0.148126866996628,-0.0015254982017745,,
0.00563276728963096,-0.230027070787953,-0.00302493658154823,,
0.00573158776839642,-0.302768902335077,-0.00444445840204111,,
0.00583040824716188,-0.363828489899915,-0.005662881297964,,
0.00592922872592733,-0.411301045977898,-0.00668292985305863,,
0.00602804920469279,-0.442409462821346,-0.00742679597988349,,
0.00612686968345824,-0.456839671189311,-0.00788107582174247,,
0.0062256901622237,-0.453597613639659,-0.00806308896874919,,
0.00632451064098915,-0.433155455078549,-0.00794176968970417,,
0.00642333111975461,-0.39609528464647,-0.0074728263845949,,
0.00652215159852006,-0.343539546198241,-0.00673769535539259,,
0.00662097207728552,-0.277824448026846,-0.00578009316433414,,
0.00671979255605098,-0.201499680625535,-0.00453204213164859,,
0.00681861303481643,-0.117541262261256,-0.00315479927895712,,
0.00691743351358189,-0.0292276089498416,-0.00165544304743737,,
0.00701625399234734,0.0602563767020042,-8.64781510290236E-05,,
0.0071150744711128,0.148272442333987,0.00148960283783905,,
0.00721389494987825,0.230187925169467,0.00302437865799332,,
0.00731271542864371,0.303026806941496,0.00443598686339897,,
0.00741153590740916,0.363836270894623,0.00567477910334624,,
0.00751035638617462,0.410997021293753,0.00668847828301411,,
0.00760917686494007,0.441998767773383,0.00743378200427491,,
0.00770799734370553,0.456505088416858,0.00790991328156565,,
0.00780681782247099,0.453158411856538,0.00810390638220726,,
0.00790563830123644,0.432904907048945,0.00792803039430634,,
0.0080044587800019,0.395714864741554,0.00747389773473461,,
0.00810327925876735,0.343568618823924,0.00674419875879462,,
0.00820209973753281,0.278355147234104,0.00573582894707325,,
0.00830092021629826,0.202063166115041,0.00453865848889956,,
0.00839974069506372,0.118042853474674,0.00312802237116028,,
0.00849856117382918,0.0299187027525622,0.00165921502141053,,
0.00859738165259463,-0.0597520267722807,9.45475055136313E-05,,
0.00869620213136009,-0.148153746796529,-0.00152998897296586,,
0.00879502261012554,-0.230079981551969,-0.00304114717023918,,
0.008893843088891,-0.302993277927935,-0.00444544418108306,,
0.00899266356765645,-0.364270733344604,-0.00567881805914316,,
0.00909148404642191,-0.410918221038253,-0.0066898422863062,,
0.00919030452518736,-0.442488404549477,-0.00744321365062994,,
0.00928912500395282,-0.45701736081392,-0.00792613585020963,,
0.00938794548271828,-0.453783791622132,-0.00807751967861403,,
0.00948676596148373,-0.433423687187036,-0.00795196976451384,,
0.00958558644024919,-0.395910238445046,-0.00750164673019826,,
0.00968440691901464,-0.343586585848068,-0.00674462319143743,,
0.0097832273977801,-0.277876792900337,-0.00576982463264653,,
0.00988204787654555,-0.201743933123058,-0.0045550299512529,,
0.00998086835531101,-0.117560856220658,-0.00316490351413767,,
0.0100796888340765,-0.0291506478385458,-0.00164173969189996,,
0.0101785093128419,0.0602215744347638,-8.78353086335437E-05,,
0.0102773297916074,0.148267349319269,0.00152817144285766,,
0.0103761502703728,0.230284374135691,0.00301625624942847,,
0.0104749707491383,0.302794508881298,0.00444940783431491,,
0.0105737912279037,0.36391068549856,0.00567152397880166,,
0.0106726117066692,0.410926567923486,0.00668486375985999,,
0.0107714321854347,0.441943027556746,0.00743425777957674,,
0.0108702526642001,0.456388797914128,0.00791699172274196,,
0.0109690731429656,0.453221791595252,0.00811009488397119,,
0.011067893621731,0.432779279352565,0.00796393944961782,,
0.0111667141004965,0.395830872299022,0.00750322466123432,,
0.0112655345792619,0.343664820213044,0.00677151647592744,,
0.0113643550580274,0.278229802482986,0.00580813310152939,,
0.0114631755367928,0.202047038235101,0.00454588753520735,,
0.0115619960155583,0.118026973171838,0.00314536934402421,,
0.0116608164943238,0.0297715712162614,0.00164239858935034,,
0.0117596369730892,-0.0598190847994024,7.46128626643028E-05,,
0.0118584574518547,-0.147943518466776,-0.00149968995879979,,
0.0119572779306201,-0.229884183430584,-0.00302503242117735,,
0.0120560984093856,-0.302798328642337,-0.00443722935573287,,
0.012154918888151,-0.364049753094891,-0.00567136995082596,,
0.0122537393669165,-0.411298216525277,-0.00667734377182061,,
0.0123525598456819,-0.442703725893948,-0.0074515636783139,,
0.0124513803244474,-0.457212875990043,-0.00792097249019275,,
0.0125502008032129,-0.454108895728305,-0.008080340101984,,
0.0126490212819783,-0.433560632693901,-0.00793400839117009,,
0.0127478417607438,-0.395934005847064,-0.00746880283159523,,
0.0128466622395092,-0.343495760418929,-0.00675283801678761,,
0.0129454827182747,-0.27778625041646,-0.00572629974966699,,
0.0130443031970401,-0.201705735512672,-0.00454295415798844,,
0.0131431236758056,-0.11761999178044,-0.00315155271152223,,
0.013241944154571,-0.029226194223531,-0.00164940515080492,,
0.0133407646333365,0.0602436441652089,-7.57184412423229E-05,,
0.013439585112102,0.148355663609207,0.00151784814566769,,
0.0135384055908674,0.230221878600921,0.00304176670498446,,
0.0136372260696329,0.302855059167391,0.00444902105295464,,
0.0137360465483983,0.363970104003605,0.0056939196464123,,
0.0138348670271638,0.410713793086374,0.00667696041330457,,
0.0139336875059292,0.442105155191939,0.00745365845877854,,
0.0140325079846947,0.456171495952822,0.00791797750178391,,
0.0141313284634601,0.453636306404254,0.00809799170795555,,
0.0142301489422256,0.432948197674048,0.00797034701339072,,
0.0143289694209911,0.396012523157301,0.00751685784847167,,
0.0144277898997565,0.343792711471521,0.00675556602337313,,
0.014526610378522,0.278242817965044,0.00576414271177983,,
0.0146254308572874,0.202193851457982,0.00453817929075395,,
0.0147242513360529,0.118025275500265,0.00314909339818303,,
0.0148230718148183,0.0297721371067857,0.00162002688164709,,
0.0149218922935838,-0.0598323832267219,5.19947102004537E-05,,
0.0150207127723492,-0.148100057933042,-0.00153018236364622,,
0.0151195332511147,-0.229935962413551,-0.00304885541469258,,
0.0152183537298802,-0.302695053621664,-0.00442222360809374,,
0.0153171742086456,-0.36386923401766,-0.00567466957234153,,
0.0154159946874111,-0.411320852146246,-0.00668836532916517,,
0.0155148151661765,-0.442624218275293,-0.00743250528350181,,
0.015613635644942,-0.45679949296209,-0.00788715479250168,,
0.0157124561237074,-0.453969191505134,-0.00806121153887229,,
0.0158112766024729,-0.432937587226719,-0.0079327333818191,,
0.0159100970812383,-0.395795857822835,-0.00748835240450685,,
0.0160089175600038,-0.343777290954735,-0.00673712031761786,,
0.0161077380387693,-0.277773800824927,-0.00574416699480329,,
0.0162065585175347,-0.201742801342009,-0.00452638588211052,,
0.0163053789963002,-0.117614262138882,-0.0031503906560193,,
0.0164041994750656,-0.0291401081275319,-0.00162878593917615,,
0.0165030199538311,0.0602521325230724,-8.37005132074964E-05,,
0.0166018404325965,0.14830752754649,0.00152830835661355,,
0.016700660911362,0.230087762546677,0.00305637197988817,,
0.0167994813901274,0.302778381001357,0.00444817218766813,,
0.0168983018688929,0.363843061580914,0.00567441285904957,,
0.0169971223476584,0.411015978626315,0.00670954931003687,,
0.0170959428264238,0.442290201393364,0.00743823170133995,,
0.0171947633051893,0.456100759637292,0.00792943718314731,,
0.0172935837839547,0.453287151950801,0.00808994117911244,,
0.0173924042627202,0.432974228638163,0.00796646208556906,,
0.0174912247414856,0.396127398933721,0.0075145987715004,,
0.0175900452202511,0.34367104500881,0.00676509179793516,,
0.0176888656990165,0.278313837225835,0.00577192283595496,,
0.017787686177782,0.202066526090029,0.00455956521941525,,
0.0178865066565474,0.118094915402903,0.00313433409530406,,
0.0179853271353129,0.0297319588795651,0.00163522430854446,,
0.0180841476140784,-0.0598207824709751,6.99988690926467E-05,,
0.0181829680928438,-0.148093479455698,-0.00151458617543465,,
0.0182817885716093,-0.230038388598438,-0.00303316680969568,,
0.0183806090503747,-0.30281077823387,-0.00443590129230165,,
0.0184794295291402,-0.364198299357502,-0.00568132358087503,,
0.0185782500079056,-0.411173437664683,-0.00668698250023114,,
0.0186770704866711,-0.442676280203523,-0.00743466852084396,,
0.0187758909654366,-0.456894774779108,-0.00789976626083577,,
0.018874711444202,-0.454010218568141,-0.00806481408207249,,
0.0189735319229675,-0.433271745581279,-0.00794298822213113,,
0.0190723524017329,-0.396111695471673,-0.0074805346290483,,
0.0191711728804984,-0.343655341546763,-0.00673105332681256,,
0.0192699933592638,-0.277981765592583,-0.00576211638819313,,
0.0193688138380293,-0.201806464025986,-0.00452742813807694,,
0.0194676343167947,-0.117569344578521,-0.00313938279005033,,
0.0195664547955602,-0.0291328222870324,-0.0016548149555824,,
0.0196652752743256,0.0602085589527064,-7.94681667302122E-05,,
0.0197640957530911,0.148262857563233,0.00152903399951931,,
0.0198629162318566,0.230110398167647,0.00305883985033706,,
0.019961736710622,0.302913345891387,0.00441969412645493,,
0.0200605571893875,0.363809391094722,0.00566699213348354,,
0.0201593776681529,0.410927699704534,0.00669266784394251,,
0.0202581981469184,0.442225123983077,0.0074716934232657,,
0.0203570186256838,0.456410584699311,0.00791480110264864,,
0.0204558391044493,0.453167183159664,0.00809203595957664,,
0.0205546595832148,0.433087689688272,0.00794043478058493,,
0.0206534800619802,0.395794089414947,0.0075093447061203,,
0.0207523005407457,0.343813366475655,0.00676528347719341,,
0.0208511210195111,0.278491491482287,0.00576128463712644,,
0.0209499414982766,0.202339002377448,0.00456463102838134,,
0.021048761977042,0.11813817065985,0.00315619579926718,,
0.0211475824558075,0.0297452926750423,0.00165522740827218,,
0.0212464029345729,-0.0598793521402333,6.97387329564592E-05,,
0.0213452234133384,-0.14811781274824,-0.00150642611558682,,
0.0214440438921038,-0.229840609860218,-0.00300749376905474,,
0.0215428643708693,-0.302855766530546,-0.00442964433365978,,
0.0216416848496348,-0.363764261325415,-0.0056253943116169,,
0.0217405053284002,-0.411151367934238,-0.00669260965559593,,
0.0218393258071657,-0.44248614098738,-0.00743620366633113,,
0.0219381462859311,-0.456732717880231,-0.00791359283875348,,
0.0220369667646966,-0.453726141524976,-0.00804305848627029,,
0.022135787243462,-0.433457357673228,-0.00792680501619136,,
0.0222346077222275,-0.39597361818376,-0.0074901459747081,,
0.0223334282009929,-0.343614809637964,-0.00675233143589127,,
0.0224322486797584,-0.277716999563557,-0.0057543259954862,,
0.0225310691585239,-0.201656432300748,-0.00454085937752424,,
0.0226298896372893,-0.117604995681548,-0.00312078990200781,,
0.0227287101160548,-0.0290648446878088,-0.00163979380514512,,
0.0228275305948202,0.060217330255832,-5.83577770023602E-05,,
0.0229263510735857,0.148239054793057,0.00151983339512718,,
0.0230251715523511,0.230071068776212,0.0030466408346923,,
0.0231239920311166,0.302898066847233,0.00444718640862618,,
0.023222812509882,0.363998398529816,0.00571211890740653,,
0.0233216329886475,0.410777738715612,0.00671870884030223,,
0.023420453467413,0.4422361588483,0.00746299939977035,,
0.0235192739461784,0.456133015397174,0.00793354459582263,,
0.0236180944249439,0.453301299213907,0.00811291530734115,,
0.0237169149037093,0.432503690667263,0.00795331494216489,,
0.0238157353824748,0.395497562780248,0.00753096338816661,,
0.0239145558612402,0.343757343313756,0.00676033062207582,,
0.0240133763400057,0.278128472710991,0.00575968274618344,,
0.0241121968187711,0.202034270330148,0.00455603284451467,,
0.0242110172975366,0.118256477147572,0.00315834534523374,,
0.0243098377763021,0.0298233501992288,0.00165895146243056,,
0.0244086582550675,-0.0598855769359999,5.50478869554283E-05,,
0.024507478733833,-0.14815120028917,-0.00152992051608791,,
0.0246062992125984,-0.230080830387755,-0.00303379490155065,,
0.0247051196913639,-0.302962719839627,-0.0044263447121442,,
0.0248039401701293,-0.363925186443244,-0.00565035540072723,,
0.0249027606488948,-0.411001124000054,-0.00664770365510448,,
0.0250015811276602,-0.44269134703873,-0.00743012469557236,,
0.0251004016064257,-0.457082367487892,-0.00793277445594587,,
0.0251992220851912,-0.453937501635777,-0.00808132416960428,,
0.0252980425639566,-0.433177807754256,-0.00795357165545685,,
0.0253968630427221,-0.396257695226926,-0.00749092638311621,,
0.0254956835214875,-0.343589132355427,-0.00675916172088531,,
0.025594504000253,-0.277896599068686,-0.00575279256142069,,
0.0256933244790184,-0.201583432423122,-0.00454907420287443,,
0.0257921449577839,-0.117567363961686,-0.00311101425984139,,
0.0258909654365493,-0.0290377526789611,-0.00162775908600743,,
0.0259897859153148,0.0602459077273059,-7.64440841480862E-05,,
0.0260886063940803,0.148293380283384,0.00149423394563009,,
0.0261874268728457,0.230119699993139,0.00301851874924353,,
0.0262862473516112,0.302908252876669,0.00444966454760687,,
0.0263850678303766,0.36380769342315,0.00570668343129999,,
0.0264838883091421,0.41064645211399,0.00670531525213791,,
0.0265827087879075,0.441942744611484,0.00743086231843204,,
0.026681529266673,0.456356259208984,0.00792338559513972,,
0.0267803497454384,0.453269892289812,0.00809274791110681,,
0.0268791702242039,0.432705430639152,0.00793744663786367,,
0.0269779907029694,0.395691097339536,0.00747919629708527,,
0.0270768111817348,0.343583049032292,0.00674510581242727,,
0.0271756316605003,0.278484700795996,0.00575955952380314,,
0.0272744521392657,0.202024685559393,0.00454735251239491,,
0.0273732726180312,0.118150938564803,0.00316717628248497,,
0.0274720930967966,0.0298046758119291,0.00166589298985143,,
0.0275709135755621,-0.0597582515680473,6.48646032486155E-05,,
0.0276697340543275,-0.148118661584027,-0.0015159262188198,,
0.027768554533093,-0.229976423586034,-0.00305793279670441,,
0.0278673750118585,-0.302825774332762,-0.004436640626583,,
0.0279661954906239,-0.364058524398016,-0.00566930255311293,,
0.0280650159693894,-0.411128732313269,-0.00667266132137101,,
0.0281638364481548,-0.442332855391628,-0.00743577752226621,,
0.0282626569269203,-0.457142422619776,-0.00792479238398069,,
0.0283614774056857,-0.454144263886069,-0.00808425583540107,,
0.0284602978844512,-0.433133951238628,-0.00793555380518907,,
0.0285591183632166,-0.396242699128033,-0.00752737282491944,,
0.0286579388419821,-0.343941045525185,-0.00677618181215767,,
0.0287567593207476,-0.277962525314759,-0.00575350451295131,,
0.028855579799513,-0.201818559935941,-0.00455689197833253,,
0.0289544002782785,-0.11754041342547,-0.00316027582919087,,
0.0290532207570439,-0.029160833867982,-0.00167459728187858,,
0.0291520412358094,0.0602357216978696,-6.15478675132231E-05,,
0.0292508617145748,0.148462616918288,0.00153179965738692,,
0.0293496821933403,0.230163308931662,0.00302732230374403,,
0.0294485026721057,0.302911365274552,0.00441624389980788,,
0.0295473231508712,0.36374629430127,0.00565181866649311,,
0.0296461436296367,0.410667673008649,0.00667477321605503,,
0.0297449641084021,0.441975000371366,0.00742515643765751,,
0.0298437845871676,0.45619271684748,0.00792644219473848,,
0.029942605065933,0.453381372723086,0.00807527771586258,,
0.0300414255446985,0.432804178535631,0.00798807734477158,,
0.0301402460234639,0.39588944196828,0.0074907381267022,,
0.0302390665022294,0.343836002096624,0.00675566186300181,,
0.0303378869809948,0.278246496253451,0.0057525769222555,,
0.0304367074597603,0.202177440632779,0.00452871855022563,,
0.0305355279385258,0.11812915177962,0.00314321979805765,,
0.0306343484172912,0.0297110209301684,0.0016376339906472,,
0.0307331688960567,-0.0597557050606882,7.10941791393083E-05,,
0.0308319893748221,-0.147923783034744,-0.00150286635793506,,
0.0309308098535876,-0.229828443213947,-0.00304157160288199,,
0.031029630332353,-0.302634220390309,-0.00443764009700054,,
0.0311284508111185,-0.363992598151943,-0.0056837212830243,,
0.0312272712898839,-0.411536173490717,-0.00668699619160673,,
0.0313260917686494,-0.442621742504249,-0.00744716874675166,,
0.0314249122474149,-0.456628876969034,-0.007911198559448,,
0.0315237327261803,-0.453886783697543,-0.00809511309623856,,
0.0316225532049458,-0.433298908326442,-0.00793206250441525,,
0.0317213736837112,-0.395834126169537,-0.00747822078657467,,
0.0318201941624767,-0.343729756150699,-0.00674306237462119,,
0.0319190146412421,-0.277841424742573,-0.0057467409734131,,
0.0320178351200076,-0.20157381228421,-0.0045259357781382,,
0.032116655598773,-0.117485875726197,-0.00315284141224881,,
0.0322154760775385,-0.0291257486554795,-0.00162608873818648,,
0.032314296556304,0.0600959113702261,-8.53434782772666E-05,,
0.0324131170350694,0.148311205834897,0.00152565222975021,,
0.0325119375138349,0.230199242979951,0.00303767298368474,,
0.0326107579926003,0.303007849608934,0.00446777823750377,,
