Time domain (s),Current (AC) (A),Potential (AC) (V),Frequency (Hz),Column 5
0,0.305042013834609,0.00672500002738285,158.49,0.5
0.000197173323238059,0.23249060444889,0.00553007495480484,,
0.000394346646476118,0.151004349576042,0.0040910976896078,,
0.000591519969714178,0.0637205109142598,0.00250618405206682,,
0.000788693292952237,-0.0257560827926131,0.000862068906502866,,
0.000985866616190296,-0.115227335907664,-0.000867055990058763,,
0.00118303993942836,-0.199720733026291,-0.00254701515690003,,
0.00138021326266641,-0.276239388668467,-0.00412502662972525,,
0.00157738658590447,-0.342297982388072,-0.00552624308106298,,
0.00177455990914253,-0.395458587070392,-0.00673208531424718,,
0.00197173323238059,-0.432959232539271,-0.00767976125800729,,
0.00216890655561865,-0.453676484631474,-0.00826880530973417,,
0.00236607987885671,-0.457359370899504,-0.00862631279754744,,
0.00256325320209477,-0.443476661613736,-0.00865316329648858,,
0.00276042652533283,-0.412481705820396,-0.00830210273515331,,
0.00295759984857089,-0.365369056115826,-0.00765738955030359,,
0.00315477317180895,-0.304670223760187,-0.00669035400146845,,
0.00335194649504701,-0.232168895685863,-0.00549731320445535,,
0.00354911981828507,-0.150555315445062,-0.00408125530198511,,
0.00374629314152312,-0.063225675018975,-0.00251464874502094,,
0.00394346646476118,0.0262478062900147,-0.000847710076359309,,
0.00414063978799924,0.115487645548811,0.000869448557942576,,
0.0043378131112373,0.199884841278318,0.00254234297498268,,
0.00453498643447536,0.276382735811887,0.00410454262043114,,
0.00473215975771342,0.342095959470921,0.00551838252005687,,
0.00492933308095148,0.394846293523171,0.0067397764444812,,
0.00512650640418954,0.432098866733489,0.00768564854950871,,
0.0053236797274276,0.453300804059699,0.00835269921362247,,
0.00552085305066566,0.456792914484746,0.00868479037408676,,
0.00571802637390372,0.443013197274388,0.0086806795385681,,
0.00591519969714178,0.41198768339274,0.0083326858453634,,
0.00611237302037983,0.365349815838003,0.00766222945157313,,
0.00630954634361789,0.305025320064144,0.00674150155780495,,
0.00650671966685595,0.232556283117859,0.00550727881445834,,
0.00670389299009401,0.15107225643895,0.00408396106008491,,
0.00690106631333207,0.0636766897667894,0.00247449194043492,,
0.00709823963657013,-0.0257925827314262,0.000829510815365531,,
0.00729541295980819,-0.115216583987703,-0.000894767334239877,,
0.00749258628304625,-0.199620499667186,-0.00253918369006634,,
0.00768975960628431,-0.276169218243462,-0.00411489672321563,,
0.00788693292952237,-0.342550086616618,-0.00554636940317099,,
0.00808410625276043,-0.395118486865327,-0.00674741965490044,,
0.00828127957599849,-0.432739737752184,-0.00767567951666148,,
0.00847845289923655,-0.453841512455604,-0.00832989793900962,,
0.0086756262224746,-0.457646560340553,-0.00863662411478394,,
0.00887279954571266,-0.443079123520462,-0.00865707731848353,,
0.00906997286895072,-0.412356361069278,-0.00831664468744497,,
0.00926714619218878,-0.365761218249121,-0.00764135523807363,,
0.00946431951542684,-0.304477255091423,-0.00671317752456613,,
0.0096614928386649,-0.232014973463271,-0.00550307898499769,,
0.00985866616190296,-0.150650385053134,-0.00409500315449263,,
0.010055839485141,-0.0632072835769374,-0.00251322484196015,,
0.0102530128083791,0.026284872119352,-0.000885662569476864,,
0.0104501861316171,0.115507168771897,0.000845666638554121,,
0.0106473594548552,0.200021503839921,0.00250988072347447,,
0.0108445327780933,0.276364061424587,0.00411581404538008,,
0.0110417061013313,0.342456997625382,0.00554806542232145,,
0.0112388794245694,0.394871758596761,0.00672268618490923,,
0.0114360527478074,0.432252788956081,0.00769124832212231,,
0.0116332260710455,0.453058319970064,0.00833087858378612,,
0.0118303993942836,0.456664174390483,0.00867354633188899,,
0.0120275727175216,0.443115623459275,0.00864950427636435,,
0.0122247460407597,0.412053326693551,0.00834246148752982,,
0.0124219193639977,0.365564571291949,0.00768610036490269,,
0.0126190926872358,0.30493392874448,0.00671172281591081,,
0.0128162660104738,0.232391891920569,0.00553114288210033,,
0.0130134393337119,0.151055279723223,0.00408763034874138,,
0.01321061265695,0.063728751695019,0.00253318344471731,,
0.013407785980188,-0.0257507068326329,0.000817106429086945,,
0.0136049593034261,-0.115134812806951,-0.000866191721974996,,
0.0138021326266641,-0.199607271976182,-0.00255360070855604,,
0.0139993059499022,-0.276411348651518,-0.00412283772105404,,
0.0141964792731403,-0.342280156836559,-0.00551362134419708,,
0.0143936525963783,-0.395084533433873,-0.00672940180463266,,
0.0145908259196164,-0.432751338507931,-0.00769147936408476,,
0.0147879992428544,-0.453754931205396,-0.0083342381050695,,
0.0149851725660925,-0.457266777062476,-0.00863710331292911,,
0.0151823458893306,-0.443545983202954,-0.00865403954452626,,
0.0153795192125686,-0.41229637667371,-0.00832592572866853,,
0.0155766925358067,-0.365672868591024,-0.00765729371067492,,
0.0157738658590447,-0.304573385744227,-0.00674574930707905,,
0.0159710391822828,-0.231909434880502,-0.00553183087372311,,
0.0161682125055209,-0.15050551707893,-0.00409111480382718,,
0.0163653858287589,-0.0632098300842965,-0.00252389213496151,,
0.016562559151997,0.0263262174957788,-0.000862921194632715,,
0.016759732475235,0.115461614584696,0.00085745491293121,,
0.0169569057984731,0.199995472875806,0.00251408397577846,,
0.0171540791217111,0.276589038276128,0.00409389073022703,,
0.0173512524449492,0.342355420276282,0.00552934931189908,,
0.0175484257681873,0.394984653756346,0.00672808058688945,,
0.0177455990914253,0.432140742632282,0.00767838869760551,,
0.0179427724146634,0.453014180509174,0.00833913448326307,,
0.0181399457379014,0.456529492445715,0.00864490739701251,,
0.0183371190611395,0.442999898847069,0.00864338423147881,,
0.0185342923843776,0.411871109944748,0.0083105708509521,,
0.0187314657076156,0.365171277377607,0.00767281288489885,,
0.0189286390308537,0.304997874373718,0.00673500842293429,,
0.0191258123540917,0.232437410739612,0.00550593705965152,,
0.0193229856773298,0.150906733460612,0.00409649551443181,,
0.0195201590005679,0.0637190961879492,0.00252880562737445,,
0.0197173323238059,-0.0258633190469555,0.000830482903031893,,
0.019914505647044,-0.115127173284874,-0.000906049027720623,,
0.020111678970282,-0.199695550897962,-0.00251646969797337,,
0.0203088522935201,-0.276215267584871,-0.0041105017916534,,
0.0205060256167582,-0.342133874136044,-0.00552754547316558,,
0.0207031989399962,-0.395278916828948,-0.0067300709706144,,
0.0209003722632343,-0.43277935008888,-0.00767618780897994,,
0.0210975455864723,-0.453762004836949,-0.00832095575933156,,
0.0212947189097104,-0.457406552021962,-0.00868357013023768,,
0.0214918922329485,-0.443205670788943,-0.00864797426514263,,
0.0216890655561865,-0.412594600979981,-0.00833419703094274,,
0.0218862388794246,-0.365500837871657,-0.00766637109268675,,
0.0220834122026626,-0.304379073085469,-0.00669859620956981,,
0.0222805855259007,-0.232037043193716,-0.00550907580750337,,
0.0224777588491387,-0.150539753455646,-0.00408444710391809,,
0.0226749321723768,-0.063216054880063,-0.00251707211849928,,
0.0228721054956149,0.0263904460702794,-0.000863290861773169,,
0.0230692788188529,0.11551282767714,0.000845639255802944,,
0.023266452142091,0.199971705473788,0.00253932060382267,,
0.023463625465329,0.276392957209481,0.0041080476125801,,
0.0236607987885671,0.342140098931811,0.00552855521211537,,
0.0238579721118052,0.394688975957434,0.0067408409489329,,
0.0240551454350432,0.432313905132698,0.00768579915463974,,
0.0242523187582813,0.453038230856454,0.00832845521030778,,
0.0244494920815193,0.456818379558337,0.00867176645306333,,
0.0246466654047574,0.44277156202054,0.00866432176758947,,
0.0248438387279955,0.412255066665441,0.0083125321405042,,
0.0250410120512335,0.365653416104254,0.00767797795633784,,
0.0252381853744716,0.30490591716353,0.00673994074098827,,
0.0254353586977096,0.232590236549313,0.00551338174512495,,
0.0256325320209477,0.150938140384707,0.00409234360478594,,
0.0258297053441858,0.0637211121729418,0.00249228730584949,,
0.0260268786674238,-0.025779850194631,0.000831235928688834,,
0.0262240519906619,-0.1151546189753,-0.000873600467587554,,
0.0264212253138999,-0.199608969647754,-0.00255792718324033,,
0.026618398637138,-0.276145097159866,-0.00412359074671098,,
0.026815571960376,-0.342426156591811,-0.00555255790493447,,
0.0270127452836141,-0.395017758352014,-0.00672864877897572,,
0.0272099186068522,-0.432767466387871,-0.00771633092219082,,
0.0274070919300902,-0.453884237190184,-0.00834725689182747,,
0.0276042652533283,-0.457440788398678,-0.0086870614310115,,
0.0278014385765663,-0.443393192761411,-0.00865700886160559,,
0.0279986118998044,-0.412522732883403,-0.00833048495673783,,
0.0281957852230425,-0.365666360849996,-0.00766460490523624,,
0.0283929585462805,-0.304722285688416,-0.00671956968554177,,
0.0285901318695186,-0.232087690395635,-0.00550807633708583,,
0.0287873051927566,-0.150574838668148,-0.00409326434979373,,
0.0289844785159947,-0.0632084153579859,-0.00252023482625896,,
0.0291816518392328,0.0263440076791344,-0.000860867488294836,,
0.0293788251624708,0.115468405270987,0.000850472311383577,,
0.0295759984857089,0.199816651470148,0.00254294539550859,,
0.0297731718089469,0.276671057033984,0.00409560215217475,,
0.029970345132185,0.342422478303404,0.00552389672157316,,
0.0301675184554231,0.394865533800995,0.00674968900040396,,
0.0303646917786611,0.432333711301046,0.00766081923988793,,
0.0305618651018992,0.453129056285594,0.00831910057794039,,
0.0307590384251372,0.456751604476477,0.00866697447160902,,
0.0309562117483753,0.4429212400642,0.00867116745538121,,
0.0311533850716133,0.412001547710584,0.00832093522226884,,
0.0313505583948514,0.365422249825105,0.00765144064761314,,
0.0315477317180895,0.30487507612996,0.00671012092496781,,
0.0317449050413275,0.232619627488415,0.00548694712171693,,
0.0319420783645656,0.151016233277051,0.00408893445226566,,
0.0321392516878036,0.0636894223035847,0.00249572384112096,,
0.0323364250110417,-0.0257364888332116,0.000830482903031893,,
0.0325335983342798,-0.115158297263707,-0.000887551979307233,,
0.0327307716575178,-0.19969922918637,-0.0025346655361238,,
0.0329279449807559,-0.276150756065108,-0.00412104415085235,,
0.0331251183039939,-0.342308097681193,-0.00552597096497331,,
0.033322291627232,-0.39524722695959,-0.00672028334849406,,
0.0335194649504701,-0.432779633034142,-0.00766216784038232,,
0.0337166382737081,-0.453584598157602,-0.00831980568378254,,
0.0339138115969462,-0.457404288459865,-0.00865198412676671,,
0.0341109849201842,-0.443310360535927,-0.00867092101062061,,
0.0343081582434223,-0.412305147976835,-0.00831524645571324,,
0.0345053315666604,-0.365515338816341,-0.0076758729073414,,
0.0347025048898984,-0.304590999086794,-0.00674472245391033,,
0.0348996782131365,-0.23216578328798,-0.00552561498920845,,
0.0350968515363745,-0.150586722369157,-0.00409327804116932,,
0.0352940248596126,-0.0632432176252263,-0.0025247683829992,,
0.0354911981828507,0.0263129190684593,-0.000850051301584109,,
0.0356883715060887,0.115388048816546,0.00086747699985823,,
0.0358855448293268,0.199865601000494,0.00254402701417966,,
0.0360827181525648,0.276533581004753,0.00412969367737759,,
0.0362798914758029,0.342099637759328,0.00554324263527217,,
0.0364770647990409,0.394817433106435,0.00675868423416226,,
0.036674238122279,0.432100847350324,0.00769489022802716,,
0.0368714114455171,0.453239121992557,0.00835871315034753,,
0.0370685847687551,0.45666785267889,0.00869918000982528,,
0.0372657580919932,0.443034418169047,0.00866050187380196,,
0.0374629314152312,0.412203570627735,0.00832663425735536,,
0.0376601047384693,0.3656194626728,0.00768313960493305,,
0.0378572780617074,0.304920913262423,0.00671028522147443,,
0.0380544513849454,0.232538174621083,0.005506772233562,,
0.0382516247081835,0.151062636300038,0.00408114405955873,,
0.0384487980314215,0.0637739875687999,0.00250018722956113,,
0.0386459713546596,-0.0257057185359563,0.00083051028578307,,
0.0388431446778977,-0.11510793300705,-0.000855801679329193,,
0.0390403180011357,-0.199603593687774,-0.00254544064870821,,
0.0392374913243738,-0.276187821894446,-0.00413594036748721,,
0.0394346646476118,-0.342292040537568,-0.00552520253651867,,
0.0396318379708499,-0.395381060068572,-0.00674373667486838,,
0.039829011294088,-0.432903280113687,-0.00767203761075619,,
0.040026184617326,-0.453946202202587,-0.00832336544143431,,
0.0402233579405641,-0.457228013561566,-0.00867480764986439,,
0.0404205312638021,-0.443366878852034,-0.0086366788802863,,
0.0406177045870402,-0.412222527960297,-0.00829190266034363,,
0.0408148779102782,-0.365391903945742,-0.00768612603623176,,
0.0410120512335163,-0.304766142204045,-0.00674264136482172,,
0.0412092245567544,-0.232076938475675,-0.00552312315885217,,
0.0414063978799924,-0.150478071388504,-0.00409608306174203,,
0.0416035712032305,-0.0631778572696773,-0.00253317317618551,,
0.0418007445264685,0.0263160314663426,-0.000828583224669277,,
0.0419979178497066,0.115446901431066,0.000873651810246567,,
0.0421950911729447,0.199969441911691,0.00256710040488173,,
0.0423922644961827,0.276483216748096,0.00409591705381329,,
0.0425894378194208,0.342379753568824,0.0055422055135721,,
0.0427866111426588,0.394827336190609,0.00672007455501689,,
0.0429837844658969,0.432305416774834,0.00767992213167057,,
0.043180957789135,0.453331079202745,0.00833321638616713,,
0.043378131112373,0.456939763075785,0.00867628802984965,,
0.0435753044356111,0.442665740492509,0.00866014589803665,,
0.0437724777588491,0.41200098182006,0.00830631625598954,,
0.0439696510820872,0.365353211181148,0.00763980297836708,,
0.0441668244053253,0.304925723331879,0.00670458960923215,,
0.0443639977285633,0.232490887394152,0.00548208668338512,,
0.0445611710518014,0.150962473677249,0.00408612772027128,,
0.0447583443750394,0.0637440307391733,0.00250633465719829,,
0.0449555176982775,-0.0257679664936221,0.000832125868101663,,
0.0451526910215156,-0.11517612281522,-0.000878187078408033,,
0.0453498643447536,-0.199731767891513,-0.00256897612333606,,
0.0455470376679917,-0.276454427067676,-0.00412517723485673,,
0.0457442109912297,-0.342241959226173,-0.00554780870902905,,
0.0459413843144678,-0.394964281697474,-0.00675358077391319,,
0.0461385576377059,-0.432577044226467,-0.00769230084661965,,
0.0463357309609439,-0.453790865253685,-0.0083382205839424,,
0.046532904284182,-0.457537343469376,-0.00864340134569774,,
0.04673007760742,-0.443145332711797,-0.00864679680684244,,
0.0469272509306581,-0.411997303531652,-0.00830945500384139,,
0.0471244242538961,-0.365577869719269,-0.00765796458807833,,
0.0473215975771342,-0.304720305071582,-0.0067113565716137,,
0.0475187709003723,-0.232064135202564,-0.00551786567062784,,
0.0477159442236103,-0.150549373594558,-0.00408242078033139,,
0.0479131175468484,-0.0632174696063736,-0.0025321326316412,,
0.0481102908700864,0.0263041123971759,-0.000852570514691564,,
0.0483074641933245,0.115481986643569,0.000856962023410457,,
0.0485046375165626,0.199935488480237,0.00254783663943581,,
0.0487018108398006,0.276399712527614,0.00411793620859546,,
0.0488989841630387,0.342002021643898,0.00556016859833752,,
0.0490961574862767,0.39485817722418,0.00676291144637364,,
0.0492933308095148,0.432257599025537,0.00770793468611464,,
0.0494905041327529,0.453179703487513,0.00835312706910951,,
0.0496876774559909,0.456640406988465,0.00865433733194543,,
0.049884850779229,0.44294387568517,0.00865411826993601,,
0.050082024102467,0.412442942319486,0.00833772427157786,,
0.0502791974257051,0.365380373926311,0.00767955246453012,,
0.0504763707489432,0.304763878641948,0.00672687916868187,,
0.0506735440721812,0.232587690041954,0.0054919170910539,,
0.0508707173954193,0.151023023963342,0.00406548112589133,,
0.0510678907186573,0.063752483728879,0.00250569458538985,,
0.0512650640418954,-0.0257914509503778,0.000820967397001215,,
0.0514622373651334,-0.115112743076506,-0.000884772630063591,,
0.0516594106883715,-0.199610384374065,-0.00253812945414644,,
0.0518565840116096,-0.276250352797374,-0.00411630522347872,,
0.0520537573348476,-0.342457209834328,-0.00550860858931168,,
0.0522509306580857,-0.395137161252627,-0.00671829809903457,,
0.0524481039813237,-0.432661361914577,-0.00768522240544289,,
0.0526452773045618,-0.453718997157107,-0.00830760666813779,,
0.0528424506277999,-0.457325700413312,-0.00863292744337629,,
0.0530396239510379,-0.443574560674428,-0.00863719915255823,,
0.053236797274276,-0.412409271833294,-0.00830073359759487,,
0.053433970597514,-0.365633256254328,-0.0076533095203799,,
0.0536311439207521,-0.304535471079104,-0.00671598425656095,,
0.0538283172439902,-0.23196800454976,-0.00551131948167738,,
0.0540254905672282,-0.150515420163104,-0.00410477879665949,,
0.0542226638904663,-0.0632157719348009,-0.00251034965308783,,
0.0544198372137043,0.0262447292602891,-0.00085707497725851,,
0.0546170105369424,0.115431091864546,0.000871036757509991,,
0.0548141838601805,0.199929829574995,0.00253588064570742,,
0.0550113571834185,0.276514906617453,0.00411971608742112,,
0.0552085305066566,0.342375509389892,0.00554457412154807,,
0.0554057038298946,0.394600131145129,0.00671566250923483,,
0.0556028771531327,0.432376153090364,0.00769612245182971,,
0.0558000504763707,0.453118021420371,0.00835979134617482,,
0.0559972237996088,0.456811871817308,0.00869320714722699,,
0.0561943971228469,0.442885871906436,0.00867127698638592,,
0.0563915704460849,0.412044838335688,0.00834140725160992,,
0.056588743769323,0.365537691492048,0.0076492534503636,,
0.056785917092561,0.304857533523708,0.00673246524991988,,
0.0569830904157991,0.232454670400601,0.00551463108314687,,
0.0571802637390372,0.151009159645498,0.00408222225538601,,
0.0573774370622752,0.0637123408698162,0.00252618715179409,,
0.0575746103855133,-0.0258083569297893,0.000843133734071078,,
0.0577717837087513,-0.115206680903529,-0.000900065896590529,,
0.0579689570319894,-0.199745137055148,-0.00256062438422999,,
0.0581661303552275,-0.27623712510637,-0.00411224059635229,,
0.0583633036784655,-0.3423491247442,-0.00551366241832385,,
0.0585604770017036,-0.394865533800995,-0.00672536284883529,,
0.0587576503249416,-0.432906109566309,-0.00767103985176032,,
0.0589548236481797,-0.453949597545733,-0.0082976410581348,,
0.0591519969714178,-0.457259703430923,-0.00863581632362465,,
0.0593491702946558,-0.443427995028652,-0.00863237807693107,,
0.0595463436178939,-0.412402764092266,-0.00830233548853831,,
0.0597435169411319,-0.365661904462117,-0.0076626744212791,,
0.05994069026437,-0.304696537669564,-0.00670968622379231,,
0.0601378635876081,-0.232105162265571,-0.00553458284021557,,
0.0603350369108461,-0.150618978129039,-0.00409861767764674,,
0.0605322102340842,-0.0632596284504291,-0.00253517211702059,,
0.0607293835573222,0.026292829954849,-0.000863030725637426,,
0.0609265568805603,0.115410118546991,0.000828511344947991,,
0.0611237302037983,0.199927247699478,0.0025154531133369,,
0.0613209035270364,0.276427193586197,0.00411044360330726,,
0.0615180768502745,0.342032862677469,0.00547830444088016,,
0.0617152501735125,0.39502935910776,0.00674898731740514,,
0.0619124234967506,0.432032091651629,0.00768818145399131,,
0.0621095968199886,0.453512730061024,0.00832204764653488,,
0.0623067701432267,0.456872987993925,0.00866547184313848,,
0.0625039434664648,0.44271129467971,0.00865019226798758,,
0.0627011167897028,0.411847625487992,0.00833354840202505,,
0.0628982901129409,0.365670392819981,0.0076601757452357,,
0.0630954634361789,0.304869417224717,0.00671195556929582,,
0.063292636759417,0.232449294440621,0.00549928305111758,,
0.0634898100826551,0.151142992754479,0.00406183921998604,,
0.0636869834058931,0.0636551859268685,0.00250829252390661,,
0.0638841567291312,-0.025835590411268,0.000830019107683988,,
0.0640813300523692,-0.115236673101314,-0.000898612899356888,,
0.0642785033756073,-0.199662729247557,-0.00255510675986992,,
0.0644756766988454,-0.276211306351202,-0.00414115678158478,,
0.0646728500220834,-0.342258087106114,-0.00555323049376,,
0.0648700233453215,-0.395161494545169,-0.00674053289298193,,
0.0650671966685595,-0.43275388501529,-0.00765591088174089,,
