Time domain (s),Current (AC) (A),Potential (AC) (V),Frequency (Hz),Column 5
0,0.366094421663421,0.0172158177167656,0.063096,0.5
0.0386935186065678,0.370012930598479,0.017447910491359,,
0.0773870372131355,0.374159776360065,0.0176722156412152,,
0.116080555819703,0.378355005761473,0.0179217429943712,,
0.154774074426271,0.382251162020823,0.0181731835702137,,
0.193467593032839,0.385845415685495,0.0183956226542814,,
0.232161111639407,0.389890118207457,0.0186262131448638,,
0.270854630245974,0.393535584964572,0.0188591951638042,,
0.309548148852542,0.396911404886889,0.0190956263729394,,
0.34824166745911,0.400641755222639,0.0193060808684198,,
0.386935186065678,0.404167536133878,0.0194926874473191,,
0.425628704672246,0.407182883792259,0.0196711560931022,,
0.464322223278813,0.410439017868701,0.0199005811346544,,
0.503015741885381,0.413381082704193,0.0201093918754327,,
0.541709260491949,0.416644856302712,0.0203226757847448,,
0.580402779098517,0.419651715603229,0.0204784619629774,,
0.619096297705084,0.422262734482044,0.0206624479657322,,
0.657789816311652,0.424980706669939,0.0208718582727752,,
0.69648333491822,0.427441481614571,0.0210323197205295,,
0.735176853524788,0.430122105027867,0.0211880452684658,,
0.773870372131355,0.432550907157879,0.0213704750936135,,
0.812563890737923,0.434786174728602,0.0215205081303882,,
0.851257409344491,0.437077748406488,0.0216558147418389,,
0.889950927951059,0.439416008052622,0.0218306725166371,,
0.928644446557626,0.441315702542475,0.0219870649978335,,
0.967337965164194,0.443331970480321,0.0220796003035288,,
1.00603148377076,0.444986351427919,0.0222588571431652,,
1.04472500237733,0.446687135398504,0.0223361944545646,,
1.0834185209839,0.44836811320074,0.0224980099789382,,
1.12211203959047,0.449948362489664,0.0226065045259842,,
1.16080555819703,0.450778523888715,0.0227213719908512,,
1.1994990768036,0.452539575200131,0.0228435487747829,,
1.23819259541017,0.453865173753149,0.0229274408948923,,
1.27688611401674,0.454788707088698,0.0230273798334473,,
1.3155796326233,0.455503426820806,0.023108058547848,,
1.35427315122987,0.456600405602033,0.0231819736158507,,
1.39296666983644,0.457114234198038,0.0232741316663687,,
1.43166018844301,0.457868000376317,0.0233675831632092,,
1.47035370704958,0.458477464470917,0.0234461869741334,,
1.50904722565614,0.458763239185655,0.0234941792220784,,
1.54774074426271,0.459075893700295,0.0235640253235232,,
1.58643426286928,0.459405807875923,0.0236182085984002,,
1.62512778147585,0.459369590882372,0.0236547013001291,,
1.66382130008241,0.459238021335488,0.0236906415924913,,
1.70251481868898,0.459221327565023,0.0237241162527999,,
1.74120833729555,0.459083816167634,0.0237897586536948,,
1.77990185590212,0.458907258324073,0.0238269182886843,,
1.81859537450869,0.458193670373014,0.0238018038725785,,
1.85728889311525,0.457967597108582,0.0238590051888754,,
1.89598241172182,0.457723698292638,0.0238596249652385,,
1.93467593032839,0.456525990998096,0.023863586144603,,
1.97336944893496,0.455332810827749,0.0238566338706168,,
2.01206296754152,0.454533490462269,0.023860763467471,,
2.05075648614809,0.453202233004009,0.02383270511364,,
2.08945000475466,0.452478459023513,0.0238520529148891,,
2.12814352336123,0.451362522909724,0.0238531038400267,,
2.1668370419678,0.44975935505457,0.023828016370719,,
2.20553056057436,0.448212776251838,0.0237906950549394,,
2.24422407918093,0.446210372631837,0.0237482605841635,,
2.2829175977875,0.444868646198878,0.0236896782444487,,
2.32161111639407,0.44293754478493,0.0236609529573575,,
2.36030463500063,0.441055109956066,0.0235970014680618,,
2.3989981536072,0.438917741446034,0.0235663899050826,,
2.43769167221377,0.436783485333886,0.0234963619127484,,
2.47638519082034,0.434655454017504,0.0234429533583258,,
2.51507870942691,0.432563356749412,0.0233551337423501,,
2.55377222803347,0.429777477698608,0.0232956621582878,,
2.59246574664004,0.427411206471524,0.0231641887289089,,
2.63115926524661,0.424980140779415,0.0230992199979738,,
2.66985278385318,0.422046847247049,0.0230004869286473,,
2.70854630245974,0.419207774486967,0.0228726513170519,,
2.74723982106631,0.416340690145936,0.0227877689021012,,
2.78593333967288,0.413312327005498,0.0227142310892758,,
2.82462685827945,0.410094673484704,0.0225808444372109,,
2.86332037688602,0.407136763714534,0.0224732189244135,,
2.90201389549258,0.403348692545312,0.0223372790631999,,
2.94070741409915,0.400307879813341,0.0222232941059808,,
2.97940093270572,0.396851986381845,0.0220665041595081,,
3.01809445131229,0.393080043092563,0.0218964698616229,,
3.05678796991885,0.389525401764588,0.0217488350899053,,
3.09548148852542,0.385517199181439,0.0216094931953945,,
3.13417500713199,0.381836081321298,0.0215030263949281,,
3.17286852573856,0.377741863378465,0.0213511542391625,,
3.21156204434513,0.37388645123686,0.0211666764573368,,
3.25025556295169,0.369796760418221,0.0210024424578066,,
3.28894908155826,0.365277841636952,0.0208100086337542,,
3.32764260016483,0.361179945405712,0.0206221961856268,,
3.3663361187714,0.356877479749961,0.0204664908477894,,
3.40502963737796,0.35214182489791,0.0202664917100872,,
3.44372315598453,0.347938955974425,0.020084169672133,,
3.4824166745911,0.34322565379808,0.0198952456685717,,
3.52111019319767,0.33845802613141,0.0196810725149126,,
3.55980371180424,0.333378875731148,0.0194805613880407,,
3.5984972304108,0.328719050209344,0.0192793496444099,,
3.63719074901737,0.323807120458994,0.0190679048540887,,
3.67588426762394,0.31886802796348,0.0188327131976798,,
3.71457778623051,0.313844334834594,0.0186335359373282,,
3.75327130483707,0.30837189051999,0.0183387985931618,,
3.79196482344364,0.303104298575158,0.0181500632171892,,
3.83065834205021,0.297869528280733,0.0179144673588043,,
3.86935186065678,0.292540820159284,0.0176592272843878,,
3.90804537926334,0.287041778990041,0.0174373473463874,,
3.94673889786991,0.281479075136822,0.0171709041405372,,
3.98543241647648,0.275821584620793,0.016933469163162,,
4.02412593508305,0.270013850170581,0.0166506018836889,,
4.06281945368962,0.26449815059903,0.0164258925318568,,
4.10151297229618,0.258511842320264,0.0161427962045972,,
4.14020649090275,0.252737778356244,0.0158799571330333,,
4.17890000950932,0.246870908346249,0.0156024859499393,,
4.21759352811589,0.240780511579181,0.0153297035097668,,
4.25628704672245,0.234780091405467,0.0150862930798468,,
4.29498056532902,0.228718024532769,0.0147973964542327,,
4.33367408393559,0.222499701139067,0.0144770529148892,,
4.37236760254216,0.216417226839339,0.0142240224779413,,
4.41106112114873,0.210172660272575,0.013932997055254,,
4.44975463975529,0.203750333344887,0.0136093929533043,,
4.48844815836186,0.197475173321657,0.013346493251444,,
4.52714167696843,0.191065932612342,0.0130279349374942,,
4.565835195575,0.184591260811162,0.0127217856242066,,
4.60452871418156,0.178109267801324,0.0124153533695357,,
4.64322223278813,0.171535600526561,0.012103855116766,,
4.6819157513947,0.16504370443255,0.0117627288591589,,
4.72060927000127,0.158322905621486,0.0114650475772673,,
4.75930278860784,0.15177523394268,0.0111610876913493,,
4.7979963072144,0.145089308135171,0.010810718681892,,
4.83668982582097,0.13833650114133,0.0105047714695923,,
4.87538334442754,0.131543551288427,0.010174538455237,,
4.91407686303411,0.124701651905177,0.009820908883174,,
4.95277038164067,0.117924546986951,0.0095238541143452,,
4.99146390024724,0.111083213494225,0.00918133335992088,,
5.03015741885381,0.10429645306893,0.00881747074116657,,
5.06885093746038,0.0973154153530343,0.00848169342304095,,
5.10754445606695,0.0904129303155335,0.00816646303869373,,
5.14623797467351,0.0834872791346968,0.0077949475291943,,
5.18493149328008,0.0764979652698838,0.00745404358267399,,
5.22362501188665,0.0695491125775535,0.00710190282122225,,
5.26231853049322,0.0624794776264571,0.00677417585911799,,
5.30101204909978,0.0556202832140601,0.00641177510417634,,
5.33970556770635,0.0485559888547861,0.00609164040252042,,
5.37839908631292,0.0414874503165804,0.00570613276795351,,
5.41709260491949,0.0344240047930927,0.00534677700123121,,
5.45578612352606,0.0274083770189029,0.00500926835130855,,
5.49447964213262,0.02037998133976,0.00464120203200435,,
5.53317316073919,0.0132766759024716,0.00428264793253375,,
5.57186667934576,0.0061629014904849,0.0039230968015227,,
5.61056019795233,-0.000902842963257436,0.00356680623311778,,
5.64925371655889,-0.00799309755033066,0.00318750983558136,,
5.68794723516546,-0.0150410518207174,0.00285419814950938,,
5.72664075377203,-0.0221704235902783,0.00247591899361277,,
5.7653342723786,-0.0292296249348342,0.00210284056980647,,
5.80402779098517,-0.0362432720921892,0.00173556244435513,,
5.84272130959173,-0.0432747448010576,0.0013649833360998,,
5.8814148281983,-0.0503721437559993,0.000994431174643484,,
5.92010834680487,-0.0573962598880527,0.000616589904220533,,
5.95880186541144,-0.064416626995383,0.000251164371158907,,
5.997495384018,-0.0714068604322979,-0.000117491409360682,,
6.03618890262457,-0.0784343011711812,-0.000483674821126989,,
6.07488242123114,-0.0853411364920871,-0.000837621018071388,,
6.11357593983771,-0.0922239922020286,-0.00122153205483322,,
6.15226945844428,-0.0992188942357684,-0.00157865797398893,,
6.19096297705084,-0.106107550323583,-0.00194720596731468,,
6.22965649565741,-0.113030654997061,-0.00232767118223132,,
6.26835001426398,-0.11974551195762,-0.00267477289238283,,
6.30704353287055,-0.126538744755786,-0.00307671133727272,,
6.34573705147711,-0.133351217831776,-0.0034392805097041,,
6.38443057008368,-0.140013446973582,-0.00379664895004472,,
6.42312408869025,-0.146752354281422,-0.00418552156606156,,
6.46181760729682,-0.153438563034192,-0.00451327210661434,,
6.50051112590339,-0.160383030074959,-0.00489001529500266,,
6.53920464450995,-0.166988033537502,-0.00526977652481131,,
6.57789816311652,-0.173295449320613,-0.00563145645289564,,
6.61659168172309,-0.179688951199723,-0.00600674788252054,,
6.65528520032966,-0.186242741569823,-0.00634535461447738,,
6.69397871893622,-0.192794622059403,-0.00671824777904462,,
6.73267223754279,-0.198932270685244,-0.00704301059332524,,
6.77136575614936,-0.205440011713934,-0.00742204762792698,,
6.81005927475593,-0.211646911192678,-0.00777151728798797,,
6.8487527933625,-0.2180500332107,-0.00815292227249875,,
6.88744631196906,-0.224244270888964,-0.00846178647572504,,
6.92613983057563,-0.230236768595339,-0.00882319356747585,,
6.9648333491822,-0.236298658627249,-0.00916356194637791,,
7.00352686778877,-0.24228203134892,-0.00950624438159231,,
7.04222038639533,-0.248280187960538,-0.0098670350653296,,
7.0809139050019,-0.254294260243149,-0.0102322989176011,,
7.11960742360847,-0.260084664296057,-0.0105404355572705,,
7.15830094221504,-0.265889215612071,-0.0108567606553027,,
7.19699446082161,-0.2715321344471,-0.0112246147685702,,
7.23568797942817,-0.277304147057971,-0.0115680247673411,,
7.27438149803474,-0.282944943803534,-0.011892548428786,,
7.31307501664131,-0.288460961688504,-0.0122186013210399,,
7.35176853524788,-0.293759394666906,-0.0125361390250003,,
7.39046205385444,-0.299247613179873,-0.0128439287246405,,
7.42915557246101,-0.304613953021183,-0.0131674519861944,,
7.46784909106758,-0.309972724076732,-0.0134926190024509,,
7.50654260967415,-0.31513166504091,-0.0138237682079514,,
7.54523612828072,-0.320015583210311,-0.0141087036542014,,
7.58392964688728,-0.324896106036566,-0.0144268341877263,,
7.62262316549385,-0.330222267650656,-0.0147038001183502,,
7.66131668410042,-0.335135541391001,-0.0150435419841899,,
7.70001020270699,-0.339663231475397,-0.0152906677039386,,
7.73870372131355,-0.344716421647859,-0.0156125539474905,,
7.77739723992012,-0.349167433566221,-0.0159122528709119,,
7.81609075852669,-0.353516868135483,-0.0161792383810795,,
7.85478427713326,-0.358283576230051,-0.0164822854442019,,
7.89347779573983,-0.362706647303779,-0.0167457712389276,,
7.93217131434639,-0.367215097110351,-0.0170296557600396,,
7.97086483295296,-0.370933563745092,-0.0173217354762145,,
8.00955835155953,-0.375261211529171,-0.0175633337339423,,
8.0482518701661,-0.379201507249411,-0.0178350147237305,,
8.08694538877266,-0.383278182585992,-0.0181246119661029,,
8.12563890737923,-0.387033785786386,-0.0183406175020533,,
8.1643324259858,-0.390723038322814,-0.0186170108132111,,
8.20302594459237,-0.394786910386284,-0.0188708496541108,,
8.24171946319894,-0.398308447118592,-0.0190787172569453,,
8.2804129818055,-0.401763067296408,-0.0193235019735836,,
8.31910650041207,-0.404854739439245,-0.019551067686046,,
8.35780001901864,-0.408395233504114,-0.0197607676711713,,
8.39649353762521,-0.411530832898894,-0.0200059026961887,,
8.43518705623177,-0.414634105797478,-0.0202236328272365,,
8.47388057483834,-0.417575109588237,-0.0204277548250937,,
8.51257409344491,-0.420634384498561,-0.0206358952642618,,
8.55126761205148,-0.423393949639988,-0.0208361638699484,,
8.58996113065805,-0.426191924600747,-0.021018320858762,,
8.62865464926461,-0.428738997850323,-0.0212389881908348,,
8.66734816787118,-0.431403139702101,-0.0214339718556857,,
8.70604168647775,-0.433630272596539,-0.0216040634155172,,
8.74473520508432,-0.435684950353717,-0.0217905352604246,,
8.78342872369088,-0.438244048776934,-0.0219317634308234,,
8.82212224229745,-0.440429730190472,-0.0221037378981928,,
8.86081576090402,-0.442226220395968,-0.0222824456968116,,
8.89950927951059,-0.443968243638506,-0.0224460969718265,,
8.93820279811716,-0.445932449648122,-0.0225971371451914,,
8.97689631672372,-0.447385090623831,-0.0227637458313303,,
9.01558983533029,-0.449279975044228,-0.0228832279354223,,
9.05428335393686,-0.450703189712676,-0.0230257226053459,,
9.09297687254343,-0.451950412428088,-0.0231561181627886,,
9.13167039114999,-0.45304541059248,-0.0232561446784385,,
9.17036390975656,-0.454768547238773,-0.0233771088564425,,
9.20905742836313,-0.455273038641127,-0.0234988544916002,,
9.2477509469697,-0.456524859217048,-0.0235883448090766,,
9.28644446557627,-0.457218358054497,-0.0236774848181738,,
9.32513798418283,-0.458151440792643,-0.0237883978403759,,
9.3638315027894,-0.458812188716001,-0.0239002270537232,,
9.40252502139597,-0.45909195084392,-0.0239585365571044,,
9.44121854000254,-0.459979267185918,-0.0240786148591114,,
9.4799120586091,-0.459883065796799,-0.0241395920955338,,
9.51860557721567,-0.460055096516166,-0.0241998215583008,,
9.55729909582224,-0.46005170117302,-0.0242561976288971,,
9.59599261442881,-0.460050003501448,-0.0243029233773178,,
9.63468613303538,-0.459993131503762,-0.024372927791203,,
9.67337965164194,-0.459775263651932,-0.0243832753617874,,
9.71207317024851,-0.459369803091318,-0.0244346629063306,,
9.75076668885508,-0.45877597172245,-0.0244445254345438,,
9.78946020746165,-0.458130219897984,-0.0245227519902906,,
9.82815372606821,-0.457536671474378,-0.0245020299023233,,
9.86684724467478,-0.456970710213829,-0.0245131050364642,,
9.90554076328135,-0.455908887381419,-0.0245172548434174,,
9.94423428188792,-0.455127887721661,-0.0245299737322608,,
9.98292780049449,-0.453955079610186,-0.024534123539214,,
10.0216213191011,-0.452600549904117,-0.0245147487911663,,
10.0603148377076,-0.45116212692783,-0.0245163925458689,,
10.0990083563142,-0.449686284440628,-0.0244449835301168,,
10.1377018749208,-0.448423711944746,-0.0244140486055571,,
10.1763953935273,-0.446635851569745,-0.0244134827227906,,
10.2150889121339,-0.444819342986954,-0.0243401335375539,,
10.2537824307405,-0.442897861711918,-0.0242902011201243,,
10.292475949347,-0.441272058235794,-0.0242640088320827,,
10.3311694679536,-0.439502023412306,-0.0241844618832148,,
10.3698629865602,-0.437067208695474,-0.0241006034466031,,
10.4085565051667,-0.434766580769201,-0.0240357391345118,,
10.4472500237733,-0.432370600289594,-0.0239723063710855,,
10.4859435423799,-0.430038848384489,-0.0238910887207169,,
10.5246370609864,-0.427428395396198,-0.0238374106983099,,
10.563330579593,-0.424885849270815,-0.0237166620946931,,
10.6020240981996,-0.421890590726045,-0.0236145909907153,,
10.6407176168061,-0.419089998521611,-0.0234875637830716,,
10.6794111354127,-0.416085332046876,-0.0233804502594439,,
10.7181046540193,-0.412799559454227,-0.0232780019002883,,
10.7567981726258,-0.409962113629403,-0.0231616388881104,,
10.7954916912324,-0.406528360664667,-0.0230053238789592,,
10.834185209839,-0.403105359619891,-0.022873769609185,,
10.8728787284455,-0.399960988921986,-0.0227289575145999,,
10.9115722470521,-0.396230001959396,-0.0226003943394475,,
10.9502657656587,-0.392712426460758,-0.0224290396484412,,
10.9889592842652,-0.388770150123682,-0.0222690026127617,,
11.0276528028718,-0.385106645606108,-0.0221053816528949,,
11.0663463214784,-0.381182689974754,-0.0219596264203656,,
11.105039840085,-0.377273235288084,-0.0217734240434426,,
11.1437333586915,-0.373124125964401,-0.0216110965298988,,
11.1824268772981,-0.369196562780956,-0.0214170795814406,,
11.2211203959047,-0.364895016697307,-0.0212255686852334,,
11.2598139145112,-0.360281452725859,-0.0210133895946556,,
11.2985074331178,-0.355882007581518,-0.0208190795997645,,
11.3372009517244,-0.351399305793799,-0.0206478326959516,,
11.3758944703309,-0.346727313625724,-0.0203976283044858,,
11.4145879889375,-0.342149825175196,-0.0202156835217093,,
11.4532815075441,-0.337155275408308,-0.0199910280634739,,
11.4919750261506,-0.332629848886009,-0.0197664534456332,,
11.5306685447572,-0.327441198669308,-0.0194981980675912,,
11.5693620633638,-0.322763193914413,-0.0192912736027004,,
11.6080555819703,-0.317688641374661,-0.0190242847241833,,
11.6467491005769,-0.312255809396754,-0.0187531190919144,,
11.6854426191835,-0.307184864409094,-0.0185217808276761,,
11.72413613779,-0.301770706818486,-0.018280849503209,,
11.7628296563966,-0.296179425493793,-0.0180011181573994,,
11.8015231750032,-0.291112441739802,-0.0177937861221831,,
11.8402166936097,-0.285694322915525,-0.0174969940846386,,
11.8789102122163,-0.27993978217459,-0.0172492755353248,,
11.9176037308229,-0.274349632630945,-0.0169809325801884,,
11.9562972494294,-0.268566231473275,-0.0166735807660219,,
11.994990768036,-0.262750574555723,-0.0164083973229974,,
12.0336842866426,-0.257103835959655,-0.0161065089722059,,
12.0723778052491,-0.251306853429403,-0.0158345113575367,,
12.1110713238557,-0.245212141747088,-0.0155500340068593,,
12.1497648424623,-0.239158669336727,-0.015216779582734,,
12.1884583610688,-0.233256714114229,-0.014940443533523,,
12.2271518796754,-0.227244834657399,-0.0146064649141904,,
12.265845398282,-0.220966915917864,-0.0143388798377586,,
12.3045389168886,-0.214696000073566,-0.0140158180401269,,
12.3432324354951,-0.208421971831384,-0.013705471762989,,
12.3819259541017,-0.20215416838497,-0.0133849092809086,,
12.4206194727083,-0.195828078214559,-0.0130692309060376,,
12.4593129913148,-0.189502836879934,-0.0127338274747402,,
12.4980065099214,-0.182968781941867,-0.0123930515255122,,
12.536700028528,-0.176454886853726,-0.012090903811786,,
12.5753935471345,-0.169975086669671,-0.0117343100918994,,
12.6140870657411,-0.16343112864743,-0.011394244864479,,
12.6527805843477,-0.156762674709857,-0.0110529400843324,,
12.6914741029542,-0.150069321589219,-0.0107138112581566,,
12.7301676215608,-0.143421239710519,-0.0103659280908515,,
12.7688611401674,-0.136705746123119,-0.0100609206481459,,
12.8075546587739,-0.129847789596244,-0.00968856641954652,,
12.8462481773805,-0.123050878509671,-0.00935984242590182,,
12.8849416959871,-0.116223692280051,-0.00898247946115038,,
12.9236352145936,-0.109408672696702,-0.00862638088868373,,
12.9623287332002,-0.102525746250445,-0.00830403991790929,,
13.0010222518068,-0.0956111299348306,-0.00790956573617585,,
13.0397157704133,-0.0886837810824213,-0.00755928430381303,,
13.0784092890199,-0.0816929817549821,-0.00719469412150175,,
13.1171028076265,-0.0747229789043086,-0.00685707768438615,,
13.155796326233,-0.0676779248228586,-0.00647297465168561,,
13.1944898448396,-0.0607101147979665,-0.00610235175488327,,
13.2331833634462,-0.0537448512804334,-0.00573905838724498,,
13.2718768820527,-0.0467587205498192,-0.00538168657855431,,
13.3105704006593,-0.0396767421116629,-0.00501310827007995,,
13.3492639192659,-0.032628363423383,-0.00465778778641734,,
13.3879574378725,-0.0255625836014829,-0.00425954105290849,,
13.426650956479,-0.0185051506648153,-0.00389675630608988,,
