Time domain (s),Current (AC) (A),Potential (AC) (V),Frequency (Hz),Column 5
0,0.115962739450502,0.00120914144441642,7943.3,0.3
3.93413316883411E-06,0.0930599928905192,0.000781945539090501,,
7.86826633766822E-06,0.0666136744495474,0.000318052304205896,,
1.18023995065023E-05,0.0378489179602277,-0.000126640473373296,,
1.57365326753364E-05,0.0081441560058714,-0.000578241990849548,,
1.96706658441706E-05,-0.0215431108884412,-0.000992224135311304,,
2.36047990130047E-05,-0.051391190730231,-0.00140941367379588,,
2.75389321818388E-05,-0.0796003077668839,-0.00175617226427249,,
3.14730653506729E-05,-0.104702018929929,-0.00203470842035403,,
3.5407198519507E-05,-0.125741313200219,-0.0022584971485502,,
3.93413316883411E-05,-0.14187993510292,-0.00239876410700157,,
4.32754648571752E-05,-0.15239679581858,-0.00236732681582685,,
4.72095980260093E-05,-0.156975887970223,-0.00230634022722143,,
5.11437311948435E-05,-0.155543394281006,-0.00210916562478713,,
5.50778643636776E-05,-0.14788393822846,-0.00189207049301476,,
5.90119975325117E-05,-0.134521320996712,-0.00157857571789277,,
6.29461307013458E-05,-0.116023698086607,-0.00119791666300806,,
6.68802638701799E-05,-0.0928654459956731,-0.000793198859939892,,
7.0814397039014E-05,-0.0663871979281464,-0.000305778149530145,,
7.47485302078481E-05,-0.037410262446913,0.000154707915249297,,
7.86826633766822E-05,-0.00749544557451265,0.000591205482775692,,
8.26167965455164E-05,0.0220818491081676,0.000999512669298319,,
8.65509297143505E-05,0.0516887437879975,0.00142294136850341,,
9.04850628831846E-05,0.079575298510033,0.00176404475911518,,
9.44191960520187E-05,0.104622172024038,0.00205639839499083,,
9.83533292208528E-05,0.12546886075732,0.00225208236050412,,
0.000102287462389687,0.141566165997332,0.00235386278602379,,
0.000106221595558521,0.152039700173955,0.00237405553771541,,
0.000110155728727355,0.15668760775107,0.00229956320781755,,
0.000114089861896189,0.155022196800332,0.00214111223520375,,
0.000118023995065023,0.147648280226462,0.0019045290563815,,
0.000121958128233857,0.134413153105894,0.00159152164708631,,
0.000125892261402692,0.115895774024851,0.00120732809228574,,
0.000129826394571526,0.0930264188196782,0.000777974166203954,,
0.00013376052774036,0.066606297289764,0.000317889848929998,,
0.000137694660909194,0.0377980087058708,-0.000139189045744725,,
0.000141628794078028,0.00810434675044562,-0.000567328947942425,,
0.000145562927246862,-0.0216237800164755,-0.000913288434090997,,
0.000149497060415696,-0.0513527290055397,-0.00140236004135552,,
0.00015343119358453,-0.0795105485162682,-0.00176420282370815,,
0.000157365326753364,-0.104625643628642,-0.00204105515281094,,
0.000161299459922199,-0.125718336659222,-0.00224381250883843,,
0.000165233593091033,-0.141790312889328,-0.00236054760108217,,
0.000169167726259867,-0.152329876071938,-0.00237381844082707,,
0.000173101859428701,-0.15696437686022,-0.00231036648364658,,
0.000177035992597535,-0.15547455601603,-0.002119863524221,,
0.000180970125766369,-0.147859591317225,-0.00189317474982076,,
0.000184904258935203,-0.134494141986984,-0.00158071617591604,,
0.000188838392104037,-0.116025982037004,-0.00120100111790311,,
0.000192772525272871,-0.0929784101823259,-0.000771934781565786,,
0.000196706658441706,-0.066397018914855,-0.000316181873194932,,
0.00020064079161054,-0.037396513065521,0.000142635731997132,,
0.000204574924779374,-0.00747466162589678,0.000595321748205535,,
0.000208509057948208,0.0220465849140326,0.00100065644225245,,
0.000212443191117042,0.0517230715624697,0.00142161538219954,,
0.000216377324285876,0.0795930448046204,0.00175229529107312,,
0.00022031145745471,0.104588803508732,0.00200880338991638,,
0.000224245590623544,0.125523744085368,0.00222746380022265,,
0.000228179723792378,0.141531107358733,0.00234856323149213,,
0.000232113856961213,0.151939160677464,0.00238011028974494,,
0.000236047990130047,0.156595770105593,0.00230886267467589,,
0.000239982123298881,0.155051408525914,0.0021498848200876,,
0.000243916256467715,0.147625463561992,0.00188407286370218,,
0.000247850389636549,0.134351075334094,0.00157243534754192,,
0.000251784522805383,0.115881819087924,0.00117598300545696,,
0.000255718655974217,0.0930028484515776,0.000753245838843952,,
0.000259652789143051,0.0666291139542335,0.000323455039791032,,
0.000263586922311885,0.0377989451255337,-0.000147344739649391,,
0.00026752105548072,0.00812755168648268,-0.000567816313769676,,
0.000271455188649554,-0.0215649454542398,-0.000995973778699977,,
0.000275389321818388,-0.0513538253017304,-0.00139993199358734,,
0.000279323454987222,-0.0795354435755993,-0.0017605936821794,,
0.000283257588156056,-0.104681646092385,-0.00207357694271781,,
0.00028719172132489,-0.125704176166758,-0.00223942621639672,,
0.000291125854493724,-0.141802600542466,-0.00236444652769707,,
0.000295059987662558,-0.152444119270813,-0.00235965848774899,,
0.000298994120831392,-0.156853239833886,-0.00232369001158927,,
0.000302928254000227,-0.15538511651847,-0.00213300703415564,,
0.000306862387169061,-0.147932997482995,-0.00190620849267731,,
0.000310796520337895,-0.134462075323405,-0.00157063736280261,,
0.000314730653506729,-0.116027124012203,-0.00119255124822937,,
0.000318664786675563,-0.0929646608009339,-0.000768705434127437,,
0.000322598919844397,-0.0663972016308867,-0.000306537737710944,,
0.000326533053013231,-0.0374044612129037,0.000157970192811163,,
0.000330467186182065,-0.00747219495946765,0.000575306819180277,,
0.000334401319350899,0.0220743120718564,0.00100404604962501,,
0.000338335452519734,0.0516477925573731,0.0014108494271774,,
0.000342269585688568,0.0796480880091965,0.00176846617702209,,
0.000346203718857402,0.104501099813474,0.00203387858124282,,
0.000350137852026236,0.125460364461841,0.00223375564914052,,
0.00035407198519507,0.141408322185371,0.00237136843964292,,
0.000358006118363904,0.151989704499757,0.00237931118541601,,
0.000361940251532738,0.156581815168665,0.00231341581307687,,
0.000365874384701572,0.155090464077708,0.00215157523309051,,
0.000369808517870407,0.14770695491217,0.00191324895306755,,
0.000373742651039241,0.134273009909513,0.00155343686166054,,
0.000377676784208075,0.115968380807983,0.00119151724235289,,
0.000381610917376909,0.0930192700549345,0.000754367658382549,,
0.000385545050545743,0.0665968645746229,0.000337904777955256,,
0.000389479183714577,0.0378042210509516,-0.000137465702617856,,
0.000393413316883411,0.00813378687106744,-0.000553603672493796,,
0.000397347450052245,-0.021559646689318,-0.000990011231016386,,
0.000401281583221079,-0.0513453746852602,-0.00140776277694066,,
0.000405215716389913,-0.0795135633307927,-0.00176222701630202,,
0.000409149849558748,-0.104704120164295,-0.00203536263213966,,
0.000413083982727582,-0.125716966288983,-0.00224560829823695,,
0.000417018115896416,-0.141818040047152,-0.00233132321420237,,
0.00042095224906525,-0.15231626372757,-0.00237401821690941,,
0.000424886382234084,-0.15710790030319,-0.00231127096437067,,
0.000428820515402918,-0.155441712809317,-0.00214301340099743,,
0.000432754648571752,-0.148051077718538,-0.00191336969685407,,
0.000436688781740586,-0.134407397550893,-0.00158082594299414,,
0.000440622914909421,-0.115924665997378,-0.00121466931447145,,
0.000444557048078255,-0.0930063200561815,-0.000792729056845687,,
0.000448491181247089,-0.0663364485503173,-0.000314390474479787,,
0.000452425314415923,-0.0374385834318401,0.000117070979502198,,
0.000456359447584757,-0.00744296039438159,0.000591315249853785,,
0.000460293580753591,0.0220984534275563,0.00100283202574092,,
0.000464227713922425,0.05166421416073,0.00141737837298406,,
0.000468161847091259,0.07967604356206,0.00175878472073165,,
0.000472095980260093,0.104496006604088,0.00205131837461536,,
0.000476030113428928,0.125478293472461,0.00223599928821727,,
0.000479964246597762,0.141448108601293,0.00234851054329432,,
0.000483898379766596,0.151946720553279,0.00236488340066732,,
0.00048783251293543,0.156537118259389,0.00232827827545457,,
0.000491766646104264,0.155107822100728,0.00214112979793635,,
0.000495700779273098,0.147521543818913,0.00188886309899194,,
0.000499634912441932,0.134357675950742,0.00157992146227004,,
0.000503569045610766,0.115951228340499,0.00119320765535624,,
0.0005075031787796,0.0929985089458226,0.000787455846412044,,
0.000511437311948435,0.0666110022275825,0.00032006543241847,,
0.000515371445117269,0.037781404386482,-0.000133746794011014,,
0.000519305578286103,0.00809626156603901,-0.000578948890832987,,
0.000523239711454937,-0.0215307775562955,-0.00102603459071515,,
0.000527173844623771,-0.0513732845591158,-0.00142754280441881,,
0.000531107977792605,-0.0795429349329026,-0.00177015000400083,,
0.000535042110961439,-0.104616964617132,-0.00205380130592303,,
0.000538976244130273,-0.125771141592409,-0.00223726819564085,,
0.000542910377299107,-0.141960238798891,-0.00236440920689018,,
0.000546844510467942,-0.152375692116909,-0.0023589691504986,,
0.000550778643636776,-0.156978491673676,-0.00232294579079984,,
0.00055471277680561,-0.155474921448094,-0.00214299583826483,,
0.000558646909974444,-0.147872427118458,-0.00190212954805435,,
0.000562581043143278,-0.134444534584353,-0.00158447020998809,,
0.000566515176312112,-0.116047679565779,-0.00119142723334909,,
0.000570449309480946,-0.092938760803428,-0.000757447722595117,,
0.00057438344264978,-0.0664111794073185,-0.000305213946748761,,
0.000578317575818614,-0.0373089920862946,0.000115457403453867,,
0.000582251708987449,-0.00749293322907557,0.000585548087569165,,
0.000586185842156283,0.0220924237985073,0.000994474360412667,,
0.000590119975325117,0.0516732586043035,0.00140387263169162,,
0.000594054108493951,0.0795877460396985,0.0017631358877086,,
0.000597988241662785,0.104573135609007,0.0020537639851157,,
0.000601922374831619,0.125466234214363,0.00226022268701787,,
0.000605856508000453,0.141574091305211,0.00236538832922673,,
0.000609790641169287,0.152064229801222,0.00238012785247754,,
0.000613724774338121,0.156680641702358,0.00230900756721919,,
0.000617658907506956,0.155313583192025,0.00215273437343555,,
0.00062159304067579,0.147607534551373,0.0018637352194677,,
0.000625527173844624,0.134364664838958,0.00159661483951101,,
0.000629461307013458,0.115920486368151,0.00120506249979346,,
0.000633395440182292,0.0930366052384504,0.000769162065171969,,
0.000637329573351126,0.0666460837056858,0.000329909343984802,,
0.00064126370651996,0.0378079895691072,-0.000136141911655674,,
0.000645197839688794,0.00809680971413437,-0.000528078436146995,,
0.000649131972857628,-0.0215547590354676,-0.000995413966601522,,
0.000653066106026463,-0.0513404870314099,-0.00140881654089098,,
0.000657000239195297,-0.0795239324655966,-0.00174757750205545,,
0.000660934372364131,-0.104647295478409,-0.00204723723465117,,
0.000664868505532965,-0.125665486047027,-0.00225244239652067,,
0.000668802638701799,-0.141727138821337,-0.00236036538773243,,
0.000672736771870633,-0.152476414329432,-0.00237878430344152,,
0.000676670905039467,-0.156911023778938,-0.00230434685708225,,
0.000680605038208301,-0.155523935023621,-0.00213133857456826,,
0.000684539171377135,-0.148014671549204,-0.00189152385296598,,
0.000688473304545969,-0.134582987657441,-0.00158131550416263,,
0.000692407437714804,-0.116032788209188,-0.00118854474987762,,
0.000696341570883638,-0.0929770854910955,-0.000772659244281382,,
0.000700275704052472,-0.0664077534817225,-0.000309929540424747,,
0.000704209837221306,-0.0374070649163567,0.000156486141914769,,
0.00070814397039014,-0.00750353075891926,0.000589139666365313,,
0.000712078103558974,0.0220501707161564,0.00100770787935112,,
0.000716012236727808,0.0516860944055366,0.00140297693233427,,
0.000719946369896642,0.0796703565255706,0.0017766943171984,,
0.000723880503065477,0.10459407943415,0.00203170080241311,,
0.000727814636234311,0.125459428042179,0.00225601641258422,,
0.000731748769403145,0.141380937620107,0.00236060248462078,,
0.000735682902571979,0.152048561901497,0.00239978055014456,,
0.000739617035740813,0.156564639861677,0.0023205023756403,,
0.000743551168909647,0.155012398653127,0.00213301142483813,,
0.000747485302078481,0.14766223516339,0.001910381836987,,
0.000751419435247315,0.134323553731806,0.00157970631879678,,
0.000755353568416149,0.115928777108093,0.00119291787026965,,
0.000759287701584984,0.0931456181909158,0.000777794148195898,,
0.000763221834753818,0.0665985775374209,0.00030235341669238,,
0.000767155967922652,0.03787100376057,-0.000120093964834034,,
0.000771090101091486,0.00808116465391254,-0.000577135538702311,,
0.00077502423426032,-0.0215221442237935,-0.000997045105382455,,
0.000778958367429154,-0.0513715944358218,-0.0014161577630758,,
0.000782892500597988,-0.0795948262859303,-0.00177118181453517,,
0.000786826633766822,-0.104720336212116,-0.0020652214727308,,
0.000790760766935656,-0.125700384809099,-0.00226966265573703,,
0.000794694900104491,-0.141863490660059,-0.00234740189580585,,
0.000798629033273325,-0.152483951365743,-0.00238219147354668,,
0.000802563166442159,-0.156817655886695,-0.00231629390586541,,
0.000806497299610993,-0.15537154985311,-0.00212840120755731,,
0.000810431432779827,-0.147985574021142,-0.00190751472090689,,
0.000814365565948661,-0.134486787666704,-0.00156873400166813,,
0.000818299699117495,-0.116016709198391,-0.00119354793329851,,
0.000822233832286329,-0.0929288027796955,-0.000768108301222536,,
0.000826167965455163,-0.0663606127455212,-0.000319628559447782,,
0.000830102098623998,-0.0374348377531885,0.000165820734238764,,
0.000834036231792832,-0.00750618014138018,0.000584588723306467,,
0.000837970364961666,0.0220680997267756,0.00100950366874919,,
0.0008419044981305,0.0516531141617989,0.00143945472773632,,
0.000845838631299334,0.0796722293648964,0.00175340174322036,,
0.000849772764468168,0.104570874498113,0.00206186918616469,,
0.000853706897637002,0.125477151497262,0.00226961435822215,,
0.000857641030805836,0.141558446244989,0.00235759047599693,,
0.00086157516397467,0.152051964987589,0.00236780320494567,,
0.000865509297143505,0.156492604066144,0.00230536330022568,,
0.000869443430312339,0.154982204828874,0.00212176688535548,,
0.000873377563481173,0.147587527145892,0.00191170343260794,,
0.000877311696650007,0.134322046324544,0.00155986921243834,,
0.000881245829818841,0.115991791299556,0.00119130209887963,,
0.000885179962987675,0.0931112904164436,0.00075714476545885,,
0.000889114096156509,0.0667015380213334,0.000332394470633268,,
0.000893048229325343,0.0378479815405647,-0.000131536085057782,,
0.000896982362494177,0.00811983193413964,-0.000559113979815784,,
0.000900916495663012,-0.0215168454588717,-0.00101247396588366,,
0.000904850628831846,-0.0513562919681595,-0.00140752787539356,,
0.00090878476200068,-0.079520141107937,-0.00177096667106236,,
0.000912718895169514,-0.104619796715625,-0.00205100663611368,,
0.000916653028338348,-0.125653974937025,-0.00223804534655381,,
0.000920587161507182,-0.14177957832246,-0.00236352009355745,,
0.000924521294676016,-0.152416620508029,-0.00236857596517615,,
0.00092845542784485,-0.156955697848711,-0.00230155438261503,,
0.000932389561013684,-0.155473048608768,-0.00213200815374481,,
0.000936323694182519,-0.147753616018788,-0.00188612331272209,,
0.000940257827351353,-0.134578648151686,-0.0015621172421989,,
0.000944191960520187,-0.115980531424097,-0.00117576347130077,,
0.000948126093689021,-0.0929738879605392,-0.000767041365222987,,
0.000952060226857855,-0.0664395917502615,-0.000317125870066715,,
0.000955994360026689,-0.0374329192348547,0.000121839261375989,,
0.000959928493195523,-0.00747297150260274,0.000593146164717062,,
0.000963862626364357,0.0221127966360517,0.00101044547027973,,
0.000967796759533191,0.0516787629247611,0.00140472003353498,,
0.000971730892702026,0.0795898244345601,0.00174908570170862,,
0.00097566502587086,0.10456861338722,0.00203855904945405,,
0.000979599159039694,0.125532788528941,0.0022575926678261,,
0.000983533292208528,0.141579390070133,0.00236858035585863,,
0.000987467425377362,0.151894281052156,0.00239276423851109,,
0.000991401558546196,0.156515991718213,0.00231448274907597,,
0.00099533569171503,0.155093296176201,0.00214691671829526,,
0.000999269824883864,0.14761395245199,0.00190147753160996,,
0.0010032039580527,0.134425395080024,0.00156357055831258,,
0.00100713809122153,0.115937250564067,0.00121293060395322,,
0.00101107222439037,0.0930469743732543,0.000777267266220516,,
0.0010150063575592,0.06669927691044,0.000301102072001846,,
0.00101894049072803,0.0378096796924012,-0.000153436812484919,,
0.00102287462389687,0.00813963378408465,-0.000559441085708823,,
0.0010268087570657,-0.0215089429904968,-0.000982597562559917,,
0.00103074289023454,-0.0513049944422351,-0.00141503374819552,,
0.00103467702340337,-0.0795326114771066,-0.00176324126410377,,
0.00103861115657221,-0.104658304119324,-0.00206641793388229,,
0.00104254528974104,-0.125621542841382,-0.00223371613299284,,
0.00104647942290987,-0.141755825238328,-0.00237416310945227,,
0.00105041355607871,-0.152300047679749,-0.00238221123162052,,
0.00105434768924754,-0.157041711420675,-0.00230601531667007,,
0.00105828182241638,-0.155413072071334,-0.00214903302756175,,
0.00106221595558521,-0.147866397489409,-0.00189192560047191,,
0.00106615008875404,-0.134602401235818,-0.00159054472009146,,
0.00107008422192288,-0.115882595631059,-0.00120027445984627,,
0.00107401835509171,-0.093007644747412,-0.000777517535159422,,
0.00107795248826055,-0.0663820818792563,-0.000301499428824847,,
0.00108188662142938,-0.0373872859059157,0.000127586665586321,,
0.00108582075459821,-0.00747429619383321,0.000558519042252126,,
0.00108975488776705,0.0221158114505762,0.000980786405770484,,
0.00109368902093588,0.051676296258332,0.00141050256321051,,
0.00109762315410472,0.0796133948026607,0.00175744117169518,,
0.00110155728727355,0.104632381282314,0.00202499622928132,,
0.00110549142044239,0.125458103350948,0.0022322672075612,,
0.00110942555361122,0.141382650582905,0.00234586296136996,,
0.00111335968678005,0.152016129805854,0.00237068349307545,,
0.00111729381994889,0.156486003449496,0.00229951051961974,,
0.00112122795311772,0.155090281361677,0.00213706841604555,,
0.00112516208628656,0.14746531296013,0.00189736346152181,,
0.00112909621945539,0.134341665458457,0.00158597621429957,,
0.00113303035262422,0.115938027107202,0.00119920532850459,,
0.00113696448579306,0.0930405564726378,0.00077646816189203,,
0.00114089861896189,0.0665561188995342,0.000312397104340612,,
0.00114483275213073,0.0378268549993893,-0.000127876450672915,,
0.00114876688529956,0.00812510785955751,-0.00058685431579919,,
0.00115270101846839,-0.0215487294064187,-0.000975925919551646,,
0.00115663515163723,-0.0513925154214615,-0.00141381752897018,,
0.00116056928480606,-0.0795891620889449,-0.00176822908013374,,
0.0011645034179749,-0.104638251034835,-0.00203773579636879,,
0.00116843755114373,-0.12578868233146,-0.00226268366490956,,
0.00117237168431257,-0.14178825733397,-0.00237934631088166,,
0.0011763058174814,-0.152519763707973,-0.00237949120342451,,
0.00118023995065023,-0.157072453393023,-0.00229082135771597,,
0.00118417408381907,-0.155421751082844,-0.00213906178618473,,
0.0011881082169879,-0.147902575263703,-0.00189333720509666,,
0.00119204235015674,-0.13451602223179,-0.00156506997660033,,
0.00119597648332557,-0.115933573403928,-0.00119679484346946,,
0.0011999106164944,-0.0928884225366704,-0.000766624250326142,,
0.00120384474966324,-0.0664181226165265,-0.000315802079104532,,
0.00120777888283207,-0.037384453807423,0.000179418679876697,,
0.00121171301600091,-0.00747804187248486,0.000565243373457758,,
0.00121564714916974,0.0220314880019061,0.00103147684244798,,
0.00121958128233857,0.0516495055201711,0.00139420434745041,,
0.00122351541550741,0.079592473817021,0.00176148499085338,,
0.00122744954867624,0.104651589305156,0.00205227993421975,,
0.00123138368184508,0.125558437291904,0.00224664230411209,,
0.00123531781501391,0.141501278966543,0.00235327882516811,,
0.00123925194818275,0.151916915000593,0.00237924093448605,,
0.00124318608135158,0.156646862075981,0.00231301626091218,,
0.00124712021452041,0.155039920255415,0.00211212494521273,,
0.00125105434768925,0.147572087641206,0.00188108719917723,,
0.00125498848085808,0.13432391916387,0.00156162987637165,,
