Time domain (s),Current (AC) (A),Potential (AC) (V),Frequency (Hz),Column 5
0,0.0944193108274886,0.0130299360341057,0.0063096,0.4
0.386935186065678,0.088871940131791,0.0126759913428192,,
0.773870372131355,0.0831809198578709,0.0123877569268949,,
1.16080555819703,0.0776730013878488,0.0120519607878511,,
1.54774074426271,0.0719862112855574,0.0117045053738658,,
1.93467593032839,0.0663283861084454,0.0113831423798181,,
2.32161111639407,0.0606016737614087,0.0110074746777236,,
2.70854630245974,0.0549811857241578,0.0106721295744614,,
3.09548148852542,0.0492375526906065,0.0103180721242295,,
3.4824166745911,0.0435178906296176,0.00999144892538473,,
3.86935186065678,0.0378969325732968,0.00963240189182457,,
4.25628704672245,0.0320621158401949,0.00928395419912054,,
4.64322223278813,0.0263130775873404,0.00892535820134155,,
5.03015741885381,0.0206375973189172,0.00856872420921029,,
5.41709260491949,0.0148298066823316,0.00818917759939808,,
5.80402779098517,0.0090652578001721,0.0078444340380468,,
6.19096297705084,0.00336604156872155,0.00749479110052276,,
6.57789816311652,-0.00249268738455891,0.00711088635747581,,
6.9648333491822,-0.00820770800723312,0.00674931352354102,,
7.35176853524788,-0.0139952878238152,0.00635540142410029,,
7.73870372131355,-0.0197675920206273,0.00599243037924424,,
8.12563890737923,-0.0255571106658725,0.00561836385417314,,
8.51257409344491,-0.031263318430987,0.00524939403342817,,
8.89950927951059,-0.0369723463105207,0.00487393493538235,,
9.28644446557626,-0.0427202682680843,0.00449256163065659,,
9.67337965164194,-0.0484634312825657,0.00410350944175741,,
10.0603148377076,-0.0541001937301101,0.00372728358288388,,
10.4472500237733,-0.0598200320482503,0.00335883245328716,,
10.834185209839,-0.0654901070973702,0.00296506130252805,,
11.2211203959047,-0.0711618859656183,0.00256597920544621,,
11.6080555819703,-0.0768403626056118,0.00218969696710003,,
11.994990768036,-0.0824455750230926,0.001813313245703,,
12.3819259541017,-0.0881128299577935,0.0014181664358115,,
12.7688611401674,-0.0936146381799075,0.00102280538392385,,
13.155796326233,-0.0992085113873283,0.000631599499169688,,
13.5427315122987,-0.104779941184164,0.000224584810287531,,
13.9296666983644,-0.110375988229782,-0.000162268579178448,,
14.3166018844301,-0.115851945403055,-0.000551853554094262,,
14.7035370704958,-0.121248528105907,-0.000943845932491527,,
15.0904722565614,-0.126699926782779,-0.00130742587565225,,
15.4774074426271,-0.132051622664461,-0.00173475972647363,,
15.8643426286928,-0.137504078884241,-0.00209220558301126,,
16.2512778147585,-0.14277087757143,-0.00249752606874054,,
16.6382130008241,-0.148091258432583,-0.00289220774798293,,
17.0251481868898,-0.153345131595352,-0.00331331448605132,,
17.4120833729555,-0.158602764910679,-0.00366002850997171,,
17.7990185590212,-0.163840716177457,-0.00408325793518527,,
18.1859537450869,-0.168731675865919,-0.00443272327737043,,
18.5728889311525,-0.173988075381188,-0.00482688062751713,,
18.9598241172182,-0.179096125127537,-0.005197947764644,,
19.3467593032839,-0.184121275260441,-0.00561445675671912,,
19.7336944893496,-0.189122689430317,-0.00602345600303833,,
20.1206296754152,-0.194085444531698,-0.00640009343206183,,
20.5075648614809,-0.198873528796247,-0.00678947262190244,,
20.8945000475466,-0.203680355071206,-0.00718681259327969,,
21.2814352336123,-0.208599927170545,-0.0075491972916204,,
21.6683704196779,-0.213326203927409,-0.00792601513495672,,
22.0553056057436,-0.218032211111885,-0.00829058735683574,,
22.4422407918093,-0.222552149497085,-0.00868157054267282,,
22.829175977875,-0.227413791746066,-0.00906833090600889,,
23.2161111639407,-0.231934670169405,-0.00944435943672861,,
23.6030463500063,-0.236358489654822,-0.00980333881492168,,
23.989981536072,-0.240871377753974,-0.0101752854718216,,
24.3769167221377,-0.245259475790081,-0.0105486077878543,,
24.7638519082034,-0.249422199682197,-0.0109149390492798,,
25.150787094269,-0.253740441134048,-0.0113037318926046,,
25.5377222803347,-0.257865857262494,-0.0116552494475939,,
25.9246574664004,-0.262215883753944,-0.0120091067506976,,
26.3115926524661,-0.266186781113177,-0.0123507466220802,,
26.6985278385318,-0.270219603484862,-0.0127051451681215,,
27.0854630245974,-0.274128517079259,-0.0130525075559769,,
27.4723982106631,-0.27808584263785,-0.0134162030770564,,
27.8593333967288,-0.281854690549432,-0.0137578401294651,,
28.2462685827945,-0.285718952332194,-0.0140907270877206,,
28.6332037688601,-0.289132524579354,-0.0144357243566988,,
29.0201389549258,-0.292756077845968,-0.0147864046765194,,
29.4070741409915,-0.296331512910308,-0.0151106965841707,,
29.7940093270572,-0.300007238293676,-0.015415937868017,,
30.1809445131229,-0.303405769930601,-0.0157786157396154,,
30.5678796991885,-0.306758885974901,-0.016097926520859,,
30.9548148852542,-0.310034213863142,-0.0164044053341295,,
31.3417500713199,-0.313251729405791,-0.0167170830704171,,
31.7286852573856,-0.316125425998846,-0.0170404559926642,,
32.1156204434512,-0.319288654338928,-0.0173588195987677,,
32.5025556295169,-0.322618974458341,-0.0176284713405099,,
32.8894908155826,-0.325404307466265,-0.0179272374419233,,
33.2764260016483,-0.328072135706726,-0.0182160131007851,,
33.663361187714,-0.330790726006731,-0.0185404656899335,,
34.0502963737796,-0.333394866663228,-0.0188350371585826,,
34.4372315598453,-0.336221561349298,-0.0190621590451392,,
34.824166745911,-0.338747443830665,-0.0193809257644717,,
35.2111019319767,-0.340937673943776,-0.0196261990222446,,
35.5980371180423,-0.343402453946063,-0.019882657967389,,
35.984972304108,-0.345682340196748,-0.0201715914887743,,
36.3719074901737,-0.348175145086074,-0.0204573226561138,,
36.7588426762394,-0.350014799725462,-0.0206823444073141,,
37.1457778623051,-0.351833714773393,-0.0209535296707122,,
37.5327130483707,-0.354017188362375,-0.0211468633393155,,
37.9196482344364,-0.355795446760764,-0.0214210057060535,,
38.3065834205021,-0.35744832757227,-0.0216335563179064,,
38.6935186065678,-0.359316359613,-0.0218859531220472,,
39.0804537926334,-0.360906022859612,-0.0220864413457282,,
39.4673889786991,-0.36222918529362,-0.0223165823530445,,
39.8543241647648,-0.363640887569911,-0.0225239235016255,,
40.2412593508305,-0.365033025302419,-0.0227498726951509,,
40.6281945368962,-0.366559470984137,-0.0229152872489027,,
41.0151297229618,-0.367851259645232,-0.02310551158959,,
41.4020649090275,-0.368628671186762,-0.0233020053276345,,
41.7890000950932,-0.36954967355413,-0.0235299137078342,,
42.1759352811589,-0.370762557763875,-0.0236766807510107,,
42.5628704672245,-0.371472521568881,-0.0238529229824831,,
42.9498056532902,-0.372379423364154,-0.0240061849409074,,
43.3367408393559,-0.372833226776093,-0.0241735192157027,,
43.7236760254216,-0.37341816550852,-0.0243245259952216,,
44.1106112114873,-0.373793475735794,-0.024484485834996,,
44.4975463975529,-0.374383349668454,-0.024593027595722,,
44.8844815836186,-0.374513956217489,-0.0247442147895534,,
45.2714167696843,-0.374500384416847,-0.0248836299494974,,
45.65835195575,-0.374733043856422,-0.0249761824917831,,
46.0452871418156,-0.374790386182943,-0.0251226338099126,,
46.4322223278813,-0.374839209413824,-0.025211713376684,,
46.819157513947,-0.374719119541478,-0.0253575106929307,,
47.2060927000127,-0.374393631335607,-0.0254453499113039,,
47.5930278860784,-0.374173897420453,-0.0255369778302383,,
47.979963072144,-0.3734200455848,-0.0256201262764875,,
48.3668982582097,-0.37358995747855,-0.0257134004760231,,
48.7538334442754,-0.372630648556989,-0.0257847317848072,,
49.1407686303411,-0.372073440949683,-0.0258592203440591,,
49.5277038164067,-0.371417059318639,-0.0258987310784851,,
49.9146390024724,-0.370465270702196,-0.025957478488976,,
50.3015741885381,-0.369436868977367,-0.0260209843269577,,
50.6885093746038,-0.368659692445372,-0.0260436037713809,,
51.0754445606695,-0.367349984307238,-0.0261048769822461,,
51.4623797467351,-0.366027820663754,-0.0261546036771141,,
51.8493149328008,-0.365176439871107,-0.0261491010405845,,
52.2362501188665,-0.363454525008716,-0.0261353444492607,,
52.6231853049322,-0.362320368993171,-0.0261340364454954,,
53.0101204909978,-0.360627066541657,-0.0261380281121579,,
53.3970556770635,-0.359043748552488,-0.0261576030650588,,
53.7839908631292,-0.357570238768512,-0.026140486257165,,
54.1709260491949,-0.355602562684975,-0.0261052378108708,,
54.5578612352606,-0.353564559998111,-0.0260990586206695,,
54.9447964213262,-0.351735480787794,-0.026057405466283,,
55.3317316073919,-0.349815687896997,-0.0260301629051032,,
55.7186667934576,-0.347746663951523,-0.0259832777356559,,
56.1056019795233,-0.345402443840653,-0.0259705134230503,,
56.4925371655889,-0.343165094315789,-0.0258969720389386,,
56.8794723516546,-0.340985439631749,-0.02584032194483,,
57.2664075377203,-0.338418900500841,-0.0257296828677216,,
57.653342723786,-0.335602076215237,-0.0256926528300916,,
58.0402779098517,-0.333443983656027,-0.0255758796663597,,
58.4272130959173,-0.330738730147129,-0.0254949187436488,,
58.814148281983,-0.327948990710426,-0.025452679242747,,
59.2010834680487,-0.325027117162711,-0.0253236379057689,,
59.5880186541144,-0.321865298879839,-0.0252275447326014,,
59.97495384018,-0.318849245261003,-0.0250866186027903,,
60.3618890262457,-0.315948228809513,-0.025003898640533,,
60.7488242123114,-0.313027236547555,-0.0248627469928318,,
61.1357593983771,-0.309348926059303,-0.0247052452980645,,
61.5226945844428,-0.306258315665512,-0.0246013492058839,,
61.9096297705084,-0.302696804916118,-0.0244490795261778,,
62.2965649565741,-0.299650317562509,-0.0243242779255421,,
62.6835001426398,-0.296146971673008,-0.0241375942157367,,
63.0704353287055,-0.292421659277771,-0.0239723572573234,,
63.4573705147711,-0.28869675814922,-0.0238222525493668,,
63.8443057008368,-0.285097410864702,-0.0236205493480504,,
64.2312408869025,-0.281540482801239,-0.0234610630958465,,
64.6181760729682,-0.277525814916126,-0.0232892410150289,,
65.0051112590339,-0.273834050131999,-0.0231052860716994,,
65.3920464450995,-0.270022019218375,-0.0228956925631869,,
65.7789816311652,-0.265665353707563,-0.0227025111191597,,
66.1659168172309,-0.261615434392212,-0.0224949641855039,,
66.5528520032966,-0.257602705335762,-0.0222723808464949,,
66.9397871893622,-0.253333463371943,-0.0220613665752718,,
67.3267223754279,-0.2491321979161,-0.0218599509092656,,
67.7136575614936,-0.24453447137484,-0.0216121997736702,,
68.1005927475593,-0.240301303374631,-0.0213955898397877,,
68.4875279336249,-0.235830423229846,-0.0211485772752837,,
68.8744631196906,-0.231414594068618,-0.0209319927121636,,
69.2613983057563,-0.227035191385302,-0.0206413706255733,,
69.648333491822,-0.222208271795107,-0.0204023836789995,,
70.0352686778877,-0.217406380720382,-0.0201677802364237,,
70.4222038639533,-0.212914173460303,-0.0198815078261472,,
70.809139050019,-0.208080967365048,-0.0196043463386495,,
71.1960742360847,-0.203283658976254,-0.0193507289189259,,
71.5830094221504,-0.19849046325432,-0.0191082549019694,,
71.9699446082161,-0.193390756346462,-0.0187850623940347,,
72.3568797942817,-0.188562485451441,-0.0184983840515551,,
72.7438149803474,-0.183572998015462,-0.0182382294319789,,
73.1307501664131,-0.178492385632316,-0.0179165929974889,,
73.5176853524788,-0.173461242756272,-0.0176339965288288,,
73.9046205385444,-0.168350255390737,-0.0173307623542085,,
74.2915557246101,-0.163160774840537,-0.0170189190341157,,
74.6784909106758,-0.158106366020535,-0.0167158427220189,,
75.0654260967415,-0.152691570078727,-0.0164151625375091,,
75.4523612828071,-0.147519245224577,-0.0160925591950636,,
75.8392964688728,-0.142073310519391,-0.0157762929053424,,
76.2262316549385,-0.136859212720408,-0.0154700396099621,,
76.6131668410042,-0.131521206144136,-0.0151076098080436,,
77.0001020270699,-0.12599589696853,-0.0147793008629669,,
77.3870372131355,-0.120725338128781,-0.014443437068556,,
77.7739723992012,-0.115264891584814,-0.0141345903174344,,
78.1609075852669,-0.109672310929835,-0.0137616485628422,,
78.5478427713326,-0.104168681383825,-0.013423690271023,,
78.9347779573982,-0.0986115871686204,-0.0130749071204566,,
79.3217131434639,-0.0930651271348707,-0.0127363765769903,,
79.7086483295296,-0.0875237198061218,-0.0123682919139658,,
80.0955835155953,-0.0818535272522344,-0.0120469035491553,,
80.482518701661,-0.0762051318327113,-0.0116678107940982,,
80.8694538877266,-0.0705901077671474,-0.0113198789735689,,
81.2563890737923,-0.0648374856188853,-0.0109451387137991,,
81.643324259858,-0.0592235778486123,-0.0106077385787593,,
82.0302594459237,-0.0535470987896656,-0.0102146637144873,,
82.4171946319893,-0.0478373658815272,-0.00983845195048172,,
82.804129818055,-0.0421188788682129,-0.00950175655884955,,
83.1910650041207,-0.036408382179086,-0.00911609559522963,,
83.5780001901864,-0.0306346679250644,-0.00874534700212282,,
83.9649353762521,-0.0249143008354706,-0.00835506292174681,,
84.3518705623177,-0.0191382364860998,-0.00798172087289872,,
84.7388057483834,-0.0134037688244106,-0.00761204912771918,,
85.1257409344491,-0.00763733986597171,-0.00720036621850229,,
85.5126761205148,-0.00185446024008809,-0.00683719220754497,,
85.8996113065804,0.00392839000960366,-0.0064264790252575,,
86.2865464926461,0.00970163424455539,-0.00606711626665035,,
86.6734816787118,0.0154911235136088,-0.00566309814673893,,
87.0604168647775,0.0212274712515774,-0.00529158279280439,,
87.4473520508432,0.0269024815009307,-0.00490795149019974,,
87.8342872369088,0.0326618601733219,-0.00451027606096011,,
88.2212224229745,0.0384839863915379,-0.00412887738547196,,
88.6081576090402,0.0441911929471758,-0.0036997450294729,,
88.9950927951059,0.0497914701644232,-0.00333816937656461,,
89.3820279811715,0.0555282879214617,-0.00294901852358853,,
89.7689631672372,0.0612787362315258,-0.0025669855790329,,
90.1558983533029,0.0670364698371725,-0.00217481278632325,,
90.5428335393686,0.0725906558093828,-0.00173139950990464,,
90.9297687254343,0.0781827370690997,-0.00133951989045222,,
91.3167039114999,0.0838168556593762,-0.000980244520027984,,
91.7036390975656,0.0894819955082628,-0.000589715188945572,,
92.0905742836313,0.0950007244168914,-0.000200651724151957,,
92.477509469697,0.100517573249241,0.000194027136116937,,
92.8644446557626,0.106146286620214,0.000600680996374336,,
93.2513798418283,0.111570747329146,0.000994812975758208,,
93.638315027894,0.117103371176527,0.00136748692785549,,
94.0252502139597,0.122593928317157,0.00177152478058229,,
94.4121854000254,0.127932874931568,0.0021475082077238,,
94.799120586091,0.13345039941633,0.00255867242579244,,
95.1860557721567,0.138745634257246,0.00292407906386627,,
95.5729909582224,0.14404556928886,0.00330509153996683,,
95.9599261442881,0.149371561002659,0.00369586894072915,,
96.3468613303537,0.154694556344887,0.00411688829061507,,
96.7337965164194,0.159920463373,0.00447501633877101,,
97.1207317024851,0.164963767992477,0.00486236586759681,,
97.5076668885508,0.170181214677332,0.00521382986208696,,
97.8946020746165,0.175190237280902,0.00560300608582587,,
98.2815372606821,0.180508473680048,0.00598368028509055,,
98.6684724467478,0.185329224269952,0.00639195787416025,,
99.0554076328135,0.190276674375371,0.0067547259529146,,
99.4423428188792,0.195396298341314,0.00713984285462343,,
99.8292780049448,0.200085472967852,0.00753021432318235,,
100.216213191011,0.205025608401497,0.00786091375789955,,
100.603148377076,0.209840718762562,0.00820099473686353,,
100.990083563142,0.21467933007712,0.00857834818518999,,
101.377018749208,0.219257785836516,0.00893113145933988,,
101.763953935273,0.223790414736602,0.00932716342695183,,
102.150889121339,0.228520951041286,0.009664019500081,,
102.537824307405,0.232905465181986,0.0100185505378829,,
102.92475949347,0.23729617769917,0.0103581241015931,,
103.311694679536,0.24183139170414,0.0107108566342178,,
103.698629865602,0.246221604826062,0.0110538186042337,,
104.085565051667,0.250618868234031,0.0114245643783666,,
104.472500237733,0.254751745915211,0.0117630723700444,,
104.859435423799,0.258849607175687,0.0120854050910215,,
105.246370609864,0.262792832162183,0.012439851559614,,
105.63330579593,0.267034519258033,0.012761005949613,,
106.020240981996,0.271108644555481,0.0130814668720984,,
106.407176168061,0.274866212009387,0.0134098998520154,,
106.794111354127,0.278764080155642,0.0137179291007836,,
107.181046540193,0.282782743202849,0.0140700978386819,,
107.567981726258,0.286593892830717,0.0143535061717484,,
107.954916912324,0.289950299008507,0.0146682671295495,,
108.34185209839,0.293733717511254,0.0149599970727778,,
108.728787284455,0.297189297712781,0.0152787158695586,,
109.115722470521,0.300820430036898,0.0155715959540288,,
109.502657656587,0.303894824772778,0.0158641321237156,,
109.889592842652,0.307324553925464,0.0161379841361695,,
110.276528028718,0.310608577166497,0.016466817410342,,
110.663463214784,0.313593433269571,0.0167062723065383,,
111.050398400849,0.316512721712402,0.0170064760845041,,
111.437333586915,0.319901324196476,0.0172886440691729,,
111.824268772981,0.322892525556993,0.0175686019785135,,
112.211203959047,0.325515231966749,0.0178166491063401,,
112.598139145112,0.328449091000745,0.0180619449159023,,
112.985074331178,0.331449692742659,0.0183521638892636,,
113.372009517244,0.333921523030993,0.0185845826272746,,
113.758944703309,0.336345411374203,0.0188427498704402,,
114.145879889375,0.33883886253975,0.0190983856752842,,
114.532815075441,0.340951363249185,0.0193666335681577,,
114.919750261506,0.343662198234538,0.019570975328794,,
115.306685447572,0.345603141983478,0.0198063257993821,,
115.693620633638,0.348173676276481,0.0200277167125447,,
116.080555819703,0.35028923210987,0.0202534601209949,,
116.467491005769,0.351907037748289,0.0204864652055212,,
116.854426191835,0.353823775515132,0.0207072303065377,,
117.2413613779,0.355887394241303,0.0208700260337853,,
117.628296563966,0.357555021901126,0.0211118939714106,,
118.015231750032,0.359132640909073,0.0212869409580634,,
118.402166936097,0.360639757056543,0.021484060508254,,
118.789102122163,0.362209385740303,0.0216727795170217,,
119.176037308229,0.363649994189389,0.0218762643096739,,
119.562972494294,0.364908940267979,0.0220549026687338,,
119.94990768036,0.366275990732634,0.0222461587537701,,
120.336842866426,0.367568543174718,0.0223796878967706,,
120.723778052491,0.368647941968625,0.0225517862370039,,
121.110713238557,0.369781862974636,0.0226947814934606,,
121.497648424623,0.370412158547303,0.0228471188285337,,
121.884583610688,0.371271823426056,0.0230110872488125,,
122.271518796754,0.37177168870684,0.0231631370485754,,
122.65845398282,0.372511028703712,0.023317791579974,,
123.045389168886,0.373261884167795,0.0234295582465354,,
123.432324354951,0.373645184719257,0.0235741885076983,,
123.819259541017,0.373959157457916,0.0236608775848297,,
124.206194727083,0.374200747259818,0.0237938203813148,,
124.593129913148,0.374146225047716,0.0239023452281995,,
124.980065099214,0.374302271378905,0.0240034674503264,,
125.36700028528,0.374500619426382,0.0241011561625695,,
125.753935471345,0.374713538065023,0.0241535439685467,,
126.140870657411,0.37425808958634,0.0242973792791457,,
126.527805843477,0.374219078003542,0.0243681467932033,,
126.914741029542,0.373789480573701,0.0244405380360728,,
127.301676215608,0.373393489507353,0.0244843561622088,,
127.688611401674,0.372731702657006,0.024578414036414,,
128.075546587739,0.372444756014863,0.0246390783489745,,
128.462481773805,0.371452075739343,0.0247044165198171,,
128.849416959871,0.370498172037085,0.0247698561737102,,
129.236352145936,0.36998679128909,0.0248123211925027,,
129.623287332002,0.369164727935924,0.0248169273954173,,
130.010222518068,0.368167347469705,0.0248585072564893,,
130.397157704133,0.366744834754808,0.0248807940620237,,
130.784092890199,0.365675071351832,0.0248991455803682,,
131.171028076265,0.364289690143453,0.024935730220164,,
131.55796326233,0.363082446162547,0.024966626171171,,
131.944898448396,0.361824205112562,0.0249732563971534,,
132.331833634462,0.359985255501779,0.0249664852224893,,
132.718768820527,0.358454638400816,0.0249504339866284,,
133.105704006593,0.356537430614904,0.0249327533840087,,
133.492639192659,0.355003993399522,0.0249500731580037,,
133.879574378724,0.352905358252648,0.0249187938265831,,
