Time domain (s),Current (AC) (A),Potential (AC) (V),Frequency (Hz),Column 5
0,-0.34559844179278,-0.00645057667269899,251.19,0.4
0.000124407818782595,-0.311905418532593,-0.00602184992778509,,
0.00024881563756519,-0.265834854334628,-0.00535798672747134,,
0.000373223456347785,-0.209671335640265,-0.00447532277957929,,
0.000497631275130379,-0.145456860298464,-0.00346007069026033,,
0.000622039093912974,-0.075602391128014,-0.00224883714638846,,
0.000746446912695569,-0.00312051535710933,-0.0010168880120669,,
0.000870854731478164,0.0698610200612364,0.000297578529100395,,
0.000995262550260759,0.140447984575854,0.00159552381849171,,
0.00111967036904335,0.205288260932967,0.0028362379446607,,
0.00124407818782595,0.26216905810411,0.00396419883939592,,
0.00136848600660854,0.308545369707012,0.00494336916293348,,
0.00149289382539114,0.343427834975835,0.00573413136118894,,
0.00161730164417373,0.365166451965872,0.0062865819504685,,
0.00174170946295633,0.372552331629475,0.00662227538895666,,
0.00186611728173892,0.366188273423724,0.00668465997016421,,
0.00199052510052152,0.345652670242963,0.00653024558785908,,
0.00211493291930411,0.311672876597786,0.00609526784100778,,
0.00223934073808671,0.266090897222928,0.00542885667794746,,
0.0023637485568693,0.210024231833146,0.00453830841866543,,
0.0024881563756519,0.145844067883444,0.00346583823259961,,
0.00261256419443449,0.0761516965397079,0.00230565540898153,,
0.00273697201321709,0.00368747586011433,0.00103254164986177,,
0.00286137983199968,-0.0695558308039453,-0.000280775041451076,,
0.00298578765078228,-0.140124493951031,-0.00155445327231796,,
0.00311019546956487,-0.205056218393421,-0.00279520659791377,,
0.00323460328834747,-0.262075171794908,-0.00392477205585529,,
0.00335901110713006,-0.309028196796515,-0.00488671815122865,,
0.00348341892591266,-0.344030516928148,-0.00567469980347157,,
0.00360782674469525,-0.365774539137489,-0.00626501181251182,,
0.00373223456347785,-0.373143028095507,-0.00658450020793433,,
0.00385664238226044,-0.366634439025777,-0.00665129864460701,,
0.00398105020104304,-0.345955480028713,-0.00647949016995453,,
0.00410545801982563,-0.312093191150998,-0.00605912335614311,,
0.00422986583860822,-0.265903947137895,-0.00539589518654449,,
0.00435427365739082,-0.209627858876304,-0.00448878647605966,,
0.00447868147617341,-0.145487881557074,-0.00345923182252506,,
0.00460308929495601,-0.0756547982543022,-0.0023008939852649,,
0.0047274971137386,-0.00309701440361689,-0.00102017031074286,,
0.0048519049325212,0.0698424543079774,0.00027863736603928,,
0.00497631275130379,0.140566693767183,0.00157903392625736,,
0.00510072057008639,0.205238468287755,0.00283412640220027,,
0.00522512838886898,0.262060483698975,0.00395512547872423,,
0.00534953620765158,0.308688020494712,0.00491055140276275,,
0.00547394402643417,0.343335241219074,0.00570450704766001,,
0.00559835184521677,0.365092423962371,0.00627445626109147,,
0.00572275966399936,0.372775355678118,0.00661184311482055,,
0.00584716748278196,0.366227520016056,0.00666548883713247,,
0.00597157530156455,0.345688391692272,0.00649901148453313,,
0.00609598312034715,0.311723403647794,0.00606928646088178,,
0.00622039093912974,0.266075386593623,0.00540190837862564,,
0.00634479875791234,0.209990361083925,0.00451386888266292,,
0.00646920657669493,0.145913366320055,0.00349631448033971,,
0.00659361439547753,0.076101198865891,0.00230722861264665,,
0.00671802221426012,0.00367431532615857,0.00105380341899286,,
0.00684243003304272,-0.069593902348603,-0.000276740113779095,,
0.00696683785182531,-0.140292349511351,-0.00155100372275374,,
0.00709124567060791,-0.205171843084604,-0.00280339927812845,,
0.0072156534893905,-0.261900089691389,-0.00392435654193068,,
0.0073400613081731,-0.308799297509498,-0.00490296239372112,,
0.00746446912695569,-0.343693983274136,-0.00570543215413366,,
0.00758887694573829,-0.365335482573867,-0.00627471236401345,,
0.00771328476452088,-0.37344431031928,-0.00660396664331531,,
0.00783769258330348,-0.366718807448815,-0.00667736887676718,,
0.00796210040208607,-0.346052010195184,-0.00647399179701269,,
0.00808650822086867,-0.312109876827978,-0.00605044982962566,,
0.00821091603965126,-0.265737560387169,-0.0054124713175181,,
0.00833532385843386,-0.20972180393789,-0.00452758868206526,,
0.00845973167721645,-0.14545380517451,-0.00346554815684064,,
0.00858413949599905,-0.0756478067206382,-0.00231111719579102,,
0.00870854731478164,-0.00311910529989978,-0.00103432391713598,,
0.00883295513356423,0.0698696860378368,0.000273766183927826,,
0.00895736295234683,0.140402157716544,0.00155839412136549,,
0.00908177077112942,0.205181595980303,0.00284497680355633,,
0.00920617858991202,0.261995386057801,0.00394567580355476,,
0.00933058640869461,0.308694835771224,0.00491997494498087,,
0.00945499422747721,0.343350046819775,0.0056871704478052,,
0.0095794020462598,0.36498878475747,0.00627339003668093,,
0.0097038098650424,0.372643750338561,0.00660933435150124,,
0.00982821768382499,0.366059488198585,0.00668037416616052,,
0.00995262550260759,0.345594152868767,0.00648876736764592,,
0.0100770333213902,0.311887440303172,0.00606161382639669,,
0.0102014411401728,0.266112518100141,0.00541566476415989,,
0.0103258489589554,0.21002020729486,0.00454402108180751,,
0.010450256777738,0.145865894394,0.00348542226626147,,
0.0105746645965206,0.0761784876266892,0.00229706289461307,,
0.0106990724153032,0.0036910010031382,0.00104621440995212,,
0.0108234802340858,-0.0695595909565041,-0.000268356663020164,,
0.0109478880528683,-0.14023171705134,-0.00154952198441816,,
0.0110722958716509,-0.205122256072734,-0.00280645160683335,,
0.0111967036904335,-0.262062070013336,-0.00394022446992537,,
0.0113211115092161,-0.308742248944895,-0.00491671877925581,,
0.0114455193279987,-0.343841099242999,-0.00569868201282731,,
0.0115699271467813,-0.365568670784895,-0.00628129786772647,,
0.0116943349655639,-0.373645008462106,-0.00657695562491067,,
0.0118187427843465,-0.366487323056915,-0.00666860911151046,,
0.0119431506031291,-0.345941144447083,-0.00649644522872084,,
0.0120675584219117,-0.312168394202174,-0.00605132789678731,,
0.0121919662406943,-0.26584354968742,-0.00539307282781021,,
0.0123163740594769,-0.209767454540049,-0.00454738700592694,,
0.0124407818782595,-0.14536262147496,-0.00348452851932857,,
0.0125651896970421,-0.0755920507084774,-0.00229550014412849,,
0.0126895975158247,-0.00311699021408546,-0.00104448440857929,,
0.0128140053346073,0.0698381947601569,0.000272010049604088,,
0.0129384131533899,0.140406622897708,0.00155835230864376,,
0.0130628209721725,0.205298160709625,0.00279925459206121,,
0.0131872287909551,0.262068239013627,0.00392742455040684,,
0.0133116366097376,0.308888483628002,0.00491240684230077,,
0.0134360444285202,0.343609732355866,0.00572766606905128,,
0.0135604522473028,0.365138955850286,0.00628520213064254,,
0.0136848600660854,0.372580062754596,0.00660996154233118,,
0.013809267884868,0.366203549043494,0.0066862488535997,,
0.0139336757036506,0.34543105625153,0.00652207120071013,,
0.0140580835224332,0.311694967494069,0.00606543446386842,,
0.0141824913412158,0.266051180611525,0.00540149025140568,,
0.0143068991599984,0.210066739182776,0.00454186250003463,,
0.014431306978781,0.145900000152756,0.00349094154556395,,
0.0145557147975636,0.076104694632723,0.00228752959399925,,
0.0146801226163462,0.00373776790058815,0.00104216118921396,,
0.0148045304351288,-0.0696014226537206,-0.000257548074385827,,
0.0149289382539114,-0.140141943408999,-0.00156912953773602,,
0.015053346072694,-0.205064913746213,-0.00282482829814779,,
0.0151777538914766,-0.262057604832172,-0.00391716475374837,,
0.0153021617102592,-0.308972734546272,-0.00489556154192927,,
0.0154265695290418,-0.34391700732278,-0.00570160629007166,,
0.0155509773478244,-0.365598046976761,-0.00626455448586505,,
0.015675385166607,-0.372862191701273,-0.00658717622214189,,
0.0157997929853895,-0.366685906113926,-0.00663187663524312,,
0.0159242008041721,-0.346133147237116,-0.00647953198267626,,
0.0160486086229547,-0.312174269440547,-0.00605956500301907,,
0.0161730164417373,-0.265817463629043,-0.00540222720063044,,
0.0162974242605199,-0.209655590001425,-0.00451554661813258,,
0.0164218320793025,-0.145420198811016,-0.00346475110182798,,
0.0165462398980851,-0.075530948229397,-0.00230267102594928,,
0.0166706477168677,-0.00316234705432586,-0.00105957880121732,,
0.0167950555356503,0.0698668659234177,0.000272010049604088,,
0.0169194633544329,0.140548568656802,0.00158152178321558,,
0.0170438711732155,0.205195226533329,0.00284052374866439,,
0.0171682789919981,0.261985045638264,0.00394657477707749,,
0.0172926868107807,0.308452070921648,0.00490429517423507,,
0.0174170946295633,0.343244527538594,0.00571006813968422,,
0.0175415024483459,0.365179612499828,0.00627713227529858,,
0.0176659102671285,0.372804026841379,0.0066484710592829,,
0.0177903180859111,0.366254781122107,0.00667646467665461,,
0.0179147259046937,0.345548561018992,0.00650745765437488,,
0.0180391337234763,0.31170601294221,0.00607020111417533,,
0.0181635415422588,0.266174560617361,0.00539653544385033,,
0.0182879493610414,0.210057808820448,0.00452988315518477,,
0.018412357179824,0.14592887694936,0.00349349212160543,,
0.0185367649986066,0.0760962636656576,0.00231978810901401,,
0.0186611728173892,0.00369781627965101,0.00103837452457922,,
0.0187855806361718,-0.0694982534678888,-0.000283973714683139,,
0.0189099884549544,-0.140161625457549,-0.00154868311668332,,
0.019034396273737,-0.204973025018058,-0.00279119257660287,,
0.0191588040925196,-0.261914660282554,-0.00393280009847707,,
0.0192832119113022,-0.309019971462792,-0.00491429364138041,,
0.0194076197300848,-0.343891626293008,-0.00570131621431269,,
0.0195320275488674,-0.365588646595364,-0.00626651707050341,,
0.01965643536765,-0.373422924451602,-0.00657737375213063,,
0.0197808431864326,-0.366779674918361,-0.00665673168517067,,
0.0199052510052152,-0.345976865896392,-0.00650468233495261,,
0.0200296588239978,-0.311936733553122,-0.00603472563286278,,
0.0201540666427804,-0.266011346495356,-0.00538315798610833,,
0.020278474461563,-0.209739723414928,-0.00451184619223666,,
0.0204028822803456,-0.145511147501032,-0.00346378940922198,,
0.0205272900991282,-0.0756433415394746,-0.0023200233055749,,
0.0206516979179107,-0.00315247665385904,-0.00104521351791886,,
0.0207761057366933,0.0698981221915626,0.000299062880730894,,
0.0209005135554759,0.140536612546713,0.00155474073478157,,
0.0210249213742585,0.205119318453548,0.00281499708189026,,
0.0211493291930411,0.262023587201992,0.0039475155633224,,
0.0212737370118237,0.308457711150486,0.00493076262725412,,
0.0213981448306063,0.343511028351198,0.00570960819974253,,
0.0215225526493889,0.364841668788607,0.00627412175931541,,
0.0216469604681715,0.372787341164399,0.00661690245418134,,
0.0217713682869541,0.366040217416721,0.00666408811094588,,
0.0218957761057367,0.345552321171551,0.00648130379677081,,
0.0220201839245193,0.311806127004088,0.00603591468214448,,
0.0221445917433019,0.26612967379619,0.00538576866793816,,
0.0222689995620845,0.210074494497428,0.00451561979039639,,
0.0223934073808671,0.14586730445121,0.00347455095854432,,
0.0225178151996497,0.0760783735648115,0.0022885174195566,,
0.0226422230184323,0.00368630081243971,0.00104393561660343,,
0.0227666308372149,-0.0695757478620301,-0.000275799327534187,,
0.0228910386559975,-0.140283125387105,-0.00157395890712575,,
0.02301544647478,-0.205044467916675,-0.00282993206352522,,
0.0231398542935626,-0.261877822537955,-0.00392680258616673,,
0.0232642621123452,-0.308685141627909,-0.00491187111679992,,
0.0233886699311278,-0.343887161111844,-0.00569974562394293,,
0.0235130777499104,-0.365553101403207,-0.00625437047476574,,
0.023637485568693,-0.373230451642499,-0.0065972766077973,,
0.0237618933874756,-0.366493257047672,-0.0066434561459392,,
0.0238863012062582,-0.346164168495726,-0.00648454950931487,,
0.0240107090250408,-0.312043134120059,-0.00603359668936898,,
0.0241351168438234,-0.265995835866051,-0.00541174220817808,,
0.024259524662606,-0.209843303867446,-0.00452995110085785,,
0.0243839324813886,-0.145468552022827,-0.00348975510957716,,
0.0245083403001712,-0.0754983406564263,-0.0022843570537181,,
0.0246327481189538,-0.00313018012423309,-0.00105466319308878,,
0.0247571559377364,0.0698589049754221,0.000272867210405092,,
0.024881563756519,0.140487701187256,0.00157117313452337,,
0.0250059715753016,0.205192406418909,0.00281660687168683,,
0.0251303793940842,0.261963894780121,0.00394299978934765,,
0.0252547872128668,0.308686140418432,0.00492718763952382,,
0.0253791950316494,0.343643103709825,0.00569190051198021,,
0.0255036028504319,0.365419792244521,0.00628049819941889,,
0.0256280106692145,0.372597688469715,0.00659909023461402,,
0.0257524184879971,0.366146911745577,0.00668560075640912,,
0.0258768263067797,0.345578642239462,0.00650083033793969,,
0.0260012341255623,0.312020220690404,0.00607229697686495,,
0.0261256419443449,0.266279139860402,0.00541248699728891,,
0.0262500497631275,0.210055018082221,0.00453727878038679,,
0.0263744575819101,0.146001964914722,0.00347898833366544,,
0.0264988654006927,0.0760974387133322,0.00229695836280808,,
0.0266232732194753,0.003753748548963,0.00103933621718477,,
0.0267476810382579,-0.0695508956037119,-0.000294405988819246,,
0.0268720888570405,-0.140212622526627,-0.00157291358907585,,
0.0269964966758231,-0.205032717439928,-0.00281539952933896,,
0.0271209044946057,-0.262120352377997,-0.0039348724415107,,
0.0272453123133883,-0.30887191545579,-0.0049250186045704,,
0.0273697201321709,-0.343838514138115,-0.00572288896556383,,
0.0274941279509535,-0.365667551046715,-0.00625192443052924,,
0.0276185357697361,-0.373518808341851,-0.0065874270984736,,
0.0277429435885187,-0.366765633098649,-0.00666950808503319,,
0.0278673514073012,-0.346021928974713,-0.00652556778958635,,
0.0279917592260838,-0.312011877851914,-0.00606173665126741,,
0.0281161670448664,-0.266107230385605,-0.00538742288375138,,
0.028240574863649,-0.209738783376789,-0.00453285708503604,,
0.0283649826824316,-0.145322199834953,-0.00348434036207967,,
0.0284893905012142,-0.0755328283056764,-0.00233179358681479,,
0.0286137983199968,-0.00312994511469817,-0.00105631740890244,,
0.0287382061387794,0.0698908662721718,0.000269605818089769,,
0.028862613957562,0.140511202140749,0.00155497070475263,,
0.0289870217763446,0.20518344668039,0.00281607898607161,,
0.0291114295951272,0.26221582500156,0.00393087409997106,,
0.0292358374139098,0.308682145256338,0.00491609158842632,,
0.0293602452326924,0.343754968248449,0.0056968762258971,,
0.029484653051475,0.365195593148203,0.00625996815292229,,
0.0296090608702576,0.372883695073718,0.0066033133195349,,
0.0297334686890402,0.366083929190217,0.00667727479814273,,
0.0298578765078228,0.345497563949913,0.00649639818940884,,
0.0299822843266054,0.311775575764548,0.00602074189065283,,
0.030106692145388,0.265918870243363,0.00537475101569385,,
0.0302310999641706,0.209983780816947,0.00452793886361214,,
0.0303555077829531,0.145819832525155,0.00348596583164706,,
0.0304799156017357,0.0761002588277513,0.00230837323591082,,
0.0306043234205183,0.00365645460150432,0.0010404233479564,,
0.0307287312393009,-0.0695250445548702,-0.000248809215490198,,
0.0308531390580835,-0.140195936849648,-0.00156666258713845,,
0.0309775468768661,-0.205014856715274,-0.00279852809601655,,
0.0311019546956487,-0.261978112856984,-0.00392914409859824,,
0.0312263625144313,-0.30898119488953,-0.0048975058335019,,
0.0313507703332139,-0.343910192046267,-0.00569830308503461,,
0.0314751781519965,-0.365283310457113,-0.00627839188354828,,
0.0315995859707791,-0.373408118850902,-0.00658431466398079,,
0.0317239937895617,-0.366574746603907,-0.0066601002225859,,
0.0318484016083443,-0.345739741275653,-0.00649872402206908,,
0.0319728094271269,-0.311928919486086,-0.00605563460715208,,
0.0320972172459095,-0.265611830285984,-0.00540454780670085,,
0.0322216250646921,-0.209621278609326,-0.00451358142019886,,
0.0323460328834747,-0.145407919562816,-0.00347859372610149,,
0.0324704407022573,-0.0755986309754552,-0.00231013459682439,,
0.0325948485210399,-0.00316211204479094,-0.00100495047993876,,
0.0327192563398225,0.069902851758453,0.000275856820027176,,
0.032843664158605,0.140459529419257,0.00157674990631884,,
0.0329680719773876,0.205310146195907,0.00281167297049212,,
0.0330924797961702,0.26187271108057,0.00392629038032277,,
0.0332168876149528,0.30870846632425,0.00493621918747378,,
0.0333412954337354,0.343480242102123,0.00572601969312325,,
0.033465703252518,0.364987139690725,0.00627308166785623,,
0.0335901110713006,0.372820007489754,0.00663431745288934,,
0.0337145188900832,0.366259716322341,0.00668268954564066,,
0.0338389267088658,0.345496388902239,0.00650116483971575,,
0.0339633345276484,0.312003064994354,0.00606405987063319,,
0.034087742346431,0.266094422365951,0.00539992227433128,,
0.0342121501652136,0.210264176568304,0.0045280015826954,,
0.0343365579839962,0.145910311196101,0.00348663483519918,,
0.0344609658027788,0.0761068097185373,0.00230826870410583,,
0.0345853736215614,0.00371614702337511,0.00103668372263366,,
0.034709781440344,-0.069516995478299,-0.000268273037576261,,
0.0348341892591266,-0.140149874980803,-0.00156957118461198,,
0.0349585970779092,-0.205024727115741,-0.00282572988496543,,
0.0350830048966918,-0.261934694845407,-0.00396150714541754,,
0.0352074127154743,-0.308755115716932,-0.00491489992584926,,
0.0353318205342569,-0.343793803574096,-0.00569462617879468,,
0.0354562283530395,-0.365636999807175,-0.00626538812701005,,
0.0355806361718221,-0.373530558818598,-0.00658197053825438,,
0.0357050439906047,-0.366756408974403,-0.00666511513592916,,
0.0358294518093873,-0.345793793468686,-0.00649602710150088,,
0.0359538596281699,-0.311896488170266,-0.00606479159326767,,
0.0360782674469525,-0.265877156050914,-0.00539884298344484,,
0.0362026752657351,-0.209676740859569,-0.00452031326843949,,
0.0363270830845177,-0.14539176265729,-0.00348250060231203,,
0.0364514909033003,-0.0755955758515012,-0.00229842703466776,,
0.0365758987220829,-0.00315908629702879,-0.00103562011151759,,
0.0367003065408655,0.069850180246438,0.000270068371326815,,
0.0368247143596481,0.140474805039027,0.00159585832026776,,
0.0369491221784307,0.205383939189873,0.00281599536062771,,
0.0370735299972133,0.262051553336648,0.00395232402635104,,
0.0371979378159959,0.308510353286309,0.00492819114485155,,
0.0373223456347785,0.343537584428644,0.0057091848459323,,
0.037446753453561,0.364965283803977,0.00630537676900245,,
0.0375711612723436,0.372979108944898,0.00660067911804951,,
0.0376955690911262,0.366160542298602,0.00667351687975426,,
0.0378199769099088,0.345389694573383,0.00650992460497246,,
0.0379443847286914,0.311497794494267,0.00606702857389463,,
0.038068792547474,0.266074916574553,0.00539505109221938,,
0.0381932003662566,0.210167558273258,0.00453399648171038,,
0.0383176081850392,0.145849678736091,0.00346108726206396,,
0.0384420160038218,0.0760353961961122,0.00230005250423515,,
0.0385664238226044,0.00373095262407534,0.00103356606155014,,
0.038690831641387,-0.0695993075679063,-0.000300866054366633,,
0.0388152394601696,-0.140198815716451,-0.0015897850223987,,
0.0389396472789522,-0.205128131311108,-0.00283112372610228,,
0.0390640550977348,-0.261869303442314,-0.00393840561651881,,
0.0391884629165174,-0.308939598201848,-0.0049250186045704,,
0.0393128707353,-0.343971999553952,-0.00569069316963233,,
0.0394372785540826,-0.365493643990871,-0.00625961797137542,,
0.0395616863728652,-0.373589546211864,-0.00659044022775213,,
0.0396860941916478,-0.366577566718326,-0.00666591219094226,,
0.0398105020104304,-0.346081856406119,-0.00647714865752302,,
0.0399349098292129,-0.311648788120456,-0.00604825204842596,,
0.0400593176479955,-0.266062578573969,-0.00538150899688494,,
0.0401837254667781,-0.209753060206035,-0.00453070111655851,,
0.0403081332855607,-0.145512557558242,-0.00346423105609794,,
0.0404325411043433,-0.0755953408419663,-0.00231368867819359,,
0.0405569489231259,-0.00312994511469817,-0.00102581502821142,,
0.0406813567419085,0.0698391347982966,0.000277173920769869,,
0.0408057645606911,0.140458560004926,0.00159311958697739,,
0.0409301723794737,0.205245518573802,0.00282827262112173,,
