Time domain (s),Current (AC) (A),Potential (AC) (V),Frequency (Hz),Column 5
0,-0.219581046756393,-0.00392826494170206,501.19,0.3
6.23516031844211E-05,-0.180963876401009,-0.00338015965059446,,
0.000124703206368842,-0.134947254906314,-0.00269801123303459,,
0.000187054809553263,-0.084110401777023,-0.00189899831223661,,
0.000249406412737684,-0.0299706366201115,-0.00105140653879543,,
0.000311758015922105,0.0246124661484292,-0.000157115837515764,,
0.000374109619106527,0.0795941867798191,0.000739453711603666,,
0.000436461222290948,0.131306752170461,0.00163213874766566,,
0.000498812825475369,0.177772421152779,0.00246158949606912,,
0.00056116442865979,0.216944637133726,0.00315392042410956,,
0.000623516031844211,0.247988570564064,0.00375180632350469,,
0.000685867635028632,0.269377560479692,0.00419645591190365,,
0.000748219238213053,0.280448987191332,0.00448734061628508,,
0.000810570841397474,0.28071056803034,0.00460115335830169,,
0.000872922444581895,0.270745783804727,0.00455390092475128,,
0.000935274047766316,0.249971656175569,0.00433150133248272,,
0.000997625650950737,0.219699058473424,0.00391524509113239,,
0.00105997725413516,0.180838304808163,0.00338402920403835,,
0.00112232885731958,0.135318602401419,0.00269023223384313,,
0.001184680460504,0.084451486929363,0.00191957276779009,,
0.00124703206368842,0.0304790211390572,0.00105403943082916,,
0.00130938366687284,-0.0242158124829218,0.00017304283970665,,
0.00137173527005726,-0.0794726577791762,-0.000739747917342548,,
0.00143408687324168,-0.131171519467434,-0.00159282488252099,,
0.00149643847642611,-0.177627618697587,-0.00241923384277953,,
0.00155879007961053,-0.216948382812378,-0.00313085768612176,,
0.00162114168279495,-0.248269884734505,-0.00375561603849306,,
0.00168349328597937,-0.269757564146802,-0.00421056781428319,,
0.00174584488916379,-0.281016297630529,-0.00449808161901499,,
0.00180819649234821,-0.281597014858559,-0.00462094991393647,,
0.00187054809553263,-0.270680919613442,-0.00454393782194096,,
0.00193289969871705,-0.250141810480171,-0.0043080945233771,,
0.00199525130190147,-0.219682271438004,-0.00390888226871677,,
0.0020576029050859,-0.180884257890158,-0.0033643024599348,,
0.00211995450827032,-0.134985077124894,-0.00269136417795623,,
0.00218230611145474,-0.0840636264728854,-0.00190059899091644,,
0.00224465771463916,-0.029974519335787,-0.00107727669764479,,
0.00230700931782358,0.0246451266391113,-0.000167572607582933,,
0.002369360921008,0.0796382213434799,0.000768609998957892,,
0.00243171252419242,0.131339572537671,0.00161219259589274,,
0.00249406412737684,0.177474708218485,0.00241389824717997,,
0.00255641573056126,0.216937282813447,0.00317630000639868,,
0.00261876733374569,0.247859618724629,0.00373670708661233,,
0.00268111893693011,0.269343620976787,0.0041850467130895,,
0.00274347054011453,0.280575540882849,0.00450760590648613,,
0.00280582214329895,0.281055604416868,0.004616132918283,,
0.00286817374648337,0.270606919620568,0.00455778045127131,,
0.00293052534966779,0.249917183958592,0.00431431772273028,,
0.00299287695285221,0.219683641808242,0.00392617558230413,,
0.00305522855603663,0.180960290598886,0.00335583531850725,,
0.00311758015922105,0.135176266612656,0.00268842710710748,,
0.00317993176240548,0.0844024961933399,0.00194552271124682,,
0.0032422833655899,0.0305333106400022,0.00104738738921295,,
0.00330463496877432,-0.0242871630933349,0.000199835508075452,,
0.00336698657195874,-0.0794849454323139,-0.000731540075888049,,
0.00342933817514316,-0.131133742927862,-0.00161837590294223,,
0.00349168977832758,-0.177518674263634,-0.00242407577112225,,
0.003554041381512,-0.217028549471325,-0.00313474219917964,,
0.00361639298469642,-0.248257048933272,-0.00374900887571838,,
0.00367874458788084,-0.269771130812163,-0.00420504273024225,,
0.00374109619106526,-0.280975186523377,-0.00449215262540026,,
0.00380344779424969,-0.281232359338119,-0.00460160713325442,,
0.00386579939743411,-0.271029450444078,-0.00452939707729838,,
0.00392815100061853,-0.249914694452659,-0.00430095878758019,,
0.00399050260380295,-0.219644860330495,-0.00392878852818646,,
0.00405285420698737,-0.180876035668727,-0.00334411695434067,,
0.00411520581017179,-0.13490527589801,-0.00269180299329497,,
0.00417755741335621,-0.0839754203085398,-0.00191028783414016,,
0.00423990901654063,-0.0299944810622599,-0.00107267412312329,,
0.00430226061972505,0.0246691537972914,-0.000181948796473375,,
0.00436461222290948,0.0796112478892872,0.000743098870840342,,
0.0044269638260939,0.131275028099442,0.00160326669297417,,
0.00448931542927832,0.177622548327705,0.00244100506743949,,
0.00455166703246274,0.216899871705938,0.00314879426310366,,
0.00461401863564716,0.247805329223684,0.00375405026557907,,
0.00467637023883158,0.269349467889804,0.00422565707809941,,
0.004738721842016,0.280478153237906,0.00449290559262971,,
0.00480107344520042,0.280833627277749,0.00462038144861099,,
0.00486342504838485,0.270807222070416,0.00454605211402859,,
0.00492577665156927,0.249890575936463,0.00434191322370836,,
0.00498812825475369,0.219629740578864,0.00390947068019409,,
0.00505047985793811,0.180952045537951,0.00338511626930993,,
0.00511283146112253,0.135227632657092,0.00270752554743003,,
0.00517518306430695,0.0844478097692233,0.00189662472017549,,
0.00523753466749137,0.0304749785468539,0.0010694179138464,,
0.00529988627067579,-0.0243167174114766,0.000190306234066018,,
0.00536223787386021,-0.0794528330897272,-0.000718804457981115,,
0.00542458947704463,-0.13112309971901,-0.00160351601987152,,
0.00548694108022906,-0.177442710073418,-0.00243497135652815,,
0.00554929268341348,-0.217116618598647,-0.00313413882808877,,
0.0056116442865979,-0.248295602015979,-0.0037335905003979,,
0.00567399588978232,-0.269594672804464,-0.00419314983724739,,
0.00573634749296674,-0.281029316147794,-0.00447288962932557,,
0.00579869909615116,-0.281421835863083,-0.00462010718902395,,
0.00586105069933558,-0.271045209701819,-0.00454842071955186,,
0.00592340230252,-0.250106043816949,-0.00431466179384854,,
0.00598575390570442,-0.219773446737866,-0.00392469956707275,,
0.00604810550888884,-0.180867036904162,-0.00337768134123673,,
0.00611045711207327,-0.135011662307519,-0.00270630384563386,,
0.00617280871525769,-0.0839988993186245,-0.00191433690294973,,
0.00623516031844211,-0.0299752501999142,-0.0010746737248386,,
0.00629751192162653,0.0246807105863019,-0.000181908904169692,,
0.00635986352481095,0.0795512713518529,0.000739693065425318,,
0.00642221512799537,0.131297022541768,0.00160907102314001,,
0.00648456673117979,0.177569903271046,0.0024323983029495,,
0.00654691833436421,0.217047917370694,0.00314602174800749,,
0.00660926993754864,0.247921993409981,0.00375625431534976,,
0.00667162154073306,0.269116893220842,0.00420118314987405,,
0.00673397314391748,0.280289590293101,0.00447856430950511,,
0.0067963247471019,0.28107102108205,0.00460468382716561,,
0.00685867635028632,0.270519056048782,0.00455129795194509,,
0.00692102795347074,0.249972204323664,0.00433867197404503,,
0.00698337955665516,0.219722172051445,0.00393802359645701,,
0.00704573115983958,0.181018439976002,0.00337910250455042,,
0.007108082763024,0.1354070141213,0.00269619613322325,,
0.00717043436620842,0.0844327585361047,0.00189562741258698,,
0.00723278596939285,0.0305070680499367,0.00106340913562475,,
0.00729513757257727,-0.024285335933017,0.000195552071982075,,
0.00735748917576169,-0.0795309898723244,-0.000725690866880679,,
0.00741984077894611,-0.131078699723286,-0.00160063380094044,,
0.00748219238213053,-0.177700065604191,-0.00242271444626363,,
0.00754454398531495,-0.217004156881081,-0.00315524684320234,,
0.00760689558849937,-0.248251202020255,-0.00373386974652279,,
0.00766924719168379,-0.269677762919919,-0.00419883449050262,,
0.00773159879486821,-0.281148172926472,-0.00446664149728271,,
0.00779395039805264,-0.281369579077991,-0.00458762986739947,,
0.00785630200123706,-0.270999347977841,-0.00454189334138411,,
0.00791865360442148,-0.250221977139118,-0.00431750412047593,,
0.0079810052076059,-0.219585980089251,-0.0039271429706651,,
0.00804335681079032,-0.180696060377416,-0.00335024540947293,,
0.00810570841397474,-0.134897190713604,-0.00268856174363208,,
0.00816806001715916,-0.0840832684463025,-0.00190968944958669,,
0.00823041162034358,-0.0299359662530798,-0.0010735168480358,,
0.00829276322352801,0.0246728081179271,-0.000183948398188249,,
0.00835511482671242,0.0796015182605945,0.000721591932691279,,
0.00841746642989685,0.131296839825736,0.00162300341015387,,
0.00847981803308127,0.177577988455453,0.0024323983029495,,
0.00854216963626569,0.216862095166366,0.00313953924868127,,
0.00860452123945011,0.247929873038852,0.0037380634249331,,
0.00866687284263453,0.269418625907836,0.00419814136172869,,
0.00872922444581895,0.280465682868737,0.00446919959124736,,
0.00879157604900337,0.280875103816965,0.00460944098436311,,
0.00885392765218779,0.270645792456331,0.00456355486220961,,
0.00891627925537222,0.249849145076255,0.00431516543418065,,
0.00897863085855664,0.219623847986839,0.00391636207563151,,
0.00904098246174106,0.180876469619303,0.00336296606776632,,
0.00910333406492548,0.135302843143677,0.0027082535819698,,
0.0091656856681099,0.0844553239660305,0.00191957276779009,,
0.00922803727129432,0.030440490895854,0.00107894718785584,,
0.00929038887447874,-0.024282777908572,0.000183255269414317,,
0.00935274047766316,-0.0794376219800809,-0.000717443133122497,,
0.00941509208084758,-0.131094093548964,-0.00163851652969527,,
0.00947744368403201,-0.177536808829789,-0.00242027104267173,,
0.00953979528721643,-0.217103782797413,-0.00313133639376462,,
0.00960214689040085,-0.248156555115789,-0.00373210949862868,,
0.00966449849358527,-0.269905015984455,-0.00416795784755797,,
0.00972685009676969,-0.280839108758703,-0.00447617575782999,,
0.00978920169995411,-0.281479802524167,-0.00461686095282277,,
0.00985155330313853,-0.270827503549944,-0.00453456313060752,,
0.00991390490632295,-0.250054472216977,-0.00430115824909816,,
0.00997625650950737,-0.2197644479733,-0.00390387578462192,,
0.0100386081126918,-0.180696243093448,-0.00334499957155687,,
0.0101009597158762,-0.134924141328293,-0.00268840217441779,,
0.0101633113190606,-0.0840416091910549,-0.00191033271298124,,
0.0102256629222451,-0.0299979983458718,-0.00107643895927056,,
0.0102880145254295,0.0246605204647894,-0.000179864423612841,,
0.0103503661286139,0.0795945522118826,0.000754672625406627,,
0.0104127177317983,0.131196140452717,0.00158439763339713,,
0.0104750693349827,0.177679966840695,0.00242154759638513,,
0.0105374209381672,0.216946829726108,0.00315070909367376,,
0.0105997725413516,0.247848061935619,0.00373237877167787,,
0.010662124144536,0.269446718497723,0.00421007913356464,,
0.0107244757477204,0.280443117438811,0.00446755403372601,,
0.0107868273509048,0.280929210601878,0.00460760593840037,,
0.0108491789540893,0.270614251101344,0.00456190930468825,,
0.0109115305572737,0.249913872230516,0.00433013502108626,,
0.0109738821604581,0.219594499224233,0.00390402538076007,,
0.0110362337636425,0.180845088140843,0.00337846422769372,,
0.011098585366827,0.135336211658982,0.00269507914872369,,
0.0111609369700114,0.0844894461849669,0.00192738168620954,,
0.0112232885731958,0.0304724205224089,0.00105960440717423,,
0.0112856401763802,-0.02430863222707,0.000170963453383965,,
0.0113479917795646,-0.0794713787669536,-0.000730298427940035,,
0.0114103433827491,-0.131211305883356,-0.00161188841707816,,
0.0114726949859335,-0.177492043402001,-0.00241194352430618,,
0.0115350465891179,-0.21713457044877,-0.00314122968504371,,
0.0115973981923023,-0.248352061269802,-0.00373471247143531,,
0.0116597497954867,-0.269990709803364,-0.00417396662577962,,
0.0117221013986712,-0.280885153198714,-0.00446155522858049,,
0.0117844530018556,-0.281473590179086,-0.00459723892601627,,
0.01184680460504,-0.270864731941421,-0.00455410537280709,,
0.0119091562082244,-0.25002258826943,-0.00429819624555972,,
0.0119715078114088,-0.219624852925014,-0.0039099643474505,,
0.0120338594145933,-0.180964241833073,-0.00337031123815645,,
0.0120962110177777,-0.134975164780169,-0.00268836228211411,,
0.0121585626209621,-0.0839719030249279,-0.00193211889725564,,
0.0122209142241465,-0.0299768946442003,-0.00107283369233757,,
0.012283265827331,0.0246682402171324,-0.00018487090770769,,
0.0123456174305154,0.07964333739237,0.000720993548137816,,
0.0124079690336998,0.131139087371792,0.00160919070005106,,
0.0124703206368842,0.177636320548601,0.00242975543783963,,
0.0125326722400686,0.216948656886426,0.00314698913636846,,
0.0125950238432531,0.247954471184631,0.00374391762047832,,
0.0126573754464375,0.26906589260847,0.00418143645961866,,
0.0127197270496219,0.280601418040851,0.00449731369217155,,
0.0127820786528063,0.281111721078131,0.00459514956661788,,
0.0128444302559907,0.270537213454441,0.00454520440257822,,
0.0129067818591752,0.249926159883654,0.00431700048014383,,
0.0129691334623596,0.219750607233892,0.00390871272642679,,
0.013031485065544,0.180914428874907,0.0033701766016323,,
0.0130938366687284,0.135368872149664,0.0026890254916605,,
0.0131561882719128,0.0844468961890643,0.00188432791760729,,
0.0132185398750973,0.0304179254659282,0.00106512949121518,,
0.0132808914782817,-0.0243001816105998,0.000179889356302532,,
0.0133432430814661,-0.079491751604498,-0.000713518727760931,,
0.0134055946846505,-0.131251137978285,-0.00160968436730746,,
0.013467946287835,-0.177528952040422,-0.0024248387114274,,
0.0135302978910194,-0.217137128473215,-0.00311607758765797,,
0.0135926494942038,-0.248042814386001,-0.00373659738277787,,
0.0136550010973882,-0.269762314763629,-0.00420976996821221,,
0.0137173527005726,-0.281128713669087,-0.00447328855236107,,
0.0137797043037571,-0.28134335932743,-0.00457986084128414,,
0.0138420559069415,-0.270829878858357,-0.00454950279828559,,
0.0139044075101259,-0.250110429001712,-0.00430909183096562,,
0.0139667591133103,-0.21958177762052,-0.0039214982097131,,
0.0140291107164947,-0.180801715922798,-0.00335324730531461,,
0.0140914623196792,-0.134910757378964,-0.00269997592898408,,
0.0141538139228636,-0.0839698931485782,-0.00188786337300906,,
0.014216165526048,-0.0299627798307447,-0.001061100368557,,
0.0142785171292324,0.0246526408359185,-0.000193841689467789,,
0.0143408687324168,0.0796523361569355,0.000724997738106303,,
0.0144032203356013,0.131381962657046,0.00159917773186091,,
0.0144655719387857,0.177591737836845,0.00241878505436421,,
0.0145279235419701,0.216975264908555,0.00316497059219145,,
0.0145902751451545,0.247726807009024,0.00376205864551604,,
0.014652626748339,0.26946871294005,0.00419193810852736,,
0.0147149783515234,0.280490623607076,0.00450083418795932,,
0.0147773299547078,0.280883166161868,0.00461372940699434,,
0.0148396815578922,0.270366236927696,0.00454268121437895,,
0.0149020331610766,0.24974714385151,0.00432653474069111,,
0.0149643847642611,0.219592101076316,0.00392012192524094,,
0.0150267363674455,0.18085150604146,0.00338815805745529,,
0.0150890879706299,0.13552093756712,0.00269138911064593,,
0.0151514395738143,0.0843667295301174,0.00191319997229877,,
0.0152137911769987,0.030510197061981,0.00106232705689102,,
0.0152761427801832,-0.0242534063064621,0.000174204703047298,,
0.0153384943833676,-0.0795232701199814,-0.000731176058617944,,
0.015400845986552,-0.131083998488208,-0.00161777253185136,,
0.0154631975897364,-0.177544163150068,-0.00240729607094314,,
0.0155255491929209,-0.216947286516187,-0.00314567269035138,,
0.0155879007961053,-0.24808465635728,-0.00372790584714267,,
0.0156502523992897,-0.269749661678428,-0.00418025465012617,,
0.0157126040024741,-0.281103590214716,-0.00449619670767243,,
0.0157749556056585,-0.281383328459383,-0.00459924351426944,,
0.015837307208843,-0.270982492423908,-0.00456680109841079,,
0.0158996588120274,-0.250101978385242,-0.0043238719294294,,
0.0159620104152118,-0.219839498583357,-0.00390287349049512,,
0.0160243620183962,-0.180735344324251,-0.00337731732396707,,
0.0160867136215806,-0.134922679600038,-0.0027039003343452,,
0.0161490652247651,-0.0840179474649384,-0.00189431096656989,,
0.0162114168279495,-0.0299673477315394,-0.00106814634667085,,
0.0162737684311339,0.0246654766371516,-0.00016953231699457,,
0.0163361200343183,0.0796400485037978,0.000742859517019134,,
0.0163984716375027,0.131285648468789,0.00162324276397507,,
0.0164608232406872,0.177628052648163,0.00244265062496085,,
0.0165231748438716,0.216925543308404,0.00314089558700159,,
0.016585526447056,0.247736171205653,0.00372192698814855,,
0.0166478780502404,0.269392771589338,0.0042178481596804,,
0.0167102296534248,0.280389376085961,0.00448457807426461,,
0.0167725812566093,0.280958376648453,0.00459691480104985,,
0.0168349328597937,0.270587825795246,0.00454296046050384,,
0.0168972844629781,0.249950209881338,0.0043260560330487,,
0.0169596360661625,0.219741791185358,0.00392786103212872,,
0.017021987669347,0.180980640596926,0.00337546233185204,,
0.0170843392725314,0.135272009813313,0.00270251906333518,,
0.0171466908757158,0.0844503677936683,0.00192358194429643,,
0.0172090424789002,0.0305371705161737,0.00107169676168617,,
0.0172713940820846,-0.0242774334646422,0.000181295560002681,,
0.0173337456852691,-0.0795062318500172,-0.000725850436094522,,
0.0173960972884535,-0.131165261443345,-0.00163323079947508,,
0.0174584488916379,-0.177640637214852,-0.00240809890355198,,
0.0175208004948223,-0.216980677870996,-0.00314735814017597,,
0.0175831520980067,-0.247949811925821,-0.00372313871686902,,
0.0176455037011912,-0.269548445648421,-0.00416868089555988,,
0.0177078553043756,-0.280849751967555,-0.00449071151593472,,
0.01777020690756,-0.281178823540805,-0.0045899884998466,,
0.0178325585107444,-0.270921785022347,-0.00454301531242152,,
0.0178949101139289,-0.249989927778748,-0.00432719296369966,,
0.0179572617171133,-0.219672724525343,-0.00391156502613033,,
0.0180196133202977,-0.180633160383473,-0.00337355248781979,,
0.0180819649234821,-0.134937388240597,-0.00271535441200088,,
0.0181443165266665,-0.0840935462230906,-0.00192086428111748,,
0.018206668129851,-0.0299503094615751,-0.00108012401081048,,
0.0182690197330354,0.0245908371381663,-0.000199207204294893,,
0.0183313713362198,0.0796103343091283,0.000728199095465953,,
0.0183937229394042,0.131329134884355,0.00159661465135796,,
0.0184560745425886,0.177646781041421,0.00244489456703523,,
0.0185184261457731,0.216978211204567,0.00313721552199953,,
0.0185807777489575,0.248055535989714,0.0037461615625527,,
0.0186431293521419,0.269161818525158,0.00418572488224989,,
0.0187054809553263,0.280544935947525,0.00449795196902825,,
0.0187678325585107,0.280967192696986,0.00458329157938886,,
0.0188301841616952,0.27050564925995,0.00454800683690237,,
0.0188925357648796,0.249783093230764,0.00431564414182306,,
0.018954887368064,0.219674117735085,0.00391363942591472,,
0.0190172389712484,0.181016978247748,0.00338519605391729,,
0.0190795905744329,0.13520744253558,0.00271842611937423,,
0.0191419421776173,0.0844346085359266,0.00191784742566181,,
0.0192042937808017,0.0304911260761632,0.00105872178995803,,
0.0192666453839861,-0.0243047951904024,0.000181170896553784,,
0.0193289969871705,-0.0794649380268331,-0.000727052191738853,,
0.019391348590355,-0.13124012933737,-0.00159799093583057,,
0.0194537001935394,-0.17752031870792,-0.00242744168423403,,
0.0195160517967238,-0.21697592725417,-0.00314871946503459,,
0.0195784033999082,-0.248241106959498,-0.00371733438670274,,
0.0196407550030926,-0.270076357943264,-0.00419455105440925,,
0.0197031066062771,-0.28102250997561,-0.00448834789694974,,
0.0197654582094615,-0.281301334640118,-0.00460677318656355,,
0.0198278098126459,-0.270732308497383,-0.00455118326157233,,
0.0198901614158303,-0.250170953687242,-0.00430488319294176,,
0.0199525130190147,-0.219994487457321,-0.00390588037287509,,
0.0200148646221992,-0.180657004825622,-0.00336738414038384,,
0.0200772162253836,-0.134946524042187,-0.00270658309175875,,
0.020139567828568,-0.0840181301809702,-0.00190288282529405,,
0.0202019194317524,-0.0299543292142745,-0.00106770753133167,,
0.0202642710349369,0.0246882247831092,-0.000165368557811796,,
0.0203266226381213,0.0795886824593614,0.00073568887545683,,
0.0203889742413057,0.131156696629355,0.00160102275089979,,
