Time domain (s),Current (AC) (A),Potential (AC) (V),Frequency (Hz),Column 5
0,0.374277536625355,0.011770474994802,3.1623,0.4
0.000772034990355121,0.374267901234423,0.0118050919910027,,
0.00154406998071024,0.374138880999749,0.0118743485351938,,
0.00231610497106536,0.37413559086626,0.0119229025370311,,
0.00308813996142048,0.373906456569709,0.0119621426499887,,
0.00386017495177561,0.373902226398081,0.012040397358013,,
0.00463220994213073,0.372820242499289,0.0120894249474204,,
0.00540424493248585,0.372736109085786,0.0120971151074887,,
0.00617627992284097,0.371613233527917,0.0121540809266438,,
0.00694831491319609,0.371387859383925,0.0121925542787737,,
0.00772034990355121,0.370429960519573,0.0122277576214898,,
0.00849238489390633,0.369644558653856,0.0122799875649435,,
0.00926441988426145,0.36865305342601,0.0123117630357235,,
0.0100364548746166,0.367573419622568,0.0123145369057771,,
0.0108084898649717,0.366598365062167,0.0123593924142096,,
0.0115805248553268,0.365065867884925,0.0123756748059081,,
0.0123525598456819,0.36389881053449,0.0124019645539999,,
0.0131245948360371,0.362585107234263,0.0124056235817744,,
0.0138966298263922,0.36101195340748,0.0124404660958657,,
0.0146686648167473,0.359426814094415,0.0124256664842979,,
0.0154406998071024,0.357868230858797,0.0124374892597103,,
0.0162127347974575,0.356091558774768,0.0124438714160133,,
0.0169847697878127,0.35445424734495,0.0124373990525544,,
0.0177568047781678,0.352423059934599,0.0124211617644341,,
0.0185288397685229,0.350570479770791,0.0124608078095942,,
0.019300874758878,0.348738110426985,0.0124225543374084,,
0.0200729097492332,0.346299416483075,0.0124024381415704,,
0.0208449447395883,0.344198666250386,0.0123853946269912,,
0.0216169797299434,0.341959260392092,0.0123952723105978,,
0.0223890147202985,0.339460404007242,0.0123690896835038,,
0.0231610497106536,0.33702547021589,0.0123618223694804,,
0.0239330847010088,0.334826250988068,0.0123132063502229,,
0.0247051196913639,0.331969945100598,0.0122756125178669,,
0.025477154681719,0.329073922601725,0.0122782961807641,,
0.0262491896720741,0.326220671838208,0.0122403358818359,,
0.0270212246624292,0.323501376509598,0.0121681927086459,,
0.0277932596527844,0.320567517475603,0.0121534889421815,,
0.0285652946431395,0.317521088874378,0.0120872994413022,,
0.0293373296334946,0.314671833272956,0.0120647532901934,,
0.0301093646238497,0.311314957076096,0.0120030741471253,,
0.0308813996142048,0.308263358265103,0.0119463789494385,,
0.03165343460456,0.304894261572428,0.0119029893072948,,
0.0324254695949151,0.301622458827211,0.0118259523958795,,
0.0331975045852702,0.298273102935469,0.0117581842697665,,
0.0339695395756253,0.294650195945075,0.0116914366121077,,
0.0347415745659805,0.290926469864199,0.0116571297030066,,
0.0355136095563356,0.287560898314547,0.0115927950867771,,
0.0362856445466907,0.283727892799931,0.0115293569041626,,
0.0370576795370458,0.279989596127889,0.0114174718407085,,
0.0378297145274009,0.276107473620474,0.0113711955695659,,
0.0386017495177561,0.272365181786338,0.0112997966054147,,
0.0393737845081112,0.268347928796341,0.0111883907674781,,
0.0401458194984663,0.264218576258185,0.0111383878131934,,
0.0409178544888214,0.260132935493525,0.0110498776790964,,
0.0416898894791765,0.256015333432116,0.0109665262667451,,
0.0424619244695317,0.251901491523265,0.01088137071127,,
0.0432339594598868,0.247541594631348,0.0107451973710027,,
0.0440059944502419,0.243280636753635,0.010636525937489,,
0.044778029440597,0.238763518482854,0.0105817927454503,,
0.0455500644309522,0.234322778310923,0.0104659893086478,,
0.0463220994213073,0.229924339855279,0.0103755340827445,,
0.0470941344116624,0.225293241960059,0.010248077008947,,
0.0478661694020175,0.22080670430501,0.0101491141206225,,
0.0486382043923726,0.216020470740549,0.0100233878966352,,
0.0494102393827278,0.211431909571151,0.00992359623006278,,
0.0501822743730829,0.206582722827522,0.00980035634081888,,
0.050954309363438,0.201656687965973,0.00966179251091193,,
0.0517263443537931,0.196681095468746,0.00954939439425662,,
0.0524983793441482,0.191858435426371,0.00943582358457062,,
0.0532704143345034,0.186873178162021,0.00925737127777104,,
0.0540424493248585,0.181949963414891,0.00918653610834586,,
0.0548144843152136,0.176869527288896,0.00906667334951372,,
0.0555865193055687,0.171622234393105,0.00894403672062705,,
0.0563585542959238,0.166683979035739,0.00879129345335095,,
0.057130589286279,0.161413185186456,0.00868018078867205,,
0.0579026242766341,0.15630075838752,0.00850166646445238,,
0.0586746592669892,0.15107159060211,0.00838996181531071,,
0.0594466942573443,0.145625009620703,0.00824962766996284,,
0.0602187292476995,0.140477801410598,0.00809524939798001,,
0.0609907642380546,0.135112563104467,0.00793428036564592,,
0.0617627992284097,0.12969747340074,0.00779125691945293,,
0.0625348342187648,0.124188379883043,0.00762829769173434,,
0.0633068692091199,0.118798201190018,0.007511434320846,,
0.0640789041994751,0.113376531219313,0.00733650009313891,,
0.0648509391898302,0.107754398115318,0.00719494251323471,,
0.0656229741801853,0.102229294573054,0.00702923760519836,,
0.0663950091705404,0.0967714625101627,0.00686848281486041,,
0.0671670441608955,0.0911904560747791,0.00672239232535565,,
0.0679390791512507,0.085608245215529,0.00654837708305234,,
0.0687111141416058,0.0799226595371041,0.0063826496232271,,
0.0694831491319609,0.0743623633169857,0.00623297339926276,,
0.070255184122316,0.0686565668185573,0.00604455320170016,,
0.0710272191126712,0.0630889559266643,0.00589347876681412,,
0.0717992541030263,0.0573380375975304,0.00569353460504374,,
0.0725712890933814,0.0515889993446759,0.00554622631893009,,
0.0733433240837365,0.0459732114981235,0.005365225659967,,
0.0741153590740916,0.0402944410962114,0.00520161243036554,,
0.0748873940644468,0.0345083007130307,0.00505928808963363,,
0.0756594290548019,0.0288128446341389,0.00488379006720008,,
0.076431464045157,0.0230752924723038,0.00468481563235912,,
0.0772034990355121,0.0173119186378189,0.00450259717678669,,
0.0779755340258672,0.0115527749749627,0.00435360314444111,,
0.0787475690162224,0.0057355839569801,0.00414838186403177,,
0.0795196040065775,3.09625062262847E-05,0.00396442128275476,,
0.0802916389969326,-0.00578317338780228,0.00380048669015975,,
0.0810636739872877,-0.0115289802595516,0.00360280334524221,,
0.0818357089776428,-0.0173432924107313,0.00341641280869442,,
0.082607743967998,-0.0230841053298635,0.00324019312901136,,
0.0833797789583531,-0.0288136377913193,0.00306649924970204,,
0.0841518139487082,-0.0345285996616098,0.00287104289395401,,
0.0849238489390633,-0.0402849819624307,0.00267457170769836,,
0.0856958839294184,-0.0460396016917396,0.00248507466220804,,
0.0864679189197736,-0.0517279487321999,0.00230384284740692,,
0.0872399539101287,-0.0574289275351624,0.00213087062534756,,
0.0880119889004838,-0.0631391304623707,0.00193751158598188,,
0.0887840238908389,-0.0687697239096233,0.00177173338463099,,
0.0895560588811941,-0.0744390939301385,0.0015599720853956,,
0.0903280938715492,-0.0801274997229825,0.00136668070139656,,
0.0911001288619043,-0.0857605020179681,0.00118870198216703,,
0.0918721638522594,-0.0912580213160698,0.000996273204099563,,
0.0926441988426145,-0.0968448442374428,0.000794271191578044,,
0.0934162338329697,-0.102402702233636,0.000615119779317386,,
0.0941882688233248,-0.10795615380105,0.000428593932035426,,
0.0949603038136799,-0.113480464186133,0.000238482350293445,,
0.095732338804035,-0.11885806986904,3.20658250640982E-05,,
0.0965043737943901,-0.124277095982477,-0.000157749764446713,,
0.0972764087847453,-0.129834836473903,-0.00033198770566667,,
0.0980484437751004,-0.13513923668668,-0.000537096227130718,,
0.0988204787654555,-0.140526595265286,-0.000709031066893573,,
0.0995925137558106,-0.145894213042959,-0.000891945808953132,,
0.100364548746166,-0.151115889899443,-0.00111442202696388,,
0.101136583736521,-0.156296205077781,-0.0012777646350961,,
0.101908618726876,-0.161546083078456,-0.00147506741857351,,
0.102680653717231,-0.166599316850783,-0.00165543944641655,,
0.103452688707586,-0.171743851827428,-0.00187590855520137,,
0.104224723697941,-0.176915471652974,-0.00204123290179714,,
0.104996758688296,-0.181954546100822,-0.00222565861372326,,
0.105768793678652,-0.186956254032617,-0.00242084434800294,,
0.106540828669007,-0.191958196973947,-0.00260008878639351,,
0.107312863659362,-0.196883526806891,-0.00277987164874771,,
0.108084898649717,-0.201722843150054,-0.00297785380487037,,
0.108856933640072,-0.206619208057819,-0.0031556267390247,,
0.109628968630427,-0.211353768900789,-0.00332456500981682,,
0.110401003620782,-0.215925644393207,-0.00352620055576613,,
0.111173038611137,-0.220533711354004,-0.00370918577216628,,
0.111945073601493,-0.225396293641124,-0.00389458121102182,,
0.112717108591848,-0.229931742655629,-0.0040441474950148,,
0.113489143582203,-0.234391048580819,-0.00420681354947572,,
0.114261178572558,-0.239013216113711,-0.00441645498053989,,
0.115033213562913,-0.24309633052587,-0.00458029372803148,,
0.115805248553268,-0.247631485778457,-0.0047789975414041,,
0.116577283543623,-0.252056715321082,-0.00492718816626425,,
0.117349318533978,-0.256127785494577,-0.00512453605331942,,
0.118121353524334,-0.260415769468807,-0.00532935140152579,,
0.118893388514689,-0.264625260258372,-0.00545595714528613,,
0.119665423505044,-0.268627472638134,-0.00564200940499804,,
0.120437458495399,-0.272704183040466,-0.00579164052538461,,
0.121209493485754,-0.276447649922276,-0.00596589819941995,,
0.121981528476109,-0.280238823739676,-0.00610941778497232,,
0.122753563466464,-0.283830885728611,-0.00630778332150861,,
0.123525598456819,-0.287843967299363,-0.0064374110050025,,
0.124297633447175,-0.291156426694122,-0.00662589885793219,,
0.12506966843753,-0.294992428580309,-0.00676705050563342,,
0.125841703427885,-0.298643125448207,-0.00692793496875899,,
0.12661373841824,-0.302123381650902,-0.00709371598908293,,
0.127385773408595,-0.305475792666598,-0.0072742627932918,,
0.12815780839895,-0.308731379753905,-0.00741760196453134,,
0.128929843389305,-0.311846431139327,-0.00756998440318268,,
0.12970187837966,-0.314984278449637,-0.00769855497156424,,
0.130473913370015,-0.317905975740201,-0.00786931429932247,,
0.131245948360371,-0.3212663183277,-0.00800309151200285,,
0.132017983350726,-0.324025800286782,-0.00813770314087803,,
0.132790018341081,-0.32707575403103,-0.00829648746864731,,
0.133562053331436,-0.329754392710098,-0.00843394344191717,,
0.134334088321791,-0.332314880345483,-0.00854776232128263,,
0.135106123312146,-0.335018606292404,-0.00869153279548796,,
0.135878158302501,-0.33731047802937,-0.0088108514924099,,
0.136650193292856,-0.339688950779955,-0.00894347856384803,,
0.137422228283212,-0.34225337482505,-0.00909685328121768,,
0.138194263273567,-0.344642011738021,-0.00924391631662536,,
0.138966298263922,-0.347072245338674,-0.00934824089279829,,
0.139738333254277,-0.348842572165259,-0.00946298157654146,,
0.140510368244632,-0.351277270947075,-0.0096053256500892,,
0.141282403234987,-0.353166277588797,-0.00971812969894703,,
0.142054438225342,-0.354961515426085,-0.00981492197757516,,
0.142826473215697,-0.356845586867573,-0.00995084442918959,,
0.143598508206053,-0.358371445025453,-0.0100931687699215,,
0.144370543196408,-0.360236950713683,-0.0101806697114588,,
0.145142578186763,-0.361509057326228,-0.0102667273384967,,
0.145914613177118,-0.363196719548904,-0.0103935783329625,,
0.146686648167473,-0.364339570917241,-0.0104935757846105,,
0.147458683157828,-0.365782764471212,-0.0105816630726632,,
0.148230718148183,-0.36708783117103,-0.0107044801158622,,
0.149002753138538,-0.368279740779783,-0.0107759241835912,,
0.149774788128894,-0.369229003043726,-0.0108694492717802,,
0.150546823119249,-0.370246535577565,-0.0109743799272839,,
0.151318858109604,-0.370973420069086,-0.0111098936277214,,
0.152090893099959,-0.371662233015949,-0.0111636119892529,,
0.152862928090314,-0.372645512910073,-0.0111882836464798,,
0.153634963080669,-0.372803909336612,-0.0112991031379011,,
0.154406998071024,-0.373610932079542,-0.0113710207932005,,
0.155179033061379,-0.374182710278013,-0.0114783926798698,,
0.155951068051734,-0.374413724650843,-0.0115095113297934,,
0.15672310304209,-0.374535459589934,-0.0115873826574036,,
0.157495138032445,-0.375173510477254,-0.0116601347288983,,
0.1582671730228,-0.375011765164842,-0.011710537977438,,
0.159039208013155,-0.37493615084698,-0.0117789121828822,,
0.15981124300351,-0.374778694458581,-0.0118320244650829,,
0.160583277993865,-0.374529290589642,-0.0119060140660019,,
0.16135531298422,-0.374308440379197,-0.0119717553500736,,
0.162127347974575,-0.37391150927471,-0.011983098899969,,
0.162899382964931,-0.373463581101144,-0.0120537508361074,,
0.163671417955286,-0.372946090105241,-0.0120965795024985,,
0.164443452945641,-0.372259157234657,-0.0121500046907719,,
0.165215487935996,-0.371458714758705,-0.0121609225756489,,
0.165987522926351,-0.370799513013242,-0.0121877789374407,,
0.166759557916706,-0.369995075375196,-0.0122669357170273,,
0.167531592907061,-0.369090758684807,-0.01228741274149,,
0.168303627897416,-0.367925816420187,-0.0122738619352409,,
0.169075662887772,-0.366853702921862,-0.0122925348165794,,
0.169847697878127,-0.365602747167459,-0.0123080025248981,,
0.170619732868482,-0.364061554637426,-0.0123674490408496,,
0.171391767858837,-0.362763596976038,-0.0123685315267243,,
0.172163802849192,-0.361089095287319,-0.012375928513535,,
0.172935837839547,-0.359715288298534,-0.0123602324683518,,
0.173707872829902,-0.3576472043912,-0.0124083805379862,,
0.174479907820257,-0.356246782572586,-0.0124321501236513,,
0.175251942810613,-0.354491966375306,-0.0124131840690556,,
0.176023977800968,-0.352560951779216,-0.0123805065267133,,
0.176796012791323,-0.350424950116289,-0.0123987058204813,,
0.177568047781678,-0.348350520951511,-0.0123822430144704,,
0.178340082772033,-0.346330555246453,-0.0123838216397045,,
0.179112117762388,-0.343852379700675,-0.0123455061500986,,
0.179884152752743,-0.341736530105368,-0.0123507381651593,,
0.180656187743098,-0.33917662999382,-0.0123283216868377,,
0.181428222733453,-0.336957669965065,-0.0123127863231516,,
0.182200257723809,-0.334497355143942,-0.0122975610465654,,
0.182972292714164,-0.331599687578324,-0.0122593160313,,
0.183744327704519,-0.328999072064851,-0.0122798127885781,,
0.184516362694874,-0.326227134600419,-0.0122310558206391,,
0.185288397685229,-0.323383049208764,-0.0121584418788525,,
0.186060432675584,-0.320490551852915,-0.0121178712103411,,
0.186832467665939,-0.317211522564499,-0.0120747268189034,,
0.187604502656294,-0.314037366281043,-0.0120242981996004,,
0.18837653764665,-0.310896757608698,-0.0119750704630648,,
0.189148572637005,-0.307447287655078,-0.011941671263473,,
0.18992060762736,-0.304553909013473,-0.0118938163670963,,
0.190692642617715,-0.300876244801442,-0.0118425082280202,,
0.19146467760807,-0.297320726795188,-0.0117750360941384,,
0.192236712598425,-0.294170188969992,-0.0116894971582489,,
0.19300874758878,-0.290574073066579,-0.0116556018192977,,
0.193780782579135,-0.286711515102947,-0.0115830076103265,,
0.194552817569491,-0.2829331493052,-0.0115081131188717,,
0.195324852559846,-0.279042155187841,-0.0114274002658403,,
0.196096887550201,-0.275295633182077,-0.011361371446458,,
0.196868922540556,-0.27145111220025,-0.0112974794090888,,
0.197640957530911,-0.267329044957677,-0.0111959484357853,,
0.198412992521266,-0.263368194256061,-0.011126243674787,,
0.199185027511621,-0.259181264381849,-0.0110303985712989,,
0.199957062501976,-0.254935817133441,-0.0109302235243125,,
0.200729097492332,-0.250709581914512,-0.010861102290856,,
0.201501132482687,-0.24636313931847,-0.0107550863305037,,
0.202273167473042,-0.242210050817287,-0.0106692091177787,,
0.203045202463397,-0.237716609757149,-0.01059774249826,,
0.203817237453752,-0.233042563869423,-0.0104724447582649,,
0.204589272444107,-0.228501474626079,-0.0103472118546635,,
0.205361307434462,-0.22392942287651,-0.0102610668394436,,
0.206133342424817,-0.219375349356362,-0.0101130622668428,,
0.206905377415172,-0.21473602612742,-0.0100283323763857,,
0.207677412405528,-0.20994823562479,-0.00990391697513759,,
0.208449447395883,-0.205185943656699,-0.00981778605478567,,
0.209221482386238,-0.200229827574679,-0.00968852201889003,,
0.209993517376593,-0.195435868071757,-0.00957973218848407,,
0.210765552366948,-0.190424759758565,-0.00943774894356153,,
0.211537587357303,-0.185660411457044,-0.00932510275722676,,
0.212309622347658,-0.180528566995284,-0.00918483062929853,,
0.213081657338013,-0.175488728766448,-0.00905206542815229,,
0.213853692328369,-0.170313583797879,-0.00891091378045106,,
0.214625727318724,-0.165216520747288,-0.00879001363932197,,
0.215397762309079,-0.160020577434878,-0.00863318849822692,,
0.216169797299434,-0.154859356781253,-0.0085101233853484,,
0.216941832289789,-0.149670581259658,-0.00838550219902512,,
0.217713867280144,-0.144276407404539,-0.00823632211441971,,
0.218485902270499,-0.139015953974793,-0.0080934790825391,,
0.219257937260854,-0.133622485148279,-0.00793861594709178,,
0.22002997225121,-0.128188535929374,-0.00778231231611848,,
0.220802007241565,-0.122804526236641,-0.00761858350859823,,
0.22157404223192,-0.11733773443523,-0.00750356938441277,,
0.222346077222275,-0.111856313290271,-0.00732617701169858,,
0.22311811221263,-0.106376713469207,-0.00718119155985741,,
0.223890147202985,-0.100765332051435,-0.00703052305717478,,
0.22466218219334,-0.0953220412035167,-0.00688061849634591,,
0.225434217183695,-0.0897420335586566,-0.00674738534557662,,
0.22620625217405,-0.084195749782058,-0.00655465775630448,,
0.226978287164406,-0.0784175703468729,-0.0063909120349428,,
0.227750322154761,-0.0728877959901028,-0.00621931265304188,,
0.228522357145116,-0.067170719033998,-0.00605059990014079,,
0.229294392135471,-0.0615034640992972,-0.00591001486613951,,
0.230066427125826,-0.0558143532778484,-0.00574913040301395,,
0.230838462116181,-0.0501412231047744,-0.00557717301146221,,
0.231610497106536,-0.0443823144514531,-0.00537747691937129,,
0.232382532096891,-0.0386992551255286,-0.00520087385927415,,
0.233154567087247,-0.0329300648050543,-0.00505631689142527,,
0.233926602077602,-0.0272036462199363,-0.00485111816280481,,
0.234698637067957,-0.0214340446327759,-0.00467832353608433,,
0.235470672058312,-0.0157113862002166,-0.0045123226358168,,
0.236242707048667,-0.00992903534578657,-0.00435188920847285,,
0.237014742039022,-0.00418111338822294,-0.00415361669806602,,
0.237786777029377,0.00158931073230969,-0.00397540964197241,,
0.238558812019732,0.00732354338446397,-0.0037894024858387,,
0.239330847010088,0.0131386486928241,-0.00359552475532432,,
0.240102882000443,0.0188838974169279,-0.00344751736375004,,
0.240874916990798,0.0246674820714163,-0.00323149659535638,,
0.241646951981153,0.0303589429882144,-0.00307425988411092,,
0.242418986971508,0.0361044854742369,-0.00285027833418061,,
0.243191021961863,0.0418414794884265,-0.00268120757162782,,
0.243963056952218,0.0474946338510319,-0.00250375036252004,,
0.244735091942573,0.053179308867509,-0.00231381355714344,,
0.245507126932929,0.0588778494465467,-0.00210151383394397,,
0.246279161923284,0.064652709372051,-0.00194712428606669,,
0.247051196913639,0.0702797776762798,-0.00177701614121739,,
0.247823231903994,0.0758976806086465,-0.00155562522805486,,
0.248595266894349,0.0815118527646463,-0.00138481797774492,,
0.249367301884704,0.0872554564220057,-0.00117448026019362,,
0.250139336875059,0.092762904872958,-0.000978837852185777,,
0.250911371865414,0.0983131544354583,-0.000777746368147092,,
0.25168340685577,0.103889695689678,-0.00060355634947884,,
0.252455441846125,0.10946453312477,-0.000397072168882406,,
0.25322747683648,0.114913258568183,-0.00018822005043484,,
0.253999511826835,0.120385455588897,-8.91077565068343E-06,,
0.25477154681719,0.125801015311694,0.000177637623420157,,
0.255543581807545,0.13126616204636,0.000325554807838468,,
0.2563156167979,0.136564687020764,0.000521118284584787,,
0.257087651788255,0.141872847386101,0.000713868425646247,,
0.25785968677861,0.147165497122132,0.000928183714992148,,
0.258631721768966,0.152382943806988,0.00109842717057607,,
0.259403756759321,0.157704999111076,0.00132685424192402,,
