Time domain (s),Current (AC) (A),Potential (AC) (V),Frequency (Hz),Column 5
0,-0.276201182044824,-0.013843823452389,0.1,0.3
0.0244140625,-0.276960549872935,-0.0139280174278187,,
0.048828125,-0.278304060854671,-0.0140390110344262,,
0.0732421875,-0.279137748428711,-0.0140918245309281,,
0.09765625,-0.279948139708698,-0.0141681775662312,,
0.1220703125,-0.280759901358923,-0.0142819631493869,,
0.146484375,-0.281290691431267,-0.0142923933551895,,
0.1708984375,-0.282103503698675,-0.0143851492527132,,
0.1953125,-0.2826364863634,-0.0144164942049936,,
0.2197265625,-0.283121917180852,-0.0144950394434398,,
0.244140625,-0.283660381326531,-0.0145491736953143,,
0.2685546875,-0.283898643031983,-0.0145859040694245,,
0.29296875,-0.284160703500574,-0.0146462408560262,,
0.3173828125,-0.284205423249354,-0.0146911799755562,,
0.341796875,-0.284672810858668,-0.0147289301734355,,
0.3662109375,-0.284664040489142,-0.014741101184975,,
0.390625,-0.284697660238991,-0.0147995968553047,,
0.4150390625,-0.284557517042609,-0.0148197279257305,,
0.439453125,-0.284568114572453,-0.0148538502259394,,
0.4638671875,-0.284393072614,-0.0148687296219148,,
0.48828125,-0.284021108452288,-0.0148946097398586,,
0.5126953125,-0.283767681316199,-0.0149363054854348,,
0.537109375,-0.283563724545715,-0.0149374924934285,,
0.5615234375,-0.282982139416535,-0.014943191385679,,
0.5859375,-0.282369675277982,-0.0149470721494889,,
0.6103515625,-0.28199035679599,-0.0149186508313335,,
0.634765625,-0.281461759316028,-0.0149386774116191,,
0.6591796875,-0.280707827289864,-0.0149336806931109,,
0.68359375,-0.279737468124046,-0.0149181325602377,,
0.7080078125,-0.278877241046389,-0.0148766186275058,,
0.732421875,-0.277977547305866,-0.0148804492360481,,
0.7568359375,-0.277132120226783,-0.0148827062230783,,
0.78125,-0.276075107982891,-0.0148684286903107,,
0.8056640625,-0.274730866137028,-0.0148419634275814,,
0.830078125,-0.273835192149204,-0.0148040293270553,,
0.8544921875,-0.272638402140993,-0.0147537904676103,,
0.87890625,-0.27126145412544,-0.0147383593636943,,
0.9033203125,-0.269795203649351,-0.014656106815071,,
0.927734375,-0.26823732108332,-0.0146558372305092,,
0.9521484375,-0.266793818753188,-0.0145907712201585,,
0.9765625,-0.265429523822836,-0.0145327917311215,,
1.0009765625,-0.263900738784867,-0.014484592519215,,
1.025390625,-0.262157993273675,-0.0144487440418888,,
1.0498046875,-0.260399214430693,-0.0143599859371317,,
1.07421875,-0.258611475096673,-0.0142554477313901,,
1.0986328125,-0.256753070337359,-0.014213133404184,,
1.123046875,-0.254936096438252,-0.014151693201701,,
1.1474609375,-0.2529728583557,-0.0140615474678811,,
1.171875,-0.250830695599019,-0.014004472863459,,
1.1962890625,-0.248813510608082,-0.0139121871715666,,
1.220703125,-0.246728172537287,-0.0138039834517043,,
1.2451171875,-0.24432472585515,-0.0137167279151647,,
1.26953125,-0.242147664336398,-0.0136549052787682,,
1.2939453125,-0.23979830159967,-0.01357557636427,,
1.318359375,-0.237488953673903,-0.0134376828159493,,
1.3427734375,-0.234800104550113,-0.0133386261629669,,
1.3671875,-0.232571882542461,-0.0132466581211008,,
1.3916015625,-0.229845759348186,-0.0131107039097835,,
1.416015625,-0.227294678112364,-0.0130113630436197,,
1.4404296875,-0.224667267254263,-0.0128933309811625,,
1.46484375,-0.221878289745054,-0.0127636440884595,,
1.4892578125,-0.219236170246393,-0.0126360658067868,,
1.513671875,-0.21631778410767,-0.0125057477936363,,
1.5380859375,-0.213462937469001,-0.0124105196593938,,
1.5625,-0.210618185891088,-0.0122640140337111,,
1.5869140625,-0.207542709644035,-0.0121144698347497,,
1.611328125,-0.204681924734333,-0.0119789503024164,,
1.6357421875,-0.201524774421071,-0.0118242714579613,,
1.66015625,-0.198378267316661,-0.0117266693077314,,
1.6845703125,-0.195393920690462,-0.0115640304043905,,
1.708984375,-0.192162587668294,-0.0114338127017746,,
1.7333984375,-0.188942948472161,-0.0113008009328075,,
1.7578125,-0.185438637698502,-0.0111092725954829,,
1.7822265625,-0.18223452936507,-0.0109424582661366,,
1.806640625,-0.178844964259374,-0.0108194273953686,,
1.8310546875,-0.17542086582367,-0.0106462245388457,,
1.85546875,-0.171999645165466,-0.0104699622110154,,
1.8798828125,-0.168644659068786,-0.0103101340924479,,
1.904296875,-0.164938081647938,-0.0101352949203282,,
1.9287109375,-0.161411616555425,-0.00997185144290702,,
1.953125,-0.157741993452006,-0.00977527832160963,,
1.9775390625,-0.15415016169912,-0.0096325719574275,,
2.001953125,-0.150446507734781,-0.00946784116147814,,
2.0263671875,-0.146792917963151,-0.00924314765362944,,
2.05078125,-0.142937609692428,-0.00905956265676844,,
2.0751953125,-0.139161463142476,-0.00889625710633268,,
2.099609375,-0.135303688205324,-0.00871721952037641,,
2.1240234375,-0.131619630535394,-0.00850977733468739,,
2.1484375,-0.127608648205587,-0.0082952444480795,,
2.1728515625,-0.123641517723409,-0.00814314442028685,,
2.197265625,-0.119770678589984,-0.0079353009924592,,
2.2216796875,-0.1157885653932,-0.00773139893272257,,
2.24609375,-0.111713449736236,-0.00751880956272366,,
2.2705078125,-0.107875499488532,-0.00734370289584474,,
2.294921875,-0.103770464081363,-0.00714425002628127,,
2.3193359375,-0.0996892274373336,-0.00692376747108581,,
2.34375,-0.0954961229028425,-0.00675576195414029,,
2.3681640625,-0.091459194896522,-0.00652433092204641,,
2.392578125,-0.0872720743120718,-0.00629465323450651,,
2.4169921875,-0.0830385438555476,-0.00611063355866204,,
2.44140625,-0.078850144258875,-0.00594273044205362,,
2.4658203125,-0.074669784167601,-0.0056633467947842,,
2.490234375,-0.0705029450626794,-0.00546908081578401,,
2.5146484375,-0.0662570355950015,-0.0052403560783234,,
2.5390625,-0.0619560372437396,-0.00502726306584833,,
2.5634765625,-0.0576903487656207,-0.00485422739354968,,
2.587890625,-0.0533881170811443,-0.00458913799747007,,
2.6123046875,-0.0491003199631791,-0.00439846647929532,,
2.63671875,-0.0447768932190152,-0.00416865504437602,,
2.6611328125,-0.0404214454902806,-0.00395547634998605,,
2.685546875,-0.0361576298514875,-0.00370642410063571,,
2.7099609375,-0.0318110438502945,-0.00348567196087846,,
2.734375,-0.0274281887167917,-0.00327035748802107,,
2.7587890625,-0.0231005595038967,-0.00305061054341271,,
2.783203125,-0.0187711031306839,-0.00281160188634644,,
2.8076171875,-0.0143395084957017,-0.00255472541529223,,
2.83203125,-0.00995943978168358,-0.00236804751027897,,
2.8564453125,-0.00562445624850915,-0.00215002256318275,,
2.880859375,-0.00121373692015867,-0.00189677189999671,,
2.9052734375,0.0031449768576442,-0.00167682433431926,,
2.9296875,0.007520980139955,-0.00145365220291316,,
2.9541015625,0.0119209877409419,-0.00121967370119913,,
2.978515625,0.0162361922636753,-0.00100755244702855,,
3.0029296875,0.0206160782616616,-0.000774531074999807,,
3.02734375,0.0249723938915473,-0.00054940079836463,,
3.0517578125,0.0293307193977826,-0.00032182963205285,,
3.076171875,0.0336689461405212,-9.17820494166222E-05,,
3.1005859375,0.037976111157856,0.00014197284339712,,
3.125,0.0422971397541026,0.000360148256295378,,
3.1494140625,0.0466121844003082,0.000597700320806638,,
3.173828125,0.0509079981841681,0.00083330050949737,,
3.1982421875,0.055280415664355,0.00105817583018997,,
3.22265625,0.0595011559986541,0.0012937509412474,,
3.2470703125,0.06378493336392,0.00150892121771085,,
3.271484375,0.0679992786371065,0.0017166016409198,,
3.2958984375,0.0722479745242691,0.00197287415896286,,
3.3203125,0.0764800432525391,0.00217608658377344,,
3.3447265625,0.0806801138357421,0.00239360579859094,,
3.369140625,0.0847956325752354,0.00262478814415079,,
3.3935546875,0.0890234988347742,0.00284305132876694,,
3.41796875,0.0931671330036588,0.00306253077861562,,
3.4423828125,0.0972462455738183,0.00326278404265379,,
3.466796875,0.101393556902843,0.00350379682061064,,
3.4912109375,0.105492242927907,0.00374651069805187,,
3.515625,0.109380257368321,0.00394111731490909,,
3.5400390625,0.113462864382588,0.00418824903548076,,
3.564453125,0.11746272387396,0.00439662745282643,,
3.5888671875,0.121370974114894,0.00461990198457052,,
3.61328125,0.125467490387081,0.00483222594961319,,
3.6376953125,0.129263621503009,0.00505956723761658,,
3.662109375,0.133043627929132,0.00525192940626074,,
3.6865234375,0.136990476931781,0.0054586819570237,,
3.7109375,0.140647515468511,0.00563213558988362,,
3.7353515625,0.14450613546731,0.00585143113708542,,
3.759765625,0.148199922765933,0.00608063652919144,,
3.7841796875,0.152034378569529,0.00626904061132194,,
3.80859375,0.15561928995271,0.00648681478208157,,
3.8330078125,0.159289712438768,0.00667548217936531,,
3.857421875,0.162913679373744,0.00687978130163502,,
3.8818359375,0.166627382719832,0.00708996530860473,,
3.90625,0.169825826856278,0.00728035888300616,,
3.9306640625,0.173489283293625,0.00746745056897469,,
3.955078125,0.176849796550267,0.00765518173460178,,
3.9794921875,0.180190393759444,0.00786131988334038,,
4.00390625,0.183703474902628,0.00804833215680212,,
4.0283203125,0.186903723359888,0.00825063760719535,,
4.052734375,0.190199600820285,0.00839249760124083,,
4.0771484375,0.193409898659294,0.00859357006797845,,
4.1015625,0.196562298355729,0.00878292292058269,,
4.1259765625,0.199634120282146,0.00895684048966539,,
4.150390625,0.202830189110179,0.00915673012801488,,
4.1748046875,0.205724228337667,0.00930565365554337,,
4.19921875,0.208630692255316,0.00951423687356412,,
4.2236328125,0.211699590725225,0.00967585386333303,,
4.248046875,0.214542469463812,0.00983058286305516,,
4.2724609375,0.217294355618568,0.0100170099917318,,
4.296875,0.220114029421118,0.0101609556089772,,
4.3212890625,0.22287669582175,0.0103337070680944,,
4.345703125,0.225505614087114,0.010476114590475,,
4.3701171875,0.228386680476344,0.0106323148113723,,
4.39453125,0.230784645677528,0.0107831317002423,,
4.4189453125,0.233148442980767,0.0109314073889006,,
4.443359375,0.235515894604642,0.011062212326105,,
4.4677734375,0.238246768415743,0.0112179109943287,,
4.4921875,0.240309084266533,0.0113918327430169,,
4.5166015625,0.242637800091669,0.0115204768241202,,
4.541015625,0.245016031961419,0.0116603640443174,,
4.5654296875,0.247311858900833,0.0117600559973527,,
4.58984375,0.249473937704979,0.0119120598942164,,
4.6142578125,0.251299088146508,0.0120327167489971,,
4.638671875,0.253410554609848,0.0121649260336869,,
4.6630859375,0.25532395689473,0.0122977539000066,,
4.6875,0.257054643147825,0.012411322143671,,
4.7119140625,0.258987961480172,0.0125125689099939,,
4.736328125,0.260740756373112,0.0126520339900242,,
4.7607421875,0.262555492000829,0.0127694182136113,,
4.78515625,0.264013748650528,0.0128643579550669,,
4.8095703125,0.265573595413901,0.0129876897574386,,
4.833984375,0.267343382897798,0.0130742577488552,,
4.8583984375,0.268765096341139,0.0131807708182476,,
4.8828125,0.270199599906705,0.0132572074456632,,
4.9072265625,0.271393283742375,0.0133736805152269,,
4.931640625,0.272652745349489,0.0134407757241015,,
4.9560546875,0.273721268703384,0.0135236447645526,,
4.98046875,0.275271979665167,0.0136220159622149,,
5.0048828125,0.276045233911694,0.0137176996734691,,
5.029296875,0.277015821472551,0.0137971330781075,,
5.0537109375,0.277938354717047,0.0138656284548619,,
5.078125,0.278986962023478,0.013932330780809,,
5.1025390625,0.279585722459646,0.0140142677692086,,
5.126953125,0.280551742119709,0.0140782157350583,,
5.1513671875,0.281011272939655,0.0140928276362744,,
5.17578125,0.281604369178839,0.014217613941399,,
5.2001953125,0.282312211085985,0.0142259229973538,,
5.224609375,0.282899277696119,0.0142916598344045,,
5.2490234375,0.283113603601406,0.0143119392808297,,
5.2734375,0.283558699854841,0.0143813040155512,,
5.2978515625,0.283687697373283,0.0144113470206837,,
5.322265625,0.284079257829405,0.0144581920403724,,
5.3466796875,0.284094971408139,0.0144880845797029,,
5.37109375,0.284273484971195,0.0145355481810223,,
5.3955078125,0.28445583557092,0.0145565966748795,,
5.419921875,0.283760418353935,0.0145732816604789,,
5.4443359375,0.283897638093808,0.0146018200075915,,
5.46875,0.283846294888875,0.0146290543177532,,
5.4931640625,0.283415085053856,0.0146455721191283,,
5.517578125,0.283008907315192,0.0146385629205184,,
5.5419921875,0.282714186355918,0.0146561381621129,,
5.56640625,0.282672709816702,0.0146454718085938,,
5.5908203125,0.281862912363818,0.0146537432480978,,
5.615234375,0.281414709937843,0.0146859596481481,,
5.6396484375,0.280782512467857,0.0146604682335263,,
5.6640625,0.280003411308313,0.0146656007892165,,
5.6884765625,0.279424018771514,0.0146253093911257,,
5.712890625,0.278405194178265,0.0146300030882269,,
5.7373046875,0.277467130071066,0.0145949988912344,,
5.76171875,0.276547520283078,0.0145950824833463,,
5.7861328125,0.27538672533313,0.0145727466709609,,
5.810546875,0.274380142714011,0.0145385073417947,,
5.8349609375,0.273308878619639,0.0144903750035779,,
5.859375,0.271977792328064,0.0144601982510659,,
5.8837890625,0.270762730716675,0.0144368426149111,,
5.908203125,0.269334804928253,0.0143850155053338,,
5.9326171875,0.267787748287106,0.0143144470441965,,
5.95703125,0.266294958307399,0.0142965416137586,,
5.9814453125,0.265061990524895,0.0142217433917424,,
6.005859375,0.263376983279747,0.0141711200085815,,
6.0302734375,0.261601897030928,0.014120830993869,,
6.0546875,0.259821329301156,0.0140590731413597,,
6.0791015625,0.257932776396597,0.0140140337112946,,
6.103515625,0.25605774447839,0.0138567509725442,,
6.1279296875,0.254363601431653,0.0138684329702272,,
6.15234375,0.252233132501007,0.0137667222676816,,
6.1767578125,0.250019345059866,0.0137234508107902,,
6.201171875,0.248299987200742,0.0136502032224559,,
6.2255859375,0.245879913359712,0.0135208904044548,,
6.25,0.243766071587959,0.013422318585723,,
6.2744140625,0.241464215019495,0.0133888441243841,,
6.298828125,0.239054190560214,0.0132457720447112,,
6.3232421875,0.23686159817876,0.0131668945276191,,
6.34765625,0.234320749040718,0.0130550148446216,,
6.3720703125,0.231718141883932,0.0129600374867156,,
6.396484375,0.22950837419549,0.012851952885613,,
6.4208984375,0.2266815744677,0.012776105582589,,
6.4453125,0.224197184583481,0.0126478878212577,,
6.4697265625,0.221489332992385,0.0125257095900349,,
6.494140625,0.21878970362272,0.0124222058366823,,
6.5185546875,0.215870815014909,0.0122826906013844,,
6.54296875,0.213107965898245,0.0121668319338455,,
6.5673828125,0.210062820512469,0.0120559386377721,,
6.591796875,0.207012741793835,0.0119257522821985,,
6.6162109375,0.204126742071746,0.0118025751252344,,
6.640625,0.201001018915951,0.0116474407037681,,
6.6650390625,0.198043942657497,0.0115279374201362,,
6.689453125,0.194891725677093,0.011398850300838,,
6.7138671875,0.191742797585261,0.0112343117667466,,
6.73828125,0.18835613309657,0.0110894633546894,,
6.7626953125,0.185032734033885,0.0109634900415716,,
6.787109375,0.181812729405688,0.0108161046089079,,
6.8115234375,0.178439060594757,0.0106715362304266,,
6.8359375,0.174970014015233,0.0104782545485476,,
6.8603515625,0.171520700767142,0.0103437506603776,,
6.884765625,0.167953352962517,0.010197786293622,,
6.9091796875,0.164327147756151,0.0100193338524517,,
6.93359375,0.160965401166295,0.00986779807141636,,
6.9580078125,0.157319439788992,0.00968202714082089,,
6.982421875,0.153664776560676,0.00951501010060207,,
7.0068359375,0.149912702847913,0.00933797036612827,,
7.03125,0.146196258761348,0.0091669074676779,,
7.0556640625,0.142596022071,0.00899558125407429,,
7.080078125,0.138775977994412,0.0088192018972868,,
7.1044921875,0.134842284546052,0.00865992548665995,,
7.12890625,0.130963223191196,0.00843399690535307,,
7.1533203125,0.127120156894602,0.00828430015078663,,
7.177734375,0.123151381968139,0.00810336502388331,,
7.2021484375,0.119176211980562,0.00791063922955093,,
7.2265625,0.115324375314443,0.00766400906165243,,
7.2509765625,0.111235738671126,0.00752370806049996,,
7.275390625,0.107164277334798,0.00730675727204577,,
7.2998046875,0.103123695007842,0.00714232322809449,,
7.32421875,0.0990133151567425,0.00694506674128004,,
7.3486328125,0.0949857056680432,0.00675034727507118,,
7.373046875,0.0907329671886772,0.00655375534554858,,
7.3974609375,0.0867154070817262,0.00633802082232693,,
7.421875,0.0824941414388358,0.00616948240566595,,
7.4462890625,0.0782406949348467,0.00595870907430518,,
7.470703125,0.0740246823778701,0.0057344356168203,,
7.4951171875,0.0699095747494484,0.00553826164785853,,
7.51953125,0.065669283799748,0.0053357890132415,,
7.5439453125,0.0613789286573377,0.0051020989043149,,
7.568359375,0.0571096086980871,0.00490679011371453,,
7.5927734375,0.0528442856520318,0.00469082153257894,,
7.6171875,0.0485301317464811,0.00449394538987491,,
7.6416015625,0.0441550192048253,0.00427608762700338,,
7.666015625,0.0398513486315985,0.00405425087958955,,
7.6904296875,0.035544891638887,0.00383414866850451,,
7.71484375,0.031207761192339,0.00362719549667245,,
7.7392578125,0.0268786702511898,0.00339493899247012,,
7.763671875,0.0225282015343213,0.00317419730172697,,
7.7880859375,0.0181680488677681,0.00297007790249859,,
7.8125,0.0137676986742216,0.00273921320696546,,
7.8369140625,0.00943406267178162,0.00251754364377632,,
7.861328125,0.00508156123905954,0.00228045969509338,,
7.8857421875,0.000686144378371282,0.00207825037562959,,
7.91015625,-0.00372133174041497,0.00185057889878282,,
7.9345703125,-0.00805791403886754,0.00162534413200754,,
7.958984375,-0.0124142296687532,0.00139058822365046,,
7.9833984375,-0.0168116564057911,0.0011918061807874,,
8.0078125,-0.0211692967269072,0.000960874611564133,,
8.0322265625,-0.0255227802583002,0.000718256865052336,,
8.056640625,-0.0299447366226056,0.000486786126705496,,
8.0810546875,-0.034220337445449,0.000280033575942085,,
8.10546875,-0.0385305629563162,1.91258752764156E-05,,
8.1298828125,-0.0428603847615926,-0.000180324904484497,,
8.154296875,-0.047202265824967,-0.000408364186624599,,
8.1787109375,-0.0514683197351495,-0.000616424953943984,,
8.203125,-0.0557780884559372,-0.000877836297086265,,
8.2275390625,-0.0600941608798215,-0.0010947724569208,,
8.251953125,-0.0643660617030212,-0.00133262754283869,,
8.2763671875,-0.0686365007979666,-0.00150175110428519,,
8.30078125,-0.0728497497749624,-0.00175880938818329,,
8.3251953125,-0.0770779357875568,-0.00197319180898958,,
8.349609375,-0.0813990329023153,-0.00217471567313332,,
8.3740234375,-0.0855000942357934,-0.00244018959292891,,
8.3984375,-0.0896509913669416,-0.00265099009172642,,
8.4228515625,-0.0937219502341826,-0.00287371082572685,,
8.447265625,-0.0978312337890911,-0.00310653366648905,,
8.4716796875,-0.102101307451973,-0.00334637615487532,,
8.49609375,-0.106007410779533,-0.00354056063156571,,
8.5205078125,-0.109979291878537,-0.00375848526812739,,
8.544921875,-0.114026086550574,-0.00399076893976558,,
8.5693359375,-0.117958866418776,-0.00418616132247784,,
8.59375,-0.122024846274151,-0.00442359426822936,,
8.6181640625,-0.125978638486008,-0.00462132305047813,,
8.642578125,-0.129799413426723,-0.00487051113701042,,
8.6669921875,-0.133627314292678,-0.00505006490425952,,
8.69140625,-0.137588963293902,-0.00529374009099115,,
8.7158203125,-0.141245111089977,-0.00547362613688618,,
8.740234375,-0.145156878614523,-0.00569041601052422,,
8.7646484375,-0.148767530118682,-0.00590559882580477,,
8.7890625,-0.152475203835721,-0.00612206686981098,,
8.8134765625,-0.156175386195457,-0.00632070262647755,,
8.837890625,-0.159873010530747,-0.00653140281474052,,
8.8623046875,-0.163424279324576,-0.00669225075707702,,
8.88671875,-0.166938822196015,-0.0069101921120609,,
8.9111328125,-0.17059985764594,-0.00713421688301175,,
8.935546875,-0.173991843739057,-0.00733105958887137,,
8.9599609375,-0.177339932305537,-0.00755483776309118,,
8.984375,-0.180737719632664,-0.00773402581484905,,
9.0087890625,-0.184128198318519,-0.00793215792903945,,
9.033203125,-0.187398084423394,-0.00810865222498114,,
9.0576171875,-0.190606577941589,-0.00828844213994717,,
9.08203125,-0.194054018350354,-0.00847779708235441,,
9.1064453125,-0.197184720518015,-0.00867809841185663,,
9.130859375,-0.200331821449528,-0.00883520142756611,,
9.1552734375,-0.203431279175753,-0.00905187218244441,,
9.1796875,-0.206266803594061,-0.00922696422070368,,
9.2041015625,-0.209390334157474,-0.00940456402232925,,
9.228515625,-0.212310319061475,-0.00956765223327372,,
