Time domain (s),Current (AC) (A),Potential (AC) (V),Frequency (Hz),Column 5
0,0.273509384459501,0.0104579693286651,0.50119,0.4
0.0048712189987829,0.277529927582987,0.0106309415507244,,
0.00974243799756579,0.281225217510137,0.0108905802981258,,
0.0146136569963487,0.285283362159211,0.0110351429039217,,
0.0194848759951316,0.288789939429818,0.0113008255307903,,
0.0243560949939145,0.29221661345855,0.0114654254011626,,
0.0292273139926974,0.295832705172431,0.0116850347229898,,
0.0340985329914803,0.299439866523985,0.0118672249888259,,
0.0389697519902632,0.30280849319759,0.0120558537904372,,
0.0438409709890461,0.306118602497,0.0122709527544531,,
0.048712189987829,0.30945644292153,0.0124547329214177,,
0.0535834089866119,0.31271837526628,0.0126131536015883,,
0.0584546279853947,0.315637898718646,0.0127951239874813,,
0.0633258469841776,0.318700777987315,0.0129936248347517,,
0.0681970659829605,0.321560374008274,0.0131592000700009,,
0.0730682849817434,0.324676365431836,0.0133259479982808,,
0.0779395039805263,0.327439607543477,0.013498147821565,,
0.0828107229793092,0.330145037309526,0.0136416730450644,,
0.0876819419780921,0.332864097628601,0.0138520812369567,,
0.092553160976875,0.335490564190916,0.0139720116511564,,
0.0974243799756579,0.338014331586468,0.0141560173360116,,
0.102295598974441,0.340147748144512,0.0143078528937779,,
0.107166817973224,0.342655534891689,0.0144402318955366,,
0.112038036972007,0.345009390393492,0.0145456615093735,,
0.116909255970789,0.347034467555935,0.0147183180063859,,
0.121780474969572,0.349098556301176,0.0148403006333897,,
0.126651693968355,0.351240903221546,0.0149915103790099,,
0.131522912967138,0.353457983174022,0.0151200104730509,,
0.136394131965921,0.355066858450114,0.0152329949362215,,
0.141265350964704,0.356866091449495,0.0153858058588647,,
0.146136569963487,0.358690000450043,0.0154992413578161,,
0.15100778896227,0.360031904894461,0.0156027540695831,,
0.155879007961053,0.361604588702175,0.0157206830125043,,
0.160750226959836,0.363218399178501,0.015831587073134,,
0.165621445958618,0.364344564869858,0.0159502320353577,,
0.170492664957401,0.365839695531047,0.0160357935230362,,
0.175363883956184,0.366573395299081,0.0161163710653329,,
0.180235102954967,0.368045260016312,0.0162238979955522,,
0.18510632195375,0.369078361931839,0.0163257418749287,,
0.189977540952533,0.370091018017829,0.0163996158979289,,
0.194848759951316,0.370763615306782,0.0164883402740226,,
0.199719978950099,0.37145266326318,0.0165614926397728,,
0.204591197948882,0.372159806953768,0.0166533235248085,,
0.209462416947665,0.372839454528769,0.016743665991767,,
0.214333635946447,0.373414757870264,0.0167902410741148,,
0.21920485494523,0.373581379630525,0.0168416309634263,,
0.224076073944013,0.374292048464136,0.0169213628136333,,
0.228947292942796,0.374049518624094,0.0169396015730325,,
0.233818511941579,0.374292283473671,0.0170199310456498,,
0.238689730940362,0.374481936168355,0.0170726120248847,,
0.243560949939145,0.374339990409261,0.01709899761808,,
0.248432168937928,0.374080069863635,0.0171263811279414,,
0.253303387936711,0.373809103869867,0.0171959308453902,,
0.258174606935493,0.373560463781917,0.0172229196989426,,
0.263045825934276,0.373162357629755,0.0172553942751832,,
0.267917044933059,0.372676827930601,0.017235075113244,,
0.272788263931842,0.372317028332632,0.0171670194518203,,
0.277659482930625,0.371680622512057,0.017207139084551,,
0.282530701929408,0.370981704155192,0.0173022399789997,,
0.287401920928191,0.370146715277606,0.0172808552450276,,
0.292273139926974,0.369276239960246,0.0172961002544296,,
0.297144358925757,0.368064765807711,0.0173076467704263,,
0.30201557792454,0.367231186987334,0.0173268157911237,,
0.306886796923322,0.366206310405529,0.0172955364597032,,
0.311758015922105,0.364662297761076,0.0172897632017048,,
0.316629234920888,0.363278796628976,0.0172609871188691,,
0.321500453919671,0.361817037321747,0.0172454489362095,,
0.326371672918454,0.360546340766411,0.017241530562861,,
0.331242891917237,0.358673079763529,0.0171993756311681,,
0.33611411091602,0.356979836064399,0.017173373418387,,
0.340985329914803,0.355398221894358,0.0171515207347914,,
0.345856548913586,0.353660326383592,0.017093720499441,,
0.350727767912368,0.351420450506228,0.0170409267612612,,
0.355598986911151,0.349400308544018,0.0169788924275154,,
0.360470205909934,0.347642437222784,0.0169457807632338,,
0.365341424908717,0.345176247163288,0.0168576934751812,,
0.3702126439075,0.343098292855487,0.016814551902717,,
0.375083862906283,0.340627872624362,0.0167534816579535,,
0.379955081905066,0.33830362832396,0.0167083273383164,,
0.384826300903849,0.336053412027059,0.0166201780328437,,
0.389697519902632,0.333123783164692,0.0165572134377996,,
0.394568738901415,0.330590615387743,0.0164746682519072,,
0.399439957900197,0.327850874229595,0.0163726721479542,,
0.40431117689898,0.325084576994,0.0163119401800267,,
0.409182395897763,0.322055774107895,0.0162243264795441,,
0.414053614896546,0.319528481569318,0.0161317288336802,,
0.418924833895329,0.316286055015967,0.0160253069411249,,
0.423796052894112,0.313008612041912,0.0159027605193951,,
0.428667271892895,0.309990619594413,0.0157914674404038,,
0.433538490891678,0.306823161082703,0.0156846621674345,,
0.438409709890461,0.303677088438671,0.0156072700653418,,
0.443280928889244,0.300065931925023,0.0154798919228063,,
0.448152147888026,0.296698245289557,0.0153853097195054,,
0.453023366886809,0.293011650715199,0.0152331697125865,,
0.457894585885592,0.289400729211086,0.0151178398633545,,
0.462765804884375,0.285735285494871,0.014968913486376,,
0.467637023883158,0.2819779530505,0.0148600560006029,,
0.472508242881941,0.278021802539584,0.0146980213962356,,
0.477379461880724,0.274201957558923,0.0145973502098897,,
0.482250680879507,0.270391982978729,0.0144224610857604,,
0.48712189987829,0.266434892429673,0.0143010422534831,,
0.491993118877072,0.262308830025006,0.0141380886637119,,
0.496864337875855,0.258237054822907,0.0139815961615053,,
0.501735556874638,0.25394108052449,0.0138300932426274,,
0.506606775873421,0.249701978533524,0.0136802535181921,,
0.511477994872204,0.245409793763857,0.0135158058723959,,
0.516349213870987,0.241000985512485,0.0133365642529788,,
0.52122043286977,0.236655688587925,0.0131560653713221,,
0.526091651868553,0.23219329816259,0.0130049458328578,,
0.530962870867336,0.227571835658302,0.0128260199384878,,
0.535834089866119,0.223064352778453,0.0126795911721476,,
0.540705308864901,0.218424794539976,0.0124607993526737,,
0.545576527863684,0.213953033109436,0.0123192361348221,,
0.550447746862467,0.209152258330001,0.0120909218224194,,
0.55531896586125,0.204097173857586,0.011937276483581,,
0.560190184860033,0.199340375237374,0.0117030310506565,,
0.565061403858816,0.194462047311415,0.0115076423502756,,
0.569932622857599,0.189560952836759,0.0113485169266965,,
0.574803841856382,0.18445604634294,0.0111232471058162,,
0.579675060855165,0.179586413769773,0.0109271987656054,,
0.584546279853947,0.174526658482851,0.0107136164094035,,
0.58941749885273,0.16946643317686,0.0104804309105648,,
0.594288717851513,0.164188354031994,0.0103238763909381,,
0.599159936850296,0.1588926785482,0.0100787609956887,,
0.604031155849079,0.15379247224508,0.00987362992243535,,
0.608902374847862,0.148459136483315,0.00969129870791807,,
0.613773593846645,0.143182731781385,0.00943747268414574,,
0.618644812845428,0.137904182617449,0.00920436047862117,,
0.623516031844211,0.132478987503721,0.0090093100550761,,
0.628387250842994,0.127203992859,0.00878036429257989,,
0.633258469841776,0.121767252901868,0.00854593844534302,,
0.638129688840559,0.116196792519364,0.00831144494273905,,
0.643000907839342,0.110628505975059,0.00809774418964437,,
0.647872126838125,0.105141062710767,0.00782707761739454,,
0.652743345836908,0.0996909272101442,0.00757636937845918,,
0.657614564835691,0.0941378869094166,0.00739363223173894,,
0.662485783834474,0.0885002431761163,0.00711072003803137,,
0.667357002833257,0.0829286371221296,0.0068789609398503,,
0.67222822183204,0.0773170794472059,0.00665105255965059,,
0.677099440830823,0.0716855459618135,0.0063848456036868,,
0.681970659829605,0.0659736685916689,0.00619033642307887,,
0.686841878828388,0.0602824133082139,0.00594734089600069,,
0.691713097827171,0.0546445345653786,0.00564893562321211,,
0.696584316825954,0.048924373109128,0.00540817272325045,,
0.701455535824737,0.0431650238129286,0.00516998636518862,,
0.70632675482352,0.0374916586303198,0.00490163698926427,,
0.711197973822303,0.0317419153488605,0.0046644823755515,,
0.716069192821086,0.0260361188504321,0.00440197955094002,,
0.720940411819869,0.0202551193008278,0.00412883228189376,,
0.725811630818652,0.0145415674877469,0.00390038265875692,,
0.730682849817434,0.00877443350070321,0.00364717117123625,,
0.735554068816217,0.00303714572459491,0.00336093822659045,,
0.740425287815,-0.00275296044448763,0.0031203613788886,,
0.745296506813783,-0.0085155117456003,0.00284387644506223,,
0.750167725812566,-0.0142628461793266,0.00258146382760716,,
0.755038944811349,-0.0200578875486426,0.00234176086173088,,
0.759910163810132,-0.0258048694680665,0.00210753798059571,,
0.764781382808915,-0.0315057307662615,0.00181501872475076,,
0.769652601807698,-0.0372979520211584,0.00156354372498724,,
0.77452382080648,-0.0430498691408157,0.0013080996103505,,
0.779395039805263,-0.0486668320350427,0.0010162174425461,,
0.784266258804046,-0.0544213342595843,0.000770177423945473,,
0.789137477802829,-0.0601538630926103,0.00049235629661748,,
0.794008696801612,-0.0658497891905719,0.000241760816627412,,
0.798879915800395,-0.0714646369989846,-5.14800964674933E-05,,
0.803751134799178,-0.0771342420290347,-0.000298035987242873,,
0.808622353797961,-0.0827438608752954,-0.000562957491230698,,
0.813493572796744,-0.0884535350310501,-0.000817947751112769,,
0.818364791795526,-0.0939310197662995,-0.00113177844761569,,
0.823236010794309,-0.0994935192008078,-0.00133973131347487,,
0.828107229793092,-0.105051964720839,-0.00161560453002263,,
0.832978448791875,-0.110594840859181,-0.00186804925671558,,
0.837849667790658,-0.116081667223443,-0.00214577453893972,,
0.842720886789441,-0.121554804282297,-0.00243358047087217,,
0.847592105788224,-0.126957673490208,-0.00267720744804389,,
0.852463324787007,-0.13238686376603,-0.00294683663799722,,
0.85733454378579,-0.13779443316464,-0.00320320255701168,,
0.862205762784573,-0.143065697032993,-0.00346133597249398,,
0.867076981783355,-0.148435958667933,-0.0037467711476018,,
0.871948200782138,-0.15362350038947,-0.00395984045060249,,
0.876819419780921,-0.158817387368449,-0.00424261733357545,,
0.881690638779704,-0.164144407248963,-0.00449382171187018,,
0.886561857778487,-0.169246464252171,-0.00475756488487988,,
0.89143307677727,-0.174305514510487,-0.00498890113701611,,
0.896304295776053,-0.179399581189508,-0.00522181601438598,,
0.901175514774836,-0.184496467982947,-0.00549469266196345,,
0.906046733773619,-0.189280557085402,-0.00577156097620346,,
0.910917952772402,-0.194274333445394,-0.00599114774624177,,
0.915789171771184,-0.199126281551058,-0.00626285170078811,,
0.920660390769967,-0.203927291340028,-0.0065036399715126,,
0.92553160976875,-0.208859260192334,-0.00675148131426395,,
0.930402828767533,-0.213604043950073,-0.0070133977923601,,
0.935274047766316,-0.218238431978781,-0.00725274274858467,,
0.940145266765099,-0.223008831775827,-0.00746831248119717,,
0.945016485763882,-0.227648448766688,-0.00772646281052092,,
0.949887704762665,-0.232095534196061,-0.00797793781028444,,
0.954758923761448,-0.236559305302414,-0.00818099411894435,,
0.959630142760231,-0.240896700031362,-0.00841968225431255,,
0.964501361759013,-0.245582496395835,-0.00865580230470231,,
0.969372580757796,-0.249569374403443,-0.00891922693369152,,
0.974243799756579,-0.254121332837777,-0.00911024058699583,,
0.979115018755362,-0.258291400777858,-0.00934013352463259,,
0.983986237754145,-0.262399308695952,-0.00955178206492269,,
0.988857456752928,-0.266301583270987,-0.00980400127372505,,
0.993728675751711,-0.27043293339019,-0.0100064035805021,,
0.998599894750494,-0.274495484468044,-0.0102277944936646,,
1.00347111374928,-0.278394762671509,-0.0104541468004196,,
1.00834233274806,-0.28197842306957,-0.0106527604066358,,
1.01321355174684,-0.285869534691696,-0.0108659650203711,,
1.01808477074563,-0.289377698276663,-0.0110730580992717,,
1.02295598974441,-0.293162761846155,-0.0112940205284424,,
1.02782720874319,-0.296761697863987,-0.0114657072985254,,
1.03269842774197,-0.300063816839209,-0.0116789570158389,,
1.03756964674076,-0.303655937580528,-0.0118843587105606,,
1.04244086573954,-0.3068177558634,-0.0120652888951831,,
1.04731208473832,-0.310221163948174,-0.0122660223695705,,
1.05218330373711,-0.313488266502693,-0.0124349606403622,,
1.05705452273589,-0.316604727945325,-0.0126533521655805,,
1.06192574173467,-0.319781821847967,-0.0128120716569566,,
1.06679696073345,-0.322283968366307,-0.0130109530656677,,
1.07166817973224,-0.325693721708524,-0.0131845144532159,,
1.07653939873102,-0.328094579117311,-0.0133447449144586,,
1.0814106177298,-0.330960050376644,-0.0135307520705923,,
1.08628183672859,-0.333600617511054,-0.0136976099388439,,
1.09115305572737,-0.336218858739646,-0.0138446532414362,,
1.09602427472615,-0.338676118436815,-0.0140148290416526,,
1.10089549372493,-0.341217981566557,-0.0141962102620563,,
1.10576671272372,-0.343575773478069,-0.0143534864389325,,
1.1106379317225,-0.346084324006236,-0.0144955852617743,,
1.11550915072128,-0.348069919566812,-0.0146349778699291,,
1.12038036972007,-0.350050579927154,-0.0147859169940809,,
1.12525158871885,-0.35230056121452,-0.0149363374270841,,
1.13012280771763,-0.354033991544122,-0.0150923056001955,,
1.13499402671641,-0.355726236452728,-0.0152118047114294,,
1.1398652457152,-0.357680634497543,-0.0153193598313845,,
1.14473646471398,-0.359101913412382,-0.0154517360141697,,
1.14960768371276,-0.360990450035034,-0.0155806194886243,,
1.15447890271155,-0.362571711690773,-0.0156974828595127,,
1.15935012171033,-0.36380715681587,-0.015797905976179,,
1.16422134070911,-0.365001416519972,-0.0159280974543989,,
1.16909255970789,-0.366466230951155,-0.0160780894034103,,
1.17396377870668,-0.36766195946485,-0.0161471880850779,,
1.17883499770546,-0.368792590337372,-0.0162574663335615,,
1.18370621670424,-0.369569766869366,-0.0163842299398453,,
1.18857743570303,-0.370773720716784,-0.0164393239605087,,
1.19344865470181,-0.371470758997369,-0.0165212546101494,,
1.19831987370059,-0.372505505979641,-0.0166262303692313,,
1.20319109269938,-0.372687168350138,-0.0167169336648145,,
1.20806231169816,-0.3735998866314,-0.0167473334764621,,
1.21293353069694,-0.373899993807499,-0.0168661616719716,,
1.21780474969572,-0.374485931330449,-0.0169114935869477,,
1.22267596869451,-0.374675584025133,-0.0169782440635795,,
1.22754718769329,-0.3749537765621,-0.0170502998485871,,
1.23241840669207,-0.375155708504983,-0.0171164414269147,,
1.23728962569086,-0.374828046460915,-0.0171675888844938,,
1.24216084468964,-0.374873932072609,-0.0171947609713325,,
1.24703206368842,-0.374765827686544,-0.0172725900143385,,
1.2519032826872,-0.374687569511414,-0.0173056058335161,,
1.25677450168599,-0.374108212255442,-0.0173451137489686,,
1.26164572068477,-0.373648592357513,-0.0173734416149967,,
1.26651693968355,-0.373064123644157,-0.0174075850236273,,
1.27138815868234,-0.372907078522443,-0.0174132906262585,,
1.27625937768112,-0.372164507144466,-0.0174417481650737,,
1.2811305966799,-0.371176527059644,-0.0174704114889637,,
1.28600181567868,-0.370434601957888,-0.0174669187806336,,
1.29087303467747,-0.369427351091202,-0.0175142324340731,,
1.29574425367625,-0.368833481996448,-0.0174929012605998,,
1.30061547267503,-0.367199225690584,-0.0174868066396074,,
1.30548669167382,-0.366185629566456,-0.0174896030614504,,
1.3103579106726,-0.364917988135074,-0.0174804047504891,,
1.31522912967138,-0.363372330423876,-0.0174672796092583,,
1.32010034867016,-0.361940241070431,-0.0174361102178096,,
1.32497156766895,-0.36062694903689,-0.0174189257545487,,
1.32984278666773,-0.359018308770333,-0.0174081488183537,,
1.33471400566651,-0.357254092191655,-0.0173701265020054,,
1.3395852246653,-0.355491050660653,-0.0173547687336582,,
1.34445644366408,-0.353311102214695,-0.0173287665208766,,
1.34932766266286,-0.351637364306963,-0.0172446032441198,,
1.35419888166165,-0.349201020458403,-0.0172218710407512,,
1.35907010066043,-0.347626985345863,-0.0171591094118084,,
1.36394131965921,-0.34551184077916,-0.0171140058336965,,
1.36881253865799,-0.342997003745935,-0.0170413665211475,,
1.37368375765678,-0.340496972313409,-0.016983994769789,,
1.37855497665556,-0.338190823747197,-0.0169462007903047,,
1.38342619565434,-0.335419885073287,-0.0168772120486089,,
1.38829741465313,-0.332886482286803,-0.0167929388318804,,
1.39316863365191,-0.33030460878374,-0.0167119976419849,,
1.39803985265069,-0.327426388257138,-0.0166152053633564,,
1.40291107164947,-0.324691171032537,-0.0165516769735858,,
1.40778229064826,-0.321936859283223,-0.0164532158625676,,
1.41265350964704,-0.318765875628489,-0.0163461625199188,,
1.41752472864582,-0.315818621051003,-0.0162639612488098,,
1.42239594764461,-0.312652748853653,-0.0161402872376266,,
1.42726716664339,-0.309510025095493,-0.0160579506557834,,
1.43213838564217,-0.306117427449325,-0.0159360582359356,,
1.43700960464095,-0.303061833476239,-0.0158562023508884,,
1.44188082363974,-0.299275536106689,-0.0156941451947321,,
1.44675204263852,-0.296110897709397,-0.0156192507032773,,
1.4516232616373,-0.292205333000873,-0.0154413847429931,,
1.45649448063609,-0.288774663810047,-0.0153276335189947,,
1.46136569963487,-0.284952233724503,-0.0152192693536071,,
1.46623691863365,-0.281186147174956,-0.0150745094196565,,
1.47110813763243,-0.277560478822527,-0.0149532484499026,,
1.47597935663122,-0.273309626354815,-0.0147704013632102,,
1.48085057563,-0.269606816122547,-0.0146547106853534,,
1.48572179462878,-0.265461717945551,-0.0144719735386327,,
1.49059301362757,-0.261180372990683,-0.0143331672769933,,
1.49546423262635,-0.257263939091169,-0.0141720572959771,,
1.50033545162513,-0.252901633351519,-0.0140199905823728,,
1.50520667062391,-0.248685092275906,-0.0138645890229618,,
1.5100778896227,-0.244255397552117,-0.0137206127636809,,
1.51494910862148,-0.240016060551617,-0.013522092183595,,
1.51982032762026,-0.235511632795722,-0.0133539037597892,,
1.52469154661905,-0.231052326870532,-0.013172449246071,,
1.52956276561783,-0.226509122541374,-0.0129922801843292,,
1.53443398461661,-0.221984248955941,-0.01280052514096,,
1.5393052036154,-0.217224600845118,-0.0125774231108027,,
1.54417642261418,-0.212629929427812,-0.0124026016420409,,
1.54904764161296,-0.207733917034349,-0.0122428616822101,,
1.55391886061174,-0.202858702984727,-0.0120297726463936,,
1.55879007961053,-0.198036366080463,-0.0118324219403649,,
1.56366129860931,-0.19320333624236,-0.0116160854469243,,
1.56853251760809,-0.188123370135435,-0.0114247758013888,,
1.57340373660688,-0.183294864230879,-0.0111962810746737,,
1.57827495560566,-0.178184875655868,-0.0110082696282876,,
1.58314617460444,-0.173015018401834,-0.0108122466588396,,
1.58801739360322,-0.167905499845892,-0.0105801182751128,,
1.59288861260201,-0.162864134055079,-0.010352393128199,,
1.59775983160079,-0.157600801758529,-0.0101381539511411,,
1.60263105059957,-0.152280890916447,-0.00992850970110304,,
1.60750226959836,-0.14728041678471,-0.00969392599134267,,
1.61237348859714,-0.141762040390384,-0.00948852711559445,,
1.61724470759592,-0.136458873977664,-0.00924649567749825,,
1.6221159265947,-0.131041962950042,-0.009014756312133,,
1.62698714559349,-0.125688151982546,-0.00875543610875162,,
1.63185836459227,-0.120240630963,-0.00854416812990166,,
1.63672958359105,-0.114840053098054,-0.00829488065367689,,
1.64160080258984,-0.109328198218322,-0.00805955555385163,,
1.64647202158862,-0.103882146008369,-0.00781712100252596,,
1.6513432405874,-0.098346437660842,-0.0075750952023772,,
1.65621445958618,-0.0926784776975364,-0.00734434529675676,,
1.66108567858497,-0.0870359575163863,-0.00707191968496046,,
1.66595689758375,-0.0814790395583325,-0.00685271629533624,,
1.67082811658253,-0.0758816412078879,-0.00660254929933846,,
