Time domain (s),Current (AC) (A),Potential (AC) (V),Frequency (Hz),Column 5
0,0.457079891716848,0.0203048504776051,0.50119,0.5
0.0048712189987829,0.458002010326087,0.0203427376761511,,
0.00974243799756579,0.458236571948382,0.020473187127191,,
0.0146136569963487,0.458594214759698,0.0205127517639374,,
0.0194848759951316,0.459019764433922,0.020562064405004,,
0.0243560949939145,0.459450690068126,0.0206162476798806,,
0.0292273139926974,0.459413341293527,0.0207325231149635,,
0.0340985329914803,0.459710150873487,0.0207533260433261,,
0.0389697519902632,0.459160388229194,0.0207993242281899,,
0.0438409709890461,0.458900078588047,0.0208290465468215,,
0.048712189987829,0.45889781502595,0.0208751794656772,,
0.0535834089866119,0.458258075788303,0.0209208003953636,,
0.0584546279853947,0.458020118822863,0.0209269442653981,,
0.0633258469841776,0.457700107731409,0.0209527862450605,,
0.0681970659829605,0.456367152601576,0.0209540527445853,,
0.0730682849817434,0.455588204294968,0.02096170563533,,
0.0779395039805263,0.454865279150259,0.0210094284152911,,
0.0828107229793092,0.453768866259556,0.0209840445312013,,
0.0876819419780921,0.452476372302205,0.0210022066733209,,
0.092553160976875,0.451178785330137,0.0210043085235956,,
0.0974243799756579,0.449801690739414,0.0209686848561148,,
0.102295598974441,0.448147026846554,0.0209537563298028,,
0.107166817973224,0.44637154532677,0.0209414483796353,,
0.112038036972007,0.444993318954998,0.0209045245291315,,
0.116909255970789,0.44312107015557,0.0208822664736559,,
0.121780474969572,0.441014825624372,0.0208542956969198,,
0.126651693968355,0.439010158442273,0.0208051177898452,,
0.131522912967138,0.436822991566109,0.0207991356006012,,
0.136394131965921,0.434956118726661,0.0207109926230444,,
0.141265350964704,0.432731320130636,0.0206565600902824,,
0.146136569963487,0.430062580418349,0.0205874684991927,,
0.15100778896227,0.427417891053342,0.0205406417002783,,
0.155879007961053,0.425113867783923,0.0204933163855934,,
0.160750226959836,0.422119741020202,0.0204040955361013,,
0.165621445958618,0.419174846732088,0.0203396926879322,,
0.170492664957401,0.416609664985736,0.0202510377212062,,
0.175363883956184,0.413488495799324,0.0201704061637029,,
0.180235102954967,0.410120881289608,0.0200421932969301,,
0.18510632195375,0.406860785979496,0.0199825937155755,,
0.189977540952533,0.403631814648218,0.0198424164703144,,
0.194848759951316,0.400392374342241,0.0197867915417231,,
0.199719978950099,0.396818209791179,0.0196744031823091,,
0.204591197948882,0.393373351224905,0.0195575349176615,,
0.209462416947665,0.389541140594793,0.0194119952595191,,
0.214333635946447,0.385877282395641,0.0193126963074262,,
0.21920485494523,0.381766087737082,0.0191621714915806,,
0.224076073944013,0.377816454823191,0.0190474926543027,,
0.228947292942796,0.373988205426749,0.0189128664495115,,
0.233818511941579,0.369509181927437,0.0187427445745314,,
0.238689730940362,0.365576242784012,0.0186188768790001,,
0.243560949939145,0.361059870510101,0.0184690931001104,,
0.248432168937928,0.356673653056764,0.0183258506565318,,
0.253303387936711,0.352046366240103,0.0181640620789563,,
0.258174606935493,0.347740788186469,0.0179899049209165,,
0.263045825934276,0.343277892567099,0.0178295714704544,,
0.267917044933059,0.338658528217777,0.0176842473866996,,
0.272788263931842,0.333760179840009,0.0174849488657554,,
0.277659482930625,0.328903141470509,0.0173050789864555,,
0.282530701929408,0.324121649485995,0.0171061846674871,,
0.287401920928191,0.318788697185614,0.0169551209156737,,
0.292273139926974,0.313904496070951,0.0167574728861313,,
0.297144358925757,0.308423846343746,0.0165612867204024,,
0.30201557792454,0.302935557094463,0.0163729083895086,,
0.306886796923322,0.298113038046942,0.0161522680042339,,
0.311758015922105,0.292465167669826,0.0159735298904669,,
0.316629234920888,0.287227284977516,0.0157671713083425,,
0.321500453919671,0.28162893002127,0.0155258694653972,,
0.326371672918454,0.275752156927101,0.0153248935062527,,
0.331242891917237,0.270351297763813,0.0151191883839896,,
0.33611411091602,0.264690977795163,0.01490182877142,,
0.340985329914803,0.258878150330232,0.0146747952582258,,
0.345856548913586,0.253019768678101,0.0144363699860093,,
0.350727767912368,0.247113604644829,0.0142040953205269,,
0.355598986911151,0.240962056332987,0.0139671319121231,,
0.360470205909934,0.234993043083368,0.0137280531800457,,
0.365341424908717,0.228849452607022,0.0134776365825422,,
0.3702126439075,0.22278080725698,0.0132271391446439,,
0.375083862906283,0.216582643713204,0.0129875551600964,,
0.379955081905066,0.210220619494504,0.0127404799655944,,
0.384826300903849,0.204039680243559,0.0124823026901528,,
0.389697519902632,0.197627574713465,0.0122182779594588,,
0.394568738901415,0.191309407010393,0.0119657595116811,,
0.399439957900197,0.184801948926965,0.0116905047027553,,
0.40431117689898,0.178343687950988,0.0114205988333116,,
0.409182395897763,0.171811366052652,0.0111858113788785,,
0.414053614896546,0.165245338299966,0.0109186271360726,,
0.418924833895329,0.158600085873887,0.0106387105310244,,
0.423796052894112,0.151832565726416,0.0103622363794713,,
0.428667271892895,0.145182573967197,0.0100866312621664,,
0.433538490891678,0.138576332619132,0.00978794621203471,,
0.438409709890461,0.131809413730343,0.00950570544562446,,
0.443280928889244,0.125004297231168,0.0092596474927622,,
0.448152147888026,0.11823911138211,0.00893947237090886,,
0.453023366886809,0.111298711679485,0.00864259949296908,,
0.457894585885592,0.104427916511342,0.0083621978455497,,
0.462765804884375,0.0975722235465632,0.00804998550262237,,
0.467637023883158,0.0906819051553334,0.00779463090431287,,
0.472508242881941,0.0836920253999962,0.00745950030934939,,
0.477379461880724,0.0767349672950645,0.0071821099666507,,
0.482250680879507,0.0698322700486171,0.006862440097267,,
0.48712189987829,0.062734022257889,0.00657297758888653,,
0.491993118877072,0.0557322234333851,0.00628656006872497,,
0.496864337875855,0.0487177274402437,0.00600043222664626,,
0.501735556874638,0.0416786152092982,0.00566216906636896,,
0.506606775873421,0.0346304840981226,0.00534404190119364,,
0.511477994872204,0.0276162356820855,0.00503932750492053,,
0.516349213870987,0.0205179878913575,0.00473924795797176,,
0.52122043286977,0.0134395462689777,0.00440087701050063,,
0.526091651868553,0.00641260068430312,0.00409737522015519,,
0.530962870867336,-0.000695833135861119,0.0037946009933667,,
0.535834089866119,-0.00775383196305301,0.00348301516350258,,
0.540705308864901,-0.0148830622599828,0.00314741973626642,,
0.545576527863684,-0.0219129787699096,0.00283860942663683,,
0.550447746862467,-0.0290209174358652,0.00254532047288381,,
0.55531896586125,-0.0360294715785021,0.00219164374392333,,
0.560190184860033,-0.0430875411420095,0.00189339657926579,,
0.565061403858816,-0.0501003394635782,0.00156699001028304,,
0.569932622857599,-0.0571671803302113,0.00124322422754286,,
0.574803841856382,-0.0641972383127691,0.000933982769139252,,
0.579675060855165,-0.0712029630027849,0.00063653727173385,,
0.584546279853947,-0.0780541288433693,0.000276346154260754,,
0.58941749885273,-0.0851049833026927,-4.75004688742509E-05,,
0.594288717851513,-0.0920045327830991,-0.000362047078212413,,
0.599159936850296,-0.098976586986923,-0.000672531457692305,,
0.604031155849079,-0.105834048359589,-0.000981287873725201,,
0.608902374847862,-0.112716974805847,-0.00131642520538833,,
0.613773593846645,-0.119563330576975,-0.00162299893075124,,
0.618644812845428,-0.126348428698855,-0.00194509401199028,,
0.623516031844211,-0.13314024677071,-0.00225802718177448,,
0.628387250842994,-0.14000287189441,-0.00260841640133069,,
0.633258469841776,-0.146699832567141,-0.00291711892376645,,
0.638129688840559,-0.153376491917315,-0.00322967483837333,,
0.643000907839342,-0.159957869450471,-0.00352708665228052,,
0.647872126838125,-0.166522977631055,-0.00387458919605832,,
0.652743345836908,-0.173029586878696,-0.00420118776097977,,
0.657614564835691,-0.179648242450136,-0.00449374915117584,,
0.662485783834474,-0.186026111603514,-0.00482481414793146,,
0.667357002833257,-0.192565471765246,-0.00515841888043589,,
0.67222822183204,-0.199095919151221,-0.00544397073469893,,
0.677099440830823,-0.205131990427962,-0.0057589552295112,,
0.681970659829605,-0.211626079347755,-0.00607703523778946,,
0.686841878828388,-0.217837152269115,-0.00634426326914239,,
0.691713097827171,-0.223999912286969,-0.00669303904914464,,
0.696584316825954,-0.230230932849308,-0.0069562048506393,,
0.701455535824737,-0.236207019730481,-0.00728376676360343,,
0.70632675482352,-0.242388807817212,-0.00758088216272856,,
0.711197973822303,-0.248140802050787,-0.0079049982538475,,
0.716069192821086,-0.253990129454531,-0.00816956192050933,,
0.720940411819869,-0.260038650322805,-0.00848179447353514,,
0.725811630818652,-0.265536276765738,-0.00877484090610237,,
0.730682849817434,-0.271430026575634,-0.00905802481045637,,
0.735554068816217,-0.277251059453166,-0.0093615838627481,,
0.740425287815,-0.282563922639936,-0.00965311790625512,,
0.745296506813783,-0.288246666020608,-0.00994481699890271,,
0.750167725812566,-0.293750517259307,-0.0102253331702156,,
0.755038944811349,-0.299078022863392,-0.0104907591344259,,
0.759910163810132,-0.304485319031393,-0.0107881978951316,,
0.764781382808915,-0.30976295553303,-0.0110611386477451,,
0.769652601807698,-0.31456050466117,-0.0113253553743773,,
0.77452382080648,-0.320053816188855,-0.0116176472965894,,
0.779395039805263,-0.325042848523132,-0.0118545601797457,,
0.784266258804046,-0.329756928798947,-0.0121425170357661,,
0.789137477802829,-0.334905117843165,-0.0124128742640828,,
0.794008696801612,-0.33959719912485,-0.0126685151721255,,
0.798879915800395,-0.344484866318974,-0.0129305222612892,,
0.803751134799178,-0.348891385094868,-0.0131798609868565,,
0.808622353797961,-0.35362244208641,-0.0134184984651102,,
0.813493572796744,-0.358050252493278,-0.0136721756252198,,
0.818364791795526,-0.36232279668756,-0.0139218983426641,,
0.823236010794309,-0.366558487261451,-0.0141980996578837,,
0.828107229793092,-0.370870007165589,-0.0144041079316284,,
0.832978448791875,-0.374903674822328,-0.0146808279727169,,
0.837849667790658,-0.379396562639483,-0.0148902012279115,,
0.842720886789441,-0.383049951863937,-0.0151406986658102,,
0.847592105788224,-0.387039480059786,-0.0153558957978084,,
0.852463324787007,-0.390752853679809,-0.0155956414631464,,
0.85733454378579,-0.394661388794377,-0.0158008952265365,,
0.862205762784573,-0.398270709294257,-0.0159794952379619,,
0.867076981783355,-0.401489848277677,-0.0162188939632704,,
0.871948200782138,-0.405009121447887,-0.0164460824205555,,
0.876819419780921,-0.408305080069972,-0.0166394256990539,,
0.881690638779704,-0.411357139876112,-0.0168558354369801,,
0.886561857778487,-0.414577622849528,-0.0170352707991559,,
0.89143307677727,-0.417544162450193,-0.0172376985170639,,
0.896304295776053,-0.420446261267411,-0.0174246857194902,,
0.901175514774836,-0.423010099023768,-0.0175946358086305,,
0.906046733773619,-0.425815713506604,-0.0177826975146429,,
0.910917952772402,-0.428760324849455,-0.0179506838558496,,
0.915789171771184,-0.431090591291935,-0.0181445896487649,,
0.920660390769967,-0.433397231805028,-0.0183056573994831,,
0.92553160976875,-0.435787836324654,-0.0184659066412003,,
0.930402828767533,-0.437931500366768,-0.0186169434462151,,
0.935274047766316,-0.439985046342897,-0.0187998583137339,,
0.940145266765099,-0.441859841649684,-0.0189337030613719,,
0.945016485763882,-0.443867621229666,-0.0190820216080989,,
0.949887704762665,-0.445994237819737,-0.019229794482158,,
0.954758923761448,-0.447508277917325,-0.0193634506022069,,
0.959630142760231,-0.449123895364013,-0.0194597584596781,,
0.964501361759013,-0.450544775734048,-0.0196340739301584,,
0.969372580757796,-0.45178867384263,-0.0197416489177087,,
0.974243799756579,-0.453334616018522,-0.0198699965184739,,
0.979115018755362,-0.454776080656376,-0.0199736608519068,,
0.983986237754145,-0.45527378137244,-0.0200661422640054,,
0.988857456752928,-0.456371538253138,-0.0201762738290538,,
0.993728675751711,-0.457119999207753,-0.0202815010767941,,
0.998599894750494,-0.45791019458853,-0.0203812042308629,,
1.00347111374928,-0.458802886890509,-0.0204966712619941,,
1.00834233274806,-0.459069138382161,-0.0205571937711935,,
1.01321355174684,-0.459239471429956,-0.0206186055247404,,
1.01808477074563,-0.459743396941786,-0.0207483240438737,,
1.02295598974441,-0.459972016713577,-0.0208114132356205,,
1.02782720874319,-0.459923916019017,-0.0208684326610289,,
1.03269842774197,-0.460322868838602,-0.0209179305613341,,
1.03756964674076,-0.459776501537454,-0.0209768935245767,,
1.04244086573954,-0.45971849775872,-0.0209978850805279,,
1.04731208473832,-0.459425932357691,-0.021067997281607,,
1.05218330373711,-0.45895001842681,-0.0211097109255256,,
1.05705452273589,-0.458332348919609,-0.0211705567963061,,
1.06192574173467,-0.457738234605479,-0.021181200781673,,
1.06679696073345,-0.457040420852783,-0.0212061265701902,,
1.07166817973224,-0.455914298709557,-0.0212460617254142,,
1.07653939873102,-0.454918402123221,-0.0212545230201111,,
1.0814106177298,-0.453937077217884,-0.0212695593336165,,
1.08628183672859,-0.453049124249046,-0.021268373674487,,
1.09115305572737,-0.451422259728189,-0.0212525828506265,,
1.09602427472615,-0.449704781987139,-0.0212547655412965,,
1.10089549372493,-0.44865307444785,-0.0212890957624543,,
1.10576671272372,-0.446891174300648,-0.0212267408709637,,
1.1106379317225,-0.444905181505849,-0.0212563284556033,,
1.11550915072128,-0.443260703642425,-0.0212268217113589,,
1.12038036972007,-0.440919897488932,-0.0211690208287973,,
1.12525158871885,-0.439183745360582,-0.0211449303910305,,
1.13012280771763,-0.437019001896441,-0.0210626618155243,,
1.13499402671641,-0.434792081210949,-0.0210398109304837,,
1.1398652457152,-0.432308741381664,-0.0210117896285005,,
1.14473646471398,-0.429943601935629,-0.0209362274374456,,
1.14960768371276,-0.427259017288663,-0.0208795313736183,,
1.15447890271155,-0.424823212263414,-0.0207928435231755,,
1.15935012171033,-0.421914181287274,-0.0207445009668512,,
1.16422134070911,-0.419139902992217,-0.0206787238319639,,
1.16909255970789,-0.41616105527265,-0.0205753828601116,,
1.17396377870668,-0.413128094271702,-0.020490635179153,,
1.17883499770546,-0.409919565735612,-0.0204003634045233,,
1.18370621670424,-0.406713512970565,-0.02033267304695,,
1.18857743570303,-0.403420383801101,-0.0201970228638193,,
1.19344865470181,-0.40000806393997,-0.0201414316187267,,
1.19831987370059,-0.396062038578172,-0.0200017394158367,,
1.20319109269938,-0.392463540734568,-0.0198503523024423,,
1.20806231169816,-0.389236832965387,-0.0197880782513469,,
1.21293353069694,-0.385161926036694,-0.0196696740191906,,
1.21780474969572,-0.381200621630741,-0.0195248080310084,,
1.22267596869451,-0.376893062960272,-0.0193934423888229,,
1.22754718769329,-0.373033123694473,-0.0192598940559674,,
1.23241840669207,-0.36908716906899,-0.0191267263466393,,
1.23728962569086,-0.364747071693378,-0.018929499360822,,
1.24216084468964,-0.360467736812806,-0.0188322449970575,,
1.24703206368842,-0.356121980531951,-0.0186579295265772,,
1.2519032826872,-0.351413842106641,-0.0185188840468484,,
1.25677450168599,-0.347043469587982,-0.0183104505612479,,
1.26164572068477,-0.342132388673418,-0.0181538357689646,,
1.26651693968355,-0.337432384924393,-0.0179808373232562,,
1.27138815868234,-0.332587796146427,-0.0177998087316249,,
1.27625937768112,-0.327674451669766,-0.0176250048504238,,
1.2811305966799,-0.322787421102482,-0.0174356766448867,,
1.28600181567868,-0.317666394803427,-0.0172375907298701,,
1.29087303467747,-0.312687124080693,-0.0170597418604501,,
1.29574425367625,-0.307289165106341,-0.0168462154299522,,
1.30061547267503,-0.301939448299181,-0.0166499349504288,,
1.30548669167382,-0.296631395181867,-0.0164522532373885,,
1.3103579106726,-0.291464885431927,-0.0162431191350292,,
1.31522912967138,-0.285624258594993,-0.016025550684772,,
1.32010034867016,-0.280150116608816,-0.0158044252571266,,
1.32497156766895,-0.274530257812649,-0.0155811979792055,,
1.32984278666773,-0.26879920152847,-0.015326250951222,,
1.33471400566651,-0.263097005661027,-0.0151153417285186,,
1.3395852246653,-0.25713365131665,-0.0148808810040162,,
1.34445644366408,-0.251292529325508,-0.0146343952707291,,
1.34932766266286,-0.24543867479757,-0.0143817959825556,,
1.35419888166165,-0.23950955682991,-0.0141493798463816,,
1.35907010066043,-0.233512036845132,-0.0139127061160611,,
1.36394131965921,-0.22736696090616,-0.0136201986194617,,
1.36881253865799,-0.221153482950072,-0.0134148909624749,,
1.37368375765678,-0.214964055341264,-0.0131281770275309,,
1.37855497665556,-0.208460275546244,-0.0128670356042657,,
1.38342619565434,-0.20232234397514,-0.0125947921000611,,
1.38829741465313,-0.195865533093632,-0.0123348902295222,,
1.39316863365191,-0.189571698683102,-0.0120563681212906,,
1.39803985265069,-0.183175721032948,-0.0118062176234219,,
1.40291107164947,-0.176649376353274,-0.0115032311905958,,
1.40778229064826,-0.17010025458,-0.0112052568622718,,
1.41265350964704,-0.16359060367079,-0.0109480193564244,,
1.41752472864582,-0.156916985982184,-0.0106632186441664,,
1.42239594764461,-0.150199865459528,-0.0103900892639643,,
1.42726716664339,-0.143613182702707,-0.0100788773209279,,
1.43213838564217,-0.136690290238176,-0.00979604372495313,,
1.43700960464095,-0.130023604708492,-0.00951224341258561,,
1.44188082363974,-0.123199035722547,-0.00922857109751085,,
1.44675204263852,-0.116449305758431,-0.00890089802900329,,
1.4516232616373,-0.109602596305725,-0.00858381505226591,,
1.45649448063609,-0.102746337450423,-0.00830895434026679,,
1.46136569963487,-0.0957917551165345,-0.00798117685291588,,
1.46623691863365,-0.0888646892093873,-0.00770691233883136,,
1.47110813763243,-0.081864906369876,-0.00736867275700259,,
1.47597935663122,-0.0748840808629265,-0.0070694049823552,,
1.48085057563,-0.0679751941888702,-0.00674442659368735,,
1.48572179462878,-0.0609565954894281,-0.00642799034011166,,
1.49059301362757,-0.0539427361231265,-0.00611293174160377,,
1.49546423262635,-0.0468595551676062,-0.00580500730797162,,
1.50033545162513,-0.0398373489160721,-0.00548660393811273,,
1.50520667062391,-0.0327589072936922,-0.0051734551939413,,
1.5100778896227,-0.0257918753682709,-0.00484160537168243,,
1.51494910862148,-0.0186891711896646,-0.00452956144624528,,
1.51982032762026,-0.0115867499563203,-0.00419704132237664,,
1.52469154661905,-0.00454360575538958,-0.00388316164629865,,
1.52956276561783,0.00254668419984141,-0.00357303094354755,,
1.53443398461661,0.00965798284078458,-0.00324581597061302,,
1.5393052036154,0.0167344438463296,-0.0028896331894015,,
1.54417642261418,0.0237882692309053,-0.00258066119898182,,
1.54904764161296,0.0309000983942149,-0.00222983746230154,,
1.55391886061174,0.0379496795998588,-0.00190930866371897,,
1.55879007961053,0.0448832532480348,-0.00159545930278915,,
1.56366129860931,0.0519396605081273,-0.00124326127939067,,
1.56853251760809,0.0589721942617286,-0.000912061548643095,,
1.57340373660688,0.0659742760314946,-0.000600017623206384,,
1.57827495560566,0.0729783030499377,-0.000265985110277089,,
1.58314617460444,0.0799874230830989,4.02652535047565E-05,,
1.58801739360322,0.0868878921356072,0.000377982741114558,,
1.59288861260201,0.0937934542028336,0.000708330279362901,,
1.59775983160079,0.10073777977097,0.00104406044059102,,
1.60263105059957,0.107583074497365,0.00135336252929097,,
1.60750226959836,0.114456628381815,0.00170517319246244,,
1.61237348859714,0.121334214236249,0.00200939580966519,,
1.61724470759592,0.127986257348619,0.00233607858333151,,
1.6221159265947,0.134841490527346,0.00267172790416437,,
1.62698714559349,0.141702594820263,0.00300287710966485,,
1.63185836459227,0.148184021939576,0.00331702288537672,,
1.63672958359105,0.154997945110034,0.00363065667191931,,
1.64160080258984,0.161774130456157,0.00398131535945945,,
1.64647202158862,0.168288131648772,0.00430173973919823,,
1.6513432405874,0.174753147942882,0.004600202478243,,
1.65621445958618,0.181304780855358,0.00491073738296999,,
1.66108567858497,0.187714587455197,0.00524592860823025,,
1.66595689758375,0.194119053463215,0.00556233791500782,,
