Time domain (s),Current (AC) (A),Potential (AC) (V),Frequency (Hz),Column 5
0,0.382006803418828,0.00810952155761857,125.89,0.5
0.000242414632814362,0.326960934455023,0.00730013877578273,,
0.000484829265628723,0.260410511133542,0.00616221089975877,,
0.000727243898443085,0.183791728236735,0.00481647190228518,,
0.000969658531257447,0.100445426578888,0.00330735714281793,,
0.00121207316407181,0.0134230647074594,0.00164683630646101,,
0.00145448779688617,-0.074238187565829,-4.79916942639491E-05,,
0.00169690242970053,-0.159393393652547,-0.00174754321956527,,
0.00193931706251489,-0.238521016820388,-0.0033792009247704,,
0.00218173169532926,-0.308688612372772,-0.00489542321958725,,
0.00242414632814362,-0.367466317134953,-0.0062073171366186,,
0.00266656096095798,-0.413083247447657,-0.00733625320172804,,
0.00290897559377234,-0.442912822442652,-0.00812013921938348,,
0.0031513902265867,-0.457202831433238,-0.00868749613218656,,
0.00339380485940106,-0.454237635822568,-0.00886622506047496,,
0.00363621949221543,-0.434898044211612,-0.00878651387182794,,
0.00387863412502979,-0.399469831315108,-0.00835850606829158,,
0.00412104875784415,-0.349431386127618,-0.00759680007908159,,
0.00436346339065851,-0.286827624794776,-0.00659387943484191,,
0.00460587802347287,-0.213536950175461,-0.00533888687473549,,
0.00484829265628724,-0.132472849633692,-0.00387277330313207,,
0.0050907072891016,-0.046413916379772,-0.00229604710818965,,
0.00533312192191596,0.0410781346267704,-0.000601628137310239,,
0.00557553655473032,0.127614361169724,0.00108992591322865,,
0.00581795118754468,0.209124135867485,0.00277069287122922,,
0.00606036582035904,0.283152236576193,0.00433691778109901,,
0.00630278045317341,0.346378618958323,0.00573695335129276,,
0.00654519508598777,0.396888592425131,0.00694255085113804,,
0.00678760971880213,0.432899884770542,0.00788288821758565,,
0.00703002435161649,0.452949668989411,0.00850862515587636,,
0.00727243898443085,0.456646631784232,0.00885231975714795,,
0.00751485361724521,0.443709242619196,0.0088929181085966,,
0.00775726825005958,0.414695469551199,0.00859247113994943,,
0.00799968288287394,0.370431795690885,0.00792433201147658,,
0.0082420975156883,0.31254968341962,0.00700665387162003,,
0.00848451214850266,0.243193574878988,0.00584183271110605,,
0.00872692678131702,0.164835562824105,0.00444515152793024,,
0.00896934141413138,0.0804771305955078,0.00290445761067959,,
0.00921175604694575,-0.00682619592120257,0.00125426007151264,,
0.00945417067976011,-0.0944394182362466,-0.000461635533391291,,
0.00969658531257447,-0.178327171021312,-0.00210250753436414,,
0.00993899994538883,-0.255528927262554,-0.00376524123929967,,
0.0101814145782032,-0.323286607281172,-0.00523082084725512,,
0.0104238292110176,-0.379255090008425,-0.00648236318071449,,
0.0106662438438319,-0.421240771563435,-0.00754041899442859,,
0.0109086584766463,-0.447664605174644,-0.00829317253542916,,
0.0111510731094606,-0.458099484968887,-0.00875992350902299,,
0.011393487742275,-0.45128142372397,-0.00890184830832119,,
0.0116359023750894,-0.428271749118095,-0.00870304953484924,,
0.0118783170079037,-0.389412612709477,-0.00820759801518856,,
0.0121207316407181,-0.336124682659204,-0.0073962625009103,,
0.0123631462735324,-0.270706040386192,-0.00632418671859902,,
0.0126055609063468,-0.195367903113883,-0.00500391196828875,,
0.0128479755391612,-0.112806173299729,-0.0035058855116219,,
0.0130903901719755,-0.0261747710442307,-0.00190320046857373,,
0.0133328048047899,0.0613913408846708,-0.000213698412950603,,
0.0135752194376043,0.147149786270223,0.00148614063123809,,
0.0138176340704186,0.227292334093277,0.00315350373254297,,
0.014060048703233,0.298627078851893,0.0046782848485214,,
0.0143024633360473,0.359058810880094,0.00606367406968467,,
0.0145448779688617,0.406375181173388,0.00718373812341611,,
0.0147872926016761,0.438883611173791,0.00805360597973559,,
0.0150297072344904,0.45557709869343,0.00864594965297849,,
0.0152721218673048,0.455103165379384,0.00890227958665202,,
0.0155145365001192,0.438564448918123,0.00881595546359826,,
0.0157569511329335,0.405798538729194,0.0084312962665809,,
0.0159993657657479,0.358042188553308,0.00776879798484842,,
0.0162417803985622,0.297376460793336,0.00676309799136554,,
0.0164841950313766,0.225763014951535,0.0055579283470073,,
0.016726609664191,0.145718932079697,0.00411306379030929,,
0.0169690242970053,0.0603003039539478,0.00252731497885783,,
0.0172114389298197,-0.0271832586947311,0.000857514812699467,,
0.017453853562634,-0.114353600938246,-0.000864805470197627,,
0.0176962681954484,-0.197099811063301,-0.00254650344173779,,
0.0179386828282628,-0.272289685018261,-0.00410970255760379,,
0.0181810974610771,-0.337316165157979,-0.00555030909649501,,
0.0184235120938915,-0.390129030113157,-0.00676999159897207,,
0.0186659267267059,-0.4286279772031,-0.0077760612595954,,
0.0189083413595202,-0.45150862876945,-0.00842623730330283,,
0.0191507559923346,-0.458208984785326,-0.00881770111398517,,
0.0193931706251489,-0.447008738057057,-0.0088910595043612,,
0.0196355852579633,-0.420567715521175,-0.00865349873519072,,
0.0198779998907777,-0.378180251693958,-0.0080377171383712,,
0.020120414523592,-0.322196419186235,-0.00716624739110827,,
0.0203628291564064,-0.254092555639417,-0.00605460353336085,,
0.0206052437892207,-0.176713887873037,-0.00468927217742721,,
0.0208476584220351,-0.0930073615283571,-0.00314797755107277,,
0.0210900730548495,-0.00589756957093473,-0.00150713635569533,,
0.0213324876876638,0.0816810626858155,0.00018828037417995,,
0.0215749023204782,0.166252552696787,0.00189681344186399,,
0.0218173169532926,0.244550863301363,0.00350395160482098,,
0.0220597315861069,0.313703251253271,0.00503441121882275,,
0.0223021462189213,0.371692033888354,0.00630928365627659,,
0.0225445608517356,0.415111116141249,0.00741610814981852,,
0.02278697548455,0.444101687697752,0.00821447964284117,,
0.0230293901173644,0.456843561686665,0.00872700259643233,,
0.0232718047501787,0.452886572195959,0.00892289879828079,,
0.0235142193829931,0.43248933119521,0.00877906062924483,,
0.0237566340158075,0.395679284374843,0.00831839376067567,,
0.0239990486486218,0.345017935192802,0.00752758332981918,,
0.0242414632814362,0.281911238656548,0.00652099339692347,,
0.0244838779142505,0.207925049214792,0.00519295734807912,,
0.0247262925470649,0.126285685586981,0.00376062040003999,,
0.0249687071798793,0.0399718186518931,0.00213768238965972,,
0.0252111218126936,-0.0475843901928343,0.000455755087578336,,
0.025453536445508,-0.134024521451141,-0.00124205934444577,,
0.0256959510783223,-0.21510984288757,-0.00292939645130508,,
0.0259383657111367,-0.288208114728645,-0.00445907907974252,,
0.0261807803439511,-0.350733429487565,-0.00585338138641056,,
0.0264231949767654,-0.40042229580371,-0.00699667970450735,,
0.0266656096095798,-0.435708682387577,-0.00790777229270834,,
0.0269080242423942,-0.454288000079225,-0.00855028116608914,,
0.0271504388752085,-0.456925049922155,-0.00885695428778277,,
0.0273928535080229,-0.442356764266277,-0.00885491598424304,,
0.0276352681408372,-0.411815369728111,-0.0085139716380418,,
0.0278776827736516,-0.366419065983542,-0.00786800055806047,,
0.028120097406466,-0.30736718726237,-0.00691332489853336,,
0.0283625120392803,-0.236697222397098,-0.00574746490489675,,
0.0286049266720947,-0.157832950531972,-0.00432691623123516,,
0.028847341304909,-0.0729972603824996,-0.00278185647659557,,
0.0290897559377234,0.0144524195710408,-0.00112392844448994,,
0.0293321705705378,0.101738769372024,0.000606016223184902,,
0.0295745852033521,0.185175684250064,0.00225241953989297,,
0.0298169998361665,0.261656885013168,0.00390105283939945,,
0.0300594144689809,0.328141099143312,0.00532632503763741,,
0.0303018291017952,0.382851395026247,0.00660575670316055,,
0.0305442437346096,0.423418671982265,0.00760614444291718,,
0.0307866583674239,0.448496393508953,0.00836938044334845,,
0.0310290730002383,0.457401812688822,0.00881734171537607,,
0.0312714876330527,0.449625345104799,0.00891212710854017,,
0.031513902265867,0.425122285405471,0.0087097788459487,,
0.0317563168986814,0.38522021276069,0.00817627728211967,,
0.0319987315314958,0.331649054503039,0.00734195565965878,,
0.0322411461643101,0.265399119049926,0.00623225597724364,,
0.0324835607971245,0.189487734676569,0.00491244844512506,,
0.0327259754299388,0.10657119150372,0.00338030136908296,,
0.0329683900627532,0.0197364577092327,0.00177805445005319,,
0.0332108046955676,-0.0679585004184053,6.15530017791244E-05,,
0.0334532193283819,-0.153524543025718,-0.00164833551208776,,
0.0336956339611963,-0.233020277979573,-0.00326680671118362,,
0.0339380485940106,-0.303836101127466,-0.00481686210648924,,
0.034180463226825,-0.363613027082813,-0.00614188776412705,,
0.0344228778596394,-0.410031470586779,-0.00725421276781013,,
0.0346652924924537,-0.441345517899471,-0.00810714610395458,,
0.0349077071252681,-0.456729464009716,-0.00864725717934656,,
0.0351501217580825,-0.454910125974304,-0.00889100473885884,,
0.0353925363908968,-0.436750769787954,-0.00880008031360902,,
0.0356349510237112,-0.402940154954973,-0.00840634373458027,,
0.0358773656565255,-0.353704071794531,-0.00768022163051141,,
0.0361197802893399,-0.291737078774083,-0.00668034047165156,,
0.0363621949221543,-0.219067964159324,-0.00542493717027748,,
0.0366046095549686,-0.138456858982203,-0.00397463713747293,,
0.036847024187783,-0.0526927546914093,-0.0023996754185589,,
0.0370894388205973,0.0348219319361025,-0.000752714178295477,,
0.0373318534534117,0.121484953324642,0.000982927813043766,,
0.0375742680862261,0.203611230380399,0.00264140521159462,,
0.0378166827190404,0.278087834697719,0.00423888753192125,,
0.0380590973518548,0.341999475136539,0.00564208923271892,,
0.0383015119846692,0.393458447012487,0.00686677251012746,,
0.0385439266174835,0.430588787869571,0.00782617853991896,,
0.0387863412502979,0.451903337410103,0.00850280289840955,,
0.0390287558831122,0.457014460624984,0.0088517721021244,,
0.0392711705159266,0.444977403284004,0.00888160560952089,,
0.039513585148741,0.417559724439609,0.00860326336675321,,
0.0397559997815553,0.373949088244261,0.0079660222501281,,
0.0399984144143697,0.317111609880732,0.00711400794756978,,
0.040240829047184,0.248652685398115,0.00593689193178193,,
0.0404832436799984,0.170750250583398,0.00455691080397402,,
0.0407256583128128,0.0865986867095659,0.00301245518128201,,
0.0409680729456271,-0.000518249615724966,0.0013495007029154,,
0.0412104875784415,-0.0882298307775124,-0.000333936073324548,,
0.0414529022112559,-0.172535918132618,-0.00205711891288285,,
0.0416953168440702,-0.250116679552465,-0.00365785978059829,,
0.0419377314768846,-0.318761463704135,-0.00511549667929367,,
0.0421801461096989,-0.375598659122403,-0.00642213481952281,,
0.0424225607425133,-0.419040094051005,-0.00747052452207519,,
0.0426649753753277,-0.446464351372744,-0.00825342476068824,,
0.042907390008142,-0.457589051716028,-0.00874704163602091,,
0.0431498046409564,-0.452364538187354,-0.00890383355778068,,
0.0433922192737708,-0.430275850409669,-0.00874550649053329,,
0.0436346339065851,-0.392647242945998,-0.00824371757539977,,
0.0438770485393995,-0.340283907276008,-0.00747118341952513,,
0.0441194631722138,-0.275754349752883,-0.00639976140039789,,
0.0443618778050282,-0.201076889667617,-0.00508804547124875,,
0.0446042924378426,-0.119045116329408,-0.00363399571295631,,
0.0448467070706569,-0.032485016279963,-0.00201605847750796,,
0.0450891217034713,0.0551481183079025,-0.000322834079148127,,
0.0453315363362856,0.141157040986743,0.0013747065253642,,
0.0455739509691,0.221736137981087,0.00302696803940039,,
0.0458163656019144,0.293952823121721,0.00459678008967312,,
0.0460587802347287,0.355050608296945,0.00595521441515645,,
0.0463011948675431,0.403649852408678,0.00712418063962827,,
0.0465436095003575,0.436824335556104,0.00801338071827162,,
0.0467860241331718,0.454881336293884,0.00859927575361441,,
0.0470284387659862,0.455539184028306,0.00886795530806417,,
0.0472708533988005,0.44009037271672,0.00885838503653114,,
0.0475132680316149,0.408612429360947,0.00848501780152633,,
0.0477556826644293,0.362043034559642,0.00782979306307308,,
0.0479980972972436,0.302252456495398,0.00686036152351077,,
0.048240511930058,0.231419338318357,0.00566069581213702,,
0.0484829265628723,0.151687945329316,0.00421139524975001,,
0.0487253411956867,0.0664888827269698,0.002668541518001,,
0.0489677558285011,-0.0208568855790581,0.000990362229985386,,
0.0492101704613154,-0.108250471634384,-0.000723003893279728,,
0.0494525850941298,-0.19122671625754,-0.0024287011347961,,
0.0496949997269442,-0.267075852673231,-0.00398278350594516,,
0.0499374143597585,-0.333268633183396,-0.00543953217664939,,
0.0501798289925729,-0.386959548023238,-0.00668541997199279,,
0.0504222436253872,-0.426606333305275,-0.00769465234037625,,
0.0506646582582016,-0.450293095923395,-0.00839051650440581,,
0.050907072891016,-0.457835567775647,-0.00878230890810183,,
0.0511494875238303,-0.448627963055837,-0.00888039392278195,,
0.0513919021566447,-0.422999983730647,-0.00866972472667893,,
0.0516343167894591,-0.381598230460331,-0.00812101546742072,,
0.0518767314222734,-0.326361656389859,-0.00726412703515456,,
0.0521191460550878,-0.259305326939714,-0.00613057868789513,,
0.0523615606879021,-0.182624968080238,-0.00478763101961865,,
0.0526039753207165,-0.0991186962448212,-0.00326034267048625,,
0.0528463899535309,-0.0121147258154306,-0.00160809827066988,,
0.0530888045863452,0.0753979801952464,5.9307616183446E-05,,
0.0533312192191596,0.160426179227432,0.00175742154704883,,
0.0535736338519739,0.239053802748955,0.00340984735759209,,
0.0538160484847883,0.309163677467866,0.00493622694166973,,
0.0540584631176027,0.367553393539369,0.00623283101501837,,
0.054300877750417,0.412689670588052,0.0073509474705733,,
0.0545432923832314,0.44258708170964,0.00815638713624089,,
0.0547857070160458,0.456555240464568,0.00869265435793753,,
0.0550281216488601,0.453588559391272,0.00891985931290096,,
0.0552705362816745,0.434117964123955,0.0087855195356763,,
0.0555129509144888,0.398912499885054,0.00834572516918453,,
0.0557553655473032,0.349379819353597,0.00761052226026004,,
0.0559977801801176,0.286548994447907,0.00658688656476247,,
0.0562401948129319,0.21332194714441,0.00532019130137629,,
0.0564826094457463,0.132279315074404,0.00386556137104321,,
0.0567250240785607,0.0462781026539558,0.00225188215340166,,
0.056967438711375,-0.0412745693749951,0.000618324769834366,,
0.0572098533441894,-0.127985054831255,-0.00112065620572555,,
0.0574522679770037,-0.209721999206339,-0.00276708519376312,,
0.0576946826098181,-0.283338697503928,-0.00435263034600286,,
0.0579370972426325,-0.346869528988096,-0.00576870022842702,,
0.0581795118754468,-0.397279056886852,-0.00696275247581157,,
0.0584219265082612,-0.43354323156028,-0.0078855255188075,,
0.0586643411410755,-0.453577524526049,-0.00851535446697538,,
0.0589067557738899,-0.457338928104316,-0.00883235088585943,,
0.0591491704067043,-0.444198737922658,-0.008869303908559,,
0.0593915850395186,-0.414546923288588,-0.00854211939481919,,
0.059633999672333,-0.370225599331117,-0.00793011661766085,,
0.0598764143051473,-0.311769108177755,-0.00698048451861411,,
0.0601188289379617,-0.242098010824071,-0.00582498547345045,,
0.0603612435707761,-0.163757046221231,-0.00444041773482207,,
0.0606036582035904,-0.0792522605558035,-0.00289865931312017,,
0.0608460728364048,0.00815741801130508,-0.00125146360805006,,
0.0610884874692192,0.0954537062646203,0.000453550776109424,,
0.0613309021020335,0.179319813737134,0.00214336773337109,,
0.0615733167348479,0.256317142026496,0.0037731206259477,,
0.0618157313676622,0.324000195232231,0.00522411891890728,,
0.0620581460004766,0.379411346529429,0.00647286478890363,,
0.062300560633291,0.42100543184167,0.00754822992419912,,
0.0625429752661053,0.447322736561692,0.00832178922182036,,
0.0627853898989197,0.457235157929435,0.00876028633047587,,
0.0630278045317341,0.450722323886027,0.00894536634561316,,
0.0632702191645484,0.427588719255345,0.00872071825503973,,
0.0635126337973628,0.388870206641999,0.00821393198781806,,
0.0637550484301771,0.335860411784387,0.00740950890678738,,
0.0639974630629915,0.270332552640198,0.00631083078171724,,
0.0642398776958059,0.19525783740692,0.00499241976990827,,
0.0644822923286202,0.112667530121292,0.00351368275001684,,
0.0647247069614346,0.0259948532256821,0.00187414052389778,,
0.0649671215942489,-0.0615704452355908,0.000168727378424549,,
0.0652095362270633,-0.14747687099323,-0.0015303432373095,,
0.0654519508598777,-0.227552360789163,-0.00316052056252936,,
0.065694365492692,-0.299122233060598,-0.00469561128432217,,
0.0659367801255064,-0.359985668822474,-0.0060337104942203,,
0.0661791947583208,-0.407267024639581,-0.00718581236681715,,
0.0664216093911351,-0.439800636768312,-0.00803052916618974,,
0.0666640240239495,-0.45611377511935,-0.00861238353431348,,
0.0669064386567638,-0.455320750285952,-0.00887278151795723,,
0.0671488532895782,-0.438703657987085,-0.00881948099281082,,
0.0673912679223926,-0.405446837768382,-0.00843415091839006,,
0.0676336825552069,-0.357672944986245,-0.0077481445447809,,
0.0678760971880213,-0.296392943062218,-0.00676051716706816,,
0.0681185118208357,-0.224765349957311,-0.00552226915930021,,
0.06836092645365,-0.144539333281932,-0.00412055981844128,,
0.0686033410864644,-0.0590627013774483,-0.00252135409621301,,
0.0688457557192787,0.0285263998540002,-0.000870692761698155,,
0.0690881703520931,0.115426246426932,0.000875753436398341,,
0.0693305849849075,0.198018569697553,0.00252862935091391,,
0.0695729996177218,0.272905090963365,0.00412263748468611,,
0.0698154142505362,0.337807358133014,0.00554518167633899,,
0.0700578288833505,0.390247584177984,0.00678340230135577,,
0.0703002435161649,0.428425388395424,0.00776670320438422,,
0.0705426581489793,0.451016869903891,0.00846314240618806,,
0.0707850727817936,0.457065390772165,0.00883401438799281,,
0.071027487414608,0.446557369627665,0.00891472504705737,,
0.0712699020474224,0.419699922402262,0.0086491979318355,,
0.0715123166802367,0.377646051039081,0.00803987353002533,,
0.0717547313130511,0.321729842449004,0.00716514523537404,,
0.0719971459458654,0.253893715856465,0.00600721083677858,,
0.0722395605786798,0.176638907378576,0.00465965088635212,,
0.0724819752114942,0.0927352035543584,0.00313633132471747,,
0.0727243898443085,0.00570880971294496,0.0014991097867596,,
0.0729668044771229,-0.0818533763504447,-0.000226801059383774,,
0.0732092191099372,-0.166756831890195,-0.00192854320477842,,
0.0734516337427516,-0.245089025189909,-0.00353744413234214,,
0.073694048375566,-0.314150587712678,-0.00502479302747538,,
0.0739364630083803,-0.372211521389601,-0.00634996757882256,,
0.0741788776411947,-0.415929393839291,-0.00741563579736093,,
0.0744212922740091,-0.445144906879177,-0.00821781349279593,,
0.0746637069068234,-0.457107266670958,-0.00870543012277869,,
0.0749061215396378,-0.4532261065105,-0.00890932379938958,,
0.0751485361724521,-0.432189975107891,-0.00877701034575118,,
0.0753909508052665,-0.395997880739987,-0.00830602702568006,,
0.0756333654380809,-0.34464473039207,-0.00754618306354926,,
0.0758757800708952,-0.280880469066656,-0.00648897782654334,,
0.0761181947037096,-0.206639947202414,-0.00522749384298837,,
0.0763606093365239,-0.12506534267147,-0.0037340796684715,,
0.0766030239693383,-0.0387772237552354,-0.00212146837812499,,
0.0768454386021527,0.0487892418552438,-0.000435293326768615,,
0.077087853234967,0.135097449885089,0.00124421402467823,,
0.0773302678677814,0.216168341113149,0.00290156530758789,,
0.0775726825005958,0.288813157803524,0.00445296588054456,,
0.0778150971334101,0.35104551811168,0.00586691188833077,,
0.0780575117662245,0.400462756976192,0.00704472958711744,,
0.0782999263990388,0.435249745172423,0.00792572853178619,,
0.0785423410318532,0.454181612660669,0.00856465368760784,,
0.0787847556646676,0.456301438564449,0.00887645765230172,,
0.0790271702974819,0.441761447434783,0.00885824812277569,,
0.0792695849302963,0.411244669134421,0.0085367335499491,,
0.0795119995631107,0.365705760977746,0.00788969283125063,,
0.079754414195925,0.306813817065985,0.00693191607515375,,
0.0799968288287394,0.236637450210476,0.00574440145960997,,
