Time domain (s),Current (AC) (A),Potential (AC) (V),Frequency (Hz),Column 5
0,-0.0119175391493571,-0.000953615158030718,6309.6,0.4
4.95277038164067E-06,-0.0580515559217526,-0.00164825257115764,,
9.90554076328135E-06,-0.102664825993653,-0.00226685059553455,,
1.4858311144922E-05,-0.143442035426982,-0.00276841626839319,,
1.98110815265627E-05,-0.178853624663687,-0.00317625463951243,,
2.47638519082034E-05,-0.206995370194657,-0.00345082687374143,,
2.9716622289844E-05,-0.227118120374939,-0.00359607385196492,,
3.46693926714847E-05,-0.238629239909836,-0.00359547573091801,,
3.96221630531254E-05,-0.24047118589219,-0.00344551854945019,,
4.45749334347661E-05,-0.23331367674415,-0.00318052925460321,,
4.95277038164067E-05,-0.216891974224624,-0.00280154047202519,,
5.44804741980474E-05,-0.191897358880593,-0.002282484092754,,
5.94332445796881E-05,-0.160027892106652,-0.00171179101331642,,
6.43860149613288E-05,-0.121607182032393,-0.00105446140049237,,
6.93387853429694E-05,-0.0786307533712411,-0.000358620160403333,,
7.42915557246101E-05,-0.0329891403268959,0.00033293887972663,,
7.92443261062508E-05,0.0127532036793563,0.000973916599942726,,
8.41970964878915E-05,0.0585260695489568,0.00162622177926197,,
8.91498668695321E-05,0.102906033905061,0.00224238397734622,,
9.41026372511728E-05,0.143595761039015,0.00274980950278092,,
9.90554076328135E-05,0.178628456153037,0.00316153132649433,,
0.000104008178014454,0.20674960897351,0.00341799739642257,,
0.000108960948396095,0.226754501872027,0.00358466729352047,,
0.000113913718777736,0.237999238099088,0.00357583633965719,,
0.000118866489159376,0.239954869943961,0.00345960798418421,,
0.000123819259541017,0.232755000327251,0.00319559822090731,,
0.000128772029922658,0.216564194675789,0.00278547788796768,,
0.000133724800304298,0.192004170714216,0.00228920211900574,,
0.000138677570685939,0.160033091692613,0.00172051036125964,,
0.00014363034106758,0.1218198656615,0.00107444211082841,,
0.00014858311144922,0.079091783326379,0.000342611753976652,,
0.000153535881830861,0.0337015717320191,-0.000320251562084373,,
0.000158488652212502,-0.0119150715492404,-0.000981338935398757,,
0.000163441422594142,-0.0580292300159348,-0.00164511785342425,,
0.000168394192975783,-0.102730863672966,-0.00225430522328551,,
0.000173346963357424,-0.14363127685498,-0.00276589050723297,,
0.000178299733739064,-0.178839112824905,-0.00318224993616578,,
0.000183252504120705,-0.207030269110593,-0.00346140559798291,,
0.000188205274502346,-0.227207188988675,-0.00360324805387036,,
0.000193158044883986,-0.238535412353018,-0.00358598380995545,,
0.000198110815265627,-0.240467308234863,-0.00343748400676347,,
0.000203063585647268,-0.233195525700466,-0.00317849976054374,,
0.000208016356028908,-0.216955544303821,-0.00279677609114959,,
0.000212969126410549,-0.19215539934994,-0.00228784551112415,,
0.00021792189679219,-0.160010031381998,-0.00170895535610649,,
0.00022287466717383,-0.121590966374483,-0.00105822999650895,,
0.000227827437555471,-0.0786818679450872,-0.000384614587787713,,
0.000232780207937112,-0.033006589784864,0.000320050021296758,,
0.000237732978318752,0.0127156315299602,0.00100835623645734,,
0.000242685748700393,0.0585540356836128,0.00165947167499825,,
0.000247638519082034,0.103000830876211,0.00223681234976736,,
0.000252591289463674,0.143691762434031,0.00275507340141479,,
0.000257544059845315,0.178607599056813,0.00316472780672727,,
0.000262496830226956,0.206814442228957,0.00344668336851806,,
0.000267449600608596,0.226690403021377,0.00358300945801027,,
0.000272402370990237,0.238121501809632,0.00362913195888703,,
0.000277355141371878,0.239805315751173,0.00344753504087825,,
0.000282307911753518,0.232929377402165,0.00319165625647111,,
0.000287260682135159,0.216629262940771,0.00277120316573498,,
0.0002922134525168,0.192077581817688,0.00231015152538561,,
0.00029716622289844,0.16000265795784,0.00170609911139685,,
0.000302118993280081,0.121965512820769,0.00106798197010027,,
0.000307071763661722,0.0791664576061012,0.000371260885283053,,
0.000312024534043362,0.0336981347175708,-0.000319590594985097,,
0.000316977304425003,-0.0119369274359884,-0.00100056007534732,,
0.000321930074806644,-0.0581074881910646,-0.00165931130921049,,
0.000326882845188285,-0.102670524974875,-0.00225270264895849,,
0.000331835615569925,-0.143506839306238,-0.00276595335328489,,
0.000336788385951566,-0.178778010345825,-0.0031579035923186,,
0.000341741156333206,-0.206919050848191,-0.00343258418181014,,
0.000346693926714847,-0.227271052829791,-0.00358698934678792,,
0.000351646697096488,-0.238614786823438,-0.00359266932962887,,
0.000356599467478129,-0.240565953487148,-0.00345804550130469,,
0.000361552237859769,-0.233325192211361,-0.00321080913260463,,
0.00036650500824141,-0.216929810759747,-0.00281756188108329,,
0.000371457778623051,-0.192144823920869,-0.00228326316708882,,
0.000376410549004691,-0.160007505029498,-0.00170101291539249,,
0.000381363319386332,-0.121706356056131,-0.00106706203392504,,
0.000386316089767973,-0.0787432641860862,-0.000361926079450736,,
0.000391268860149613,-0.0329751572595679,0.000353209982165037,,
0.000396221630531254,0.0127640141179628,0.000985586461673904,,
0.000401174400912895,0.0585805623848674,0.00163433542128999,,
0.000406127171294535,0.102964492526873,0.00224919518912348,,
0.000411079941676176,0.143696198239003,0.0027614490250385,,
0.000416032712057817,0.178549874839797,0.00315287374105067,,
0.000420985482439457,0.206682337494138,0.00346559569596927,,
0.000425938252821098,0.226920712365602,0.00360118930388964,,
0.000430891023202739,0.238032110057785,0.00357572798439509,,
0.000435843793584379,0.239965445373032,0.00344146714619908,,
0.00044079656396602,0.232615287158738,0.00318568804863295,,
0.000445749334347661,0.216486347767345,0.0028066461719769,,
0.000450702104729301,0.191926088796238,0.00228852164795956,,
0.000455654875110942,0.15997809946144,0.00169661585885539,,
0.000460607645492583,0.121779120883382,0.00106359791619459,,
0.000465560415874223,0.0791929549311639,0.000365871294544906,,
0.000470513186255864,0.0337140859897538,-0.000330305846857115,,
0.000475465956637505,-0.0119308171880804,-0.000947635031113947,,
0.000480418727019145,-0.057963427346156,-0.00162285409771501,,
0.000485371497400786,-0.102694084680751,-0.00224908900096654,,
0.000490324267782427,-0.143701544705923,-0.00277546369464199,,
0.000495277038164067,-0.178801570051701,-0.00316071974558119,,
0.000500229808545708,-0.207063170445483,-0.00344133278567416,,
0.000505182578927349,-0.22733244907079,-0.00357910975212627,,
0.000510135349308989,-0.238237596519885,-0.0035945796329,,
0.00051508811969063,-0.240475886082888,-0.0034500564678277,,
0.000520040890072271,-0.233268437408677,-0.00315545693049968,,
0.000524993660453911,-0.216897144434393,-0.00279831581942469,,
0.000529946430835552,-0.19215539934994,-0.00231266536746677,,
0.000534899201217193,-0.159837358126213,-0.00170541430613991,,
0.000539851971598833,-0.121516292094761,-0.00107164437796037,,
0.000544804741980474,-0.0786784603068308,-0.000338249371123478,,
0.000549757512362115,-0.0329743934785794,0.000326615266628583,,
0.000554710282743756,0.0127618109035729,0.000972577328902879,,
0.000559663053125396,0.0585483954547746,0.00164636502249138,,
0.000564615823507037,0.102920016972389,0.00224781040887345,,
0.000569568593888678,0.143509306906354,0.00275711914876364,,
0.000574521364270318,0.178629924962631,0.00316435723173081,,
0.000579474134651959,0.206859387802512,0.0034342030094261,,
0.0005844269050336,0.227044738647659,0.00358906001584725,,
0.00058937967541524,0.238009784151968,0.00358122593039534,,
0.000594332445796881,0.240136826076376,0.00344882880270792,,
0.000599285216178522,0.232883198028552,0.00318481903943058,,
0.000604237986560162,0.216551651041862,0.00279760717601008,,
0.000609190756941803,0.191980846017875,0.00231649464243056,,
0.000614143527323444,0.159949134536261,0.00172193198229875,,
0.000619096297705084,0.121843954138829,0.00104869906765215,,
0.000624049068086725,0.079075832054196,0.000410961169773572,,
0.000629001838468366,0.0337325048620535,-0.00030854052535334,,
0.000633954608850006,-0.0119104301109257,-0.000978068773587637,,
0.000638907379231647,-0.0580353402638429,-0.00164057993504674,,
0.000643860149613288,-0.102764000017391,-0.00225585470353362,,
0.000648812919994928,-0.14363474324562,-0.00275808134349154,,
0.000653765690376569,-0.178914550885616,-0.00316312848305822,,
0.00065871846075821,-0.207047189797108,-0.00346069045325326,,
0.00066367123113985,-0.22731529337474,-0.00358278624617014,,
0.000668624001521491,-0.238632412538558,-0.0035728403166595,,
0.000673576771903132,-0.240606022612852,-0.00347210242946039,,
0.000678529542284772,-0.233204808577096,-0.00318312002892052,,
0.000683482312666413,-0.216873349718981,-0.00279220133198255,,
0.000688435083048054,-0.192046648687654,-0.00230858904250564,,
0.000693387853429694,-0.159982711523563,-0.0017175251737882,,
0.000698340623811335,-0.121589732574425,-0.00106809357602033,,
0.000703293394192976,-0.0787031950603816,-0.000391824546929431,,
0.000708246164574616,-0.0329812675074759,0.000330972231719073,,
0.000713198934956257,0.0126965076290558,0.000978231306481003,,
0.000718151705337898,0.058496076457062,0.00164170791332507,,
0.000723104475719538,0.102929358601402,0.00224880511017966,,
0.000728057246101179,0.143579809766832,0.00274771824622189,,
0.00073301001648282,0.178621347114606,0.00316347088568669,,
0.00073796278686446,0.206755014192813,0.00344224730408627,,
0.000742915557246101,0.226860549924662,0.00358330851853372,,
0.000747868327627742,0.237975384631293,0.00358290110274773,,
0.000752821098009382,0.239983599859605,0.00345255405661993,,
0.000757773868391023,0.232683792438169,0.00318959100517491,,
0.000762726638772664,0.216640807784174,0.00277249692756465,,
0.000767679409154304,0.191910607543125,0.00230061626231848,,
0.000772632179535945,0.159848227317203,0.00171213233239209,,
0.000777584949917586,0.121919568456691,0.00107244837400522,,
0.000782537720299226,0.0791291204662401,0.000369549955693937,,
0.000787490490680867,0.033701806741554,-0.000305704868143852,,
0.000792443261062508,-0.0119248831973235,-0.000970688696684263,,
0.000797396031444149,-0.058038806654483,-0.0016612584532707,,
0.000802348801825789,-0.102823457429727,-0.00223915282342979,,
0.00080730157220743,-0.143542678260314,-0.00275975759939673,,
0.00081225434258907,-0.178796341089549,-0.00315605505154659,,
0.000817207112970711,-0.207166280878931,-0.00342069219179164,,
0.000822159883352352,-0.22722222959891,-0.00361267712878055,,
0.000827112653733993,-0.238500807199,-0.00361686072545098,,
0.000832065424115633,-0.240535049733305,-0.00347346120444714,,
0.000837018194497274,-0.233182247661743,-0.00316244909556485,,
0.000841970964878915,-0.216813422287576,-0.00276811720786974,,
0.000846923735260555,-0.192093004318418,-0.0022926283123943,,
0.000851876505642196,-0.159892644119304,-0.001697769842397,,
0.000856829276023837,-0.121509653075399,-0.00106430764316157,,
0.000861782046405477,-0.0787184706801517,-0.000359987603811174,,
0.000866734816787118,-0.0330264480905652,0.00032620785084303,,
0.000871687587168759,0.0127539674603448,0.000962877365837223,,
0.000876640357550399,0.0585130265197685,0.00163356609892906,,
0.00088159312793204,0.102898895490437,0.00226482651923776,,
0.000886545898313681,0.143443474860384,0.00275321619222213,,
0.000891498668695321,0.178622815924199,0.00315307094762751,,
0.000896451439076962,0.206569121650688,0.00342629740950118,,
0.000901404209458603,0.226642020433374,0.00360551701305889,,
0.000906356979840243,0.237981553631585,0.00359368895264511,,
0.000911309750221884,0.240061681777584,0.00344762605929816,,
0.000916262520603525,0.232851530493721,0.00318923776702018,,
0.000921215290985165,0.216463023071004,0.00279225442606101,,
0.000926168061366806,0.192029199229686,0.00230948405697085,,
0.000931120831748447,0.159936855288061,0.00173175113615276,,
0.000936073602130087,0.121850328772464,0.00102895240468248,,
0.000941026372511728,0.0791394315095849,0.000373235118158899,,
0.000945979142893369,0.0337384094766185,-0.00031754268053108,,
0.000950931913275009,-0.0119604871418646,-0.000971240224968639,,
0.00095588468365665,-0.0579896309093001,-0.00163650361008516,,
0.000960837454038291,-0.102810473152922,-0.00225593705353289,,
0.000965790224419931,-0.14354608589857,-0.00276876083812683,,
0.000970742994801572,-0.178817256938157,-0.00316174261925584,,
0.000975695765183213,-0.207109114809561,-0.003429460299603,,
0.000980648535564854,-0.227139682499768,-0.00357335717125995,,
0.000985601305946494,-0.238703914189558,-0.00360104735849642,,
0.000990554076328135,-0.240456967815327,-0.00344004769226514,,
0.000995506846709775,-0.233287825695308,-0.00317852684935893,,
0.00100045961709142,-0.216941796246028,-0.00279482027866829,,
0.00100541238747306,-0.192012983571776,-0.00230972135499474,,
0.0010103651578547,-0.159888413947675,-0.001713393587643,,
0.00101531792823634,-0.121655300234669,-0.00106709779116176,,
0.00102027069861798,-0.0787125366893948,-0.00036361100377702,,
0.00102522346899962,-0.0330178702425404,0.000312658025314327,,
0.00103017623938126,0.0127684499229345,0.000972520984166891,,
0.0010351290097629,0.0585371149970982,0.00163816686335894,,
0.00104008178014454,0.102923483363029,0.00225209477593813,,
0.00104503455052618,0.143541708845982,0.00275238185670368,,
0.00104998732090782,0.178645905611005,0.0031542693568265,,
0.00105494009128946,0.206739797325427,0.00343800844623177,,
0.0010598928616711,0.226803824498169,0.00360874166565983,,
0.00106484563205274,0.238058401749505,0.0035966947276167,,
0.00106979840243439,0.240151572924693,0.00344655767641378,,
0.00107475117281603,0.232758202332164,0.00318627750125877,,
0.00107970394319767,0.216693361791421,0.00276960817627669,,
0.00108465671357931,0.191944243282811,0.00228938198874085,,
0.00108960948396095,0.159964351403647,0.00168841986682811,,
0.00109456225434259,0.121744486353173,0.00108834192385388,,
0.00109951502472423,0.0791595542010128,0.000374186477360539,,
0.00110446779510587,0.0337199612281269,-0.00031167415953437,,
0.00110942056548751,-0.0119246481877886,-0.000982281626179304,,
0.00111437333586915,-0.0580517909312876,-0.0016324012798612,,
0.00111932610625079,-0.102805009181235,-0.00224322047996983,,
0.00112427887663243,-0.143655130322775,-0.00276698489538063,,
0.00112923164701407,-0.17896043649731,-0.00318041981578832,,
0.00113418441739571,-0.207050656187748,-0.00346402346111585,,
0.00113913718777736,-0.227210655379315,-0.00359443552040162,,
0.001144089958159,-0.238410681042357,-0.00357669017912299,,
0.00114904272854064,-0.240577527706743,-0.00344102614028241,,
0.00115399549892228,-0.233256921941465,-0.00318181543156459,,
0.00115894826930392,-0.216872292176074,-0.0027956264418183,,
0.00116390103968556,-0.192009752190671,-0.00231014719117484,,
0.0011688538100672,-0.159946402550417,-0.00170197294301477,,
0.00117380658044884,-0.121677626140487,-0.00104494239071462,,
0.00117875935083048,-0.078716003080035,-0.000390465771942239,,
0.00118371212121212,-0.0330220416617853,0.000319940582481859,,
0.00118866489159376,0.0127701831182546,0.000996916087881772,,
0.0011936176619754,0.0585930766426021,0.00164552201855184,,
0.00119857043235704,0.102965461941205,0.00223257565901847,,
0.00120352320273868,0.143694494419875,0.00274946493304729,,
0.00120847597312032,0.17857763534111,0.00315680486996062,,
0.00121342874350197,0.206890320932546,0.00345770526578137,,
0.00121838151388361,0.226902792888564,0.00360457648938395,,
0.00122333428426525,0.238011722980631,0.00358196924749343,,
0.00122828705464689,0.239962977772916,0.00347287066826851,,
0.00123323982502853,0.232789869866995,0.00315575382391797,,
0.00123819259541017,0.216404564449191,0.00280725296144446,,
0.00124314536579181,0.191913045767049,0.00227568805071332,,
0.00124809813617345,0.159988410504785,0.00170446077983311,,
0.00125305090655509,0.121947093948469,0.00103774868486184,,
0.00125800367693673,0.0791406653096433,0.00034729486840579,,
0.00126295644731837,0.0337143209992887,-0.000362822177468747,,
0.00126790921770001,-0.0119534368558168,-0.000972517733508926,,
0.00127286198808165,-0.0580417442736695,-0.00164837067839363,,
0.00127781475846329,-0.102684743051737,-0.00226621671725091,,
0.00128276752884493,-0.143549787298745,-0.0027554645639114,,
0.00128772029922658,-0.178786764451001,-0.0031614175534691,,
0.00129267306960822,-0.207084967579847,-0.00344652300272985,,
0.00129762583998986,-0.227234743856645,-0.00360220675980116,,
0.0013025786103715,-0.23851355646627,-0.00358239616722633,,
0.00130753138075314,-0.240675291673271,-0.00345483926909829,,
0.00131248415113478,-0.233112978601324,-0.00318775763413948,,
0.00131743692151642,-0.216779757171698,-0.00279938420230907,,
0.00132238969189806,-0.19207020839353,-0.00228676845981868,,
0.0013273424622797,-0.15988330249029,-0.00171029571069869,,
0.00133229523266134,-0.121640847148271,-0.00105539542285182,,
0.00133724800304298,-0.0786175340849017,-0.000359134847898179,,
0.00134220077342462,-0.0330055909943406,0.000340664609915997,,
0.00134715354380626,0.0127745895470344,0.000998474236551417,,
0.0013521063141879,0.0585444590450646,0.00164555885934137,,
0.00135705908456954,0.103005736700252,0.00224117039841021,,
0.00136201185495119,0.143413540520873,0.00278344947746056,,
0.00136696462533283,0.178637063377254,0.00316289226858668,,
0.00137191739571447,0.206726548662896,0.0034508507118991,,
0.00137687016609611,0.226864515710564,0.0035693155199823,,
0.00138182293647775,0.238000442522954,0.00360196729467166,,
0.00138677570685939,0.240060712363252,0.00345508740264844,,
0.00139172847724103,0.232817865377843,0.0031973015656277,,
0.00139668124762267,0.216513608873396,0.00281063147851768,,
0.00140163401800431,0.192037571444367,0.00229349732159667,,
0.00140658678838595,0.160071662632532,0.00169496885887099,,
0.00141153955876759,0.12179704036042,0.00104757650713649,,
0.00141649232914923,0.0790473371480864,0.000391704272588278,,
0.00142144509953087,0.0337364118955716,-0.000315161031869238,,
0.00142639786991251,-0.0119192429684853,-0.000969808851955634,,
0.00143135064029415,-0.0580906262569338,-0.00164940222048893,,
0.0014363034106758,-0.102752719559714,-0.00226679641790328,,
0.00144125618105744,-0.14355442873706,-0.00276701198419627,,
0.00144620895143908,-0.178908851904394,-0.00318352744470607,,
0.00145116172182072,-0.207174153698351,-0.00343709501137246,,
0.00145611449220236,-0.227396312911906,-0.00358739676257347,,
0.001461067262584,-0.238631942519488,-0.00357638353373124,,
0.00146602003296564,-0.240626174680472,-0.00345002071059142,,
0.00147097280334728,-0.233113448620394,-0.00319016637161695,,
0.00147592557372892,-0.21666389747098,-0.00278021832354414,,
0.00148087834411056,-0.192097234490046,-0.00228071790198126,,
0.0014858311144922,-0.159974603694608,-0.00172093077967661,,
0.00149078388487384,-0.121584797374191,-0.00104413622756416,,
0.00149573665525548,-0.0786649472585726,-0.00037174414975194,,
0.00150068942563712,-0.0329696932878809,0.000329142111341607,,
0.00150564219601877,0.0127974442243058,0.000958781536929187,,
0.00151059496640041,0.0585407576448895,0.00163126680026648,,
0.00151554773678205,0.102952448288208,0.00224101653393793,,
0.00152050050716369,0.143580279785902,0.00277878586697877,,
0.00152545327754533,0.178794196627543,0.0031714328303476,,
0.00153040604792697,0.206723111648447,0.00343518037389057,,
0.00153535881830861,0.226741253209496,0.00359014790267898,,
0.00154031158869025,0.238138921891408,0.00360880451171175,,
0.00154526435907189,0.24011546958489,0.0034469087474629,,
0.00155021712945353,0.232856436317763,0.00318074271446944,,
0.00155516989983517,0.216608141458819,0.00280822165748784,,
0.00156012267021681,0.191886049046725,0.002296013330783,,
0.00156507544059845,0.159841558921649,0.00170980486136152,,
0.00157002821098009,0.121804149398851,0.00104446020979809,,
0.00157498098136173,0.0791212476468202,0.000365301345865987,,
0.00157993375174338,0.0337283334428086,-0.000334064690900249,,
0.00158488652212502,-0.0119054949106923,-0.00097575105453096,,
0.00158983929250666,-0.0579808180517404,-0.00164365939159605,,
0.0015947920628883,-0.102626813201379,-0.00226269300412651,,
