Time domain (s),Current (AC) (A),Potential (AC) (V),Frequency (Hz),Column 5
0,0.257437113481364,0.00403127603891429,398.11,0.3
7.84958930948733E-05,0.27526601855463,0.00446653480739423,,
0.000156991786189747,0.282432004284326,0.00468485256923534,,
0.00023548767928462,0.278974126222245,0.00478138612721324,,
0.000313983572379493,0.264705808460428,0.00464055753356618,,
0.000392479465474366,0.240099623175592,0.00435233361483389,,
0.00047097535856924,0.206705710341919,0.00389654512445903,,
0.000549471251664113,0.164988762507255,0.00328607796996394,,
0.000627967144758986,0.117116157240666,0.00253960737964398,,
0.000706463037853859,0.0647591980849167,0.00170347832120443,,
0.000784958930948733,0.0102087101280501,0.000806431102374994,,
0.000863454824043606,-0.0452132419424286,-0.000120596372481963,,
0.000941950717138479,-0.0994263675861029,-0.00106569321648298,,
0.00102044661023335,-0.149325156608195,-0.0019326754892961,,
0.00109894250332823,-0.193413347424394,-0.00274946265722198,,
0.0011774383964231,-0.230065955005994,-0.00347555987639536,,
0.00125593428951797,-0.257778906658327,-0.0040352238953143,,
0.00133443018261285,-0.275634054321659,-0.00445531229811236,,
0.00141292607570772,-0.282826442517948,-0.00470481334812911,,
0.00149142196880259,-0.279242376196413,-0.00475641995282938,,
0.00156991786189747,-0.264941192388379,-0.00465746295824943,,
0.00164841375499234,-0.240224235509271,-0.00433863555203384,,
0.00172690964808721,-0.206587127637289,-0.00389357228869924,,
0.00180540554118209,-0.164710577348858,-0.00325711833687858,,
0.00188390143427696,-0.116909505408714,-0.00253321871433698,,
0.00196239732737183,-0.064292221586675,-0.0016949615484867,,
0.00204089322046671,-0.00967501943870183,-0.000801173808456124,,
0.00211938911356158,0.0453938339003469,0.000142615769564092,,
0.00219788500665645,0.0995179996760445,0.00106617095488115,,
0.00227638089975132,0.149399179440573,0.00195071662844404,,
0.0023548767928462,0.193352365948785,0.00279094555095583,,
0.00243337268594107,0.229810335277523,0.00347832424449068,,
0.00251186857903594,0.257581847418044,0.00405429434355664,,
0.00259036447213082,0.27516680374937,0.00446670853044795,,
0.00266886036522569,0.282509612918827,0.0047267980006005,,
0.00274735625832056,0.2786956669898,0.00477109737934578,,
0.00282585215141544,0.26460309921106,0.00461619287525616,,
0.00290434804451031,0.240023133676785,0.00438646585184976,,
0.00298284393760518,0.206717632562993,0.00390364171121105,,
0.00306133983070006,0.165027292750458,0.00329345685667848,,
0.00313983572379493,0.117095807242626,0.00254205253162798,,
0.0032183316168898,0.0647731301823406,0.00169856195877882,,
0.00329682750998468,0.0102043249432872,0.00079776449352309,,
0.00337532340307955,-0.045185332068573,-0.00012727602390461,,
0.00345381929617442,-0.0994856132594101,-0.00107024476049533,,
0.0035323151892693,-0.149254171429845,-0.00195452767793913,,
0.00361081108236417,-0.193273204228012,-0.00275783393688211,,
0.00368930697545904,-0.230062985870478,-0.00347447845038484,,
0.00376780286855392,-0.257710342467399,-0.00406534312978479,,
0.00384629876164879,-0.275657350615712,-0.00444772494373291,,
0.00392479465474366,-0.28284663263946,-0.00469966897419516,,
0.00400329054783854,-0.279134299663611,-0.00476498449938667,,
0.00408178644093341,-0.264839236842641,-0.00467104810106456,,
0.00416028233402828,-0.240383837963038,-0.00436127166595757,,
0.00423877822712316,-0.206436523948088,-0.00389352017178313,,
0.00431727412021803,-0.16482445511567,-0.00328421913328736,,
0.0043957700133129,-0.116759084435545,-0.00254103190868626,,
0.00447426590640778,-0.0643399104709716,-0.00171482460816241,,
0.00455276179950265,-0.00969662560946074,-0.000810452791073057,,
0.00463125769259752,0.0454435555004971,0.000113577961104117,,
0.0047097535856924,0.0995418441181928,0.0010440603531956,,
0.00478824947878727,0.149459155978007,0.00194743760580174,,
0.00486674537188214,0.193433286311363,0.00277306944870936,,
0.00494524126497702,0.229858206877852,0.00345537108599325,,
0.00502373715807189,0.25749985359878,0.00403399480470767,,
0.00510223305116676,0.275161276589408,0.00445174663243053,,
0.00518072894426164,0.282429628975912,0.00470625524947632,,
0.00525922483735651,0.278841679938702,0.00478304083930192,,
0.00533772073045138,0.264449914657909,0.00463593650033234,,
0.00541621662354626,0.239959297263179,0.00436203170431826,,
0.00549471251664113,0.206479736289606,0.00388027596046081,,
0.005573208409736,0.165011876085276,0.00326682511251519,,
0.00565170430283088,0.117020962188105,0.00253355747429174,,
0.00573020019592575,0.0647129709288744,0.00170009506472946,,
0.00580869608902062,0.0102116564240627,0.000820470096668302,,
0.00588719198211549,-0.0452145209546511,-0.000108509591006722,,
0.00596568787521037,-0.0994659712859929,-0.00105740879835015,,
0.00604418376830524,-0.149354710926336,-0.00196176541467263,,
0.00612267966140012,-0.193631967156428,-0.00276805319552809,,
0.00620117555449499,-0.230010729085387,-0.0034751581418333,,
0.00627967144758986,-0.257669779508342,-0.00404518256937925,,
0.00635816734068474,-0.275512639518536,-0.00445792683007351,,
0.00643666323377961,-0.282817991901477,-0.00473816165986429,,
0.00651515912687448,-0.279138730527382,-0.00476262838046848,,
0.00659365501996935,-0.264828776349822,-0.00465639890454428,,
0.00667215091306423,-0.2402680873569,-0.00434465071277534,,
0.0067506468061591,-0.206359828893745,-0.00391882510612218,,
0.00682914269925397,-0.164855105730002,-0.00327750473725397,,
0.00690763859234885,-0.116606288153962,-0.00253028713780212,,
0.00698613448544372,-0.0643338351629146,-0.00170212979599826,,
0.00706463037853859,-0.00972617992760243,-0.000825677445209561,,
0.00714312627163347,0.0453969629123912,0.000127808050756961,,
0.00722162216472834,0.0994902953577246,0.00105548264398969,,
0.00730011805782321,0.149484850419977,0.001948953339447,,
0.00737861395091809,0.193463914086191,0.00275841590911252,,
0.00745710984401296,0.229926451315724,0.00346289329422733,,
0.00753560573710783,0.257194443751646,0.00405197514078681,,
0.00761410163020271,0.275133595110592,0.00446464991225914,,
0.00769259752329758,0.282483712921321,0.00469884161815104,,
0.00777109341639245,0.278468573801792,0.00477172278234006,,
0.00784958930948733,0.264337475779848,0.00463650978641006,,
0.0079280852025822,0.24005650219209,0.00435599917127139,,
0.00800658109567707,0.206564288133315,0.00390083608389036,,
0.00808507698877195,0.165006189048787,0.00329026469556304,,
0.00816357288186682,0.117072328232541,0.00250729054854171,,
0.00824206877496169,0.0646999524116095,0.00171195600623486,,
0.00832056466805657,0.0102037539556879,0.000797084802074632,,
0.00839906056115144,-0.0452038777457994,-0.000130274918122453,,
0.00847755645424631,-0.0993856219110142,-0.00108276802114382,,
0.00855605234734119,-0.149258556614608,-0.00195771983905457,,
0.00863454824043606,-0.193394619031135,-0.00276641585574477,,
0.00871304413353093,-0.230180792031973,-0.00347458268421708,,
0.00879154002662581,-0.257731217774031,-0.00404077000381031,,
0.00887003591972068,-0.275438182735582,-0.00445424824440721,,
0.00894853181281555,-0.282759111660234,-0.00469227271517525,,
0.00902702770591043,-0.279210081137795,-0.00478674982650285,,
0.0091055235990053,-0.264856275112606,-0.00464884846631408,,
0.00918401949210017,-0.240304767600282,-0.00434814037462061,,
0.00926251538519504,-0.206591695538084,-0.00387822602842514,,
0.00934101127828992,-0.16471386623743,-0.00326508788197621,,
0.00941950717138479,-0.116780919001344,-0.00252010262376734,,
0.00949800306447967,-0.0643285363979928,-0.00169980842169082,,
0.00957649895757454,-0.00968433795632301,-0.000799377946386404,,
0.00965499485066941,0.045428138835315,0.000119454143402642,,
0.00973349074376429,0.0994505089418029,0.00105879641124318,,
0.00981198663685916,0.149517670787187,0.00194047999749269,,
0.00989048252995403,0.193430157299318,0.00276080894417996,,
0.0099689784230489,0.229839318608066,0.00346930801799283,,
0.0100474743161438,0.257460980763017,0.00403015986829303,,
0.0101259702092387,0.275213396337475,0.00444387697808901,,
0.0102044661023335,0.282339549972241,0.00468190796347168,,
0.0102829619954284,0.27865071884598,0.00477174015464543,,
0.0103614578885233,0.26444790478156,0.00465838151889653,,
0.0104399537816181,0.2402404972361,0.00434722615704919,,
0.010518449674713,0.206609418993167,0.00388067552348481,,
0.0105969455678079,0.165027110034426,0.00327039946434926,,
0.0106754414609028,0.11709249551455,0.00256391992103788,,
0.0107539373539976,0.0647241622858214,0.00168281396394221,,
0.0108324332470925,0.0101951434626899,0.000795688503028913,,
0.0109109291401874,-0.045164639477973,-0.000132770015484507,,
0.0109894250332823,-0.0994144453650287,-0.00104809724266097,,
0.0110679209263771,-0.149372114628364,-0.00195857325355719,,
0.011146416819472,-0.193303991879369,-0.00276205540709196,,
0.0112249127125669,-0.230096925373383,-0.00347498441877958,,
0.0113034086056618,-0.257610351119003,-0.00404868743199183,,
0.0113819044987566,-0.275702481475564,-0.0044412363876698,,
0.0114604003918515,-0.282849921528032,-0.00470013802644065,,
0.0115388962849464,-0.27909560954388,-0.00478212662173094,,
0.0116173921780412,-0.264700920806578,-0.00464921328472689,,
0.0116958880711361,-0.240361637965176,-0.00436559736999964,,
0.011774383964231,-0.206425515307173,-0.00387046277945347,,
0.0118528798573259,-0.164805224253324,-0.00326906396837234,,
0.0119313757504207,-0.116740584437326,-0.00254976800675921,,
0.0120098716435156,-0.064266367268177,-0.00171343048065475,,
0.0120883675366105,-0.0096672996863588,-0.000806947928460477,,
0.0121668634297054,0.0453474468677767,0.000116333643046751,,
0.0122453593228002,0.099521859552216,0.00104440779930348,,
0.0123238552158951,0.149426335610797,0.00194129649584607,,
0.01240235110899,0.193599831974337,0.00274860055656712,,
0.0124808470020848,0.229945705017574,0.00349034153674443,,
0.0125593428951797,0.257533427669621,0.00403938456245534,,
0.0126378387882746,0.275079100054111,0.00446061953740884,,
0.0127163346813695,0.282266006769446,0.00468869184872656,,
0.0127948305744643,0.278750687354872,0.00476542966471216,,
0.0128733264675592,0.264553012178846,0.00466089181702545,,
0.0129518223606541,0.240311299698418,0.00434748674163021,,
0.013030318253749,0.206725900463432,0.00387935088519864,,
0.0131088141468438,0.165012058801308,0.00328520501161833,,
0.0131873100399387,0.117065179467798,0.00251480841369922,,
0.0132658059330336,0.0647758709228174,0.00170175411989426,,
0.0133443018261285,0.0101789959333806,0.000822476597940991,,
0.0134227977192233,-0.0452080802145305,-0.000103330472462027,,
0.0135012936123182,-0.0994744219024631,-0.00107272248555157,,
0.0135797895054131,-0.149414139315675,-0.00193623246882479,,
0.0136582853985079,-0.193428923966104,-0.00274353435800778,,
0.0137367812916028,-0.23012501796327,-0.0034556251559601,,
0.0138152771846977,-0.257650137534925,-0.00405119990165881,,
0.0138937730777926,-0.275562703711246,-0.00442899325544577,,
0.0139722689708874,-0.282735632650149,-0.00469839428128749,,
0.0140507648639823,-0.279048103375615,-0.00479044578447452,,
0.0141292607570772,-0.264689912165663,-0.00467070065495667,,
0.0142077566501721,-0.2401646244039,-0.00435651165428075,,
0.0142862525432669,-0.20655373628248,-0.00390813462369266,,
0.0143647484363618,-0.164693858831949,-0.00327042552280732,,
0.0144432443294567,-0.116654707902386,-0.00253276486285836,,
0.0145217402225516,-0.064286146278618,-0.00169511789923549,,
0.0146002361156464,-0.00967205030318528,-0.000813697069104613,,
0.0146787320087413,0.0455104980866434,0.000115984025400806,,
0.0147572279018362,0.0996220107771397,0.00105187354754488,,
0.014835723794931,0.149428528203179,0.00196923550599015,,
0.0149142196880259,0.193416042485863,0.00276361457150065,,
0.0149927155811208,0.229869398234799,0.0034634665803055,,
0.0150712114742157,0.257416763483324,0.00404063971151958,,
0.0151497073673105,0.275325812376033,0.00445303652610596,,
0.0152282032604054,0.282200685788082,0.00470811842922947,,
0.0153066991535003,0.278716747851967,0.00477065872863491,,
0.0153851950465952,0.26464747636728,0.00468331946328471,,
0.01546369093969,0.240424674996142,0.00434314366528277,,
0.0155421868327849,0.206725352315336,0.00390672963849426,,
0.0156206827258798,0.165001232876424,0.00330154800791416,,
0.0156991786189747,0.11711652267273,0.00254643035258617,,
0.0157776745120695,0.0646689363652135,0.00171000162187829,,
0.0158561704051644,0.0102487020995077,0.000807338805331348,,
0.0159346662982593,-0.0451502962694776,-0.000129803694338904,,
0.0160131621913541,-0.0993604984566434,-0.00107840757249056,,
0.016091658084449,-0.149226489951029,-0.00196874039528661,,
0.0161701539775439,-0.193339575826559,-0.0027407439314544,,
0.0162486498706388,-0.230102452533344,-0.00348419391217458,,
0.0163271457637336,-0.257603362230787,-0.00403236397953943,,
0.0164056416568285,-0.275322614845477,-0.00447529913546374,,
0.0164841375499234,-0.282802415359767,-0.00471430079841051,,
0.0165626334430183,-0.27913009719488,-0.00478282585702283,,
0.0166411293361131,-0.26473358129726,-0.00464021443053486,,
0.016719625229208,-0.240285308342896,-0.00435155837570633,,
0.0167981211223029,-0.206415602962448,-0.00387334223907221,,
0.0168766170153978,-0.164722865001996,-0.00327616272666242,,
0.0169551129084926,-0.116782746161661,-0.00252474320084461,,
0.0170336088015875,-0.0642958759073107,-0.00171118076710686,,
0.0171121046946824,-0.00972764165585673,-0.000808272566746204,,
0.0171906005877772,0.0454721733989759,0.0001184270058463,,
0.0172690964808721,0.0995519391789491,0.00105054456618259,,
0.017347592373967,0.149533452884433,0.00195029535003854,,
0.0174260882670619,0.193428878287096,0.0027661074973242,,
0.0175045841601567,0.229694219239322,0.00345308662783461,,
0.0175830800532516,0.257563119024786,0.00406251144400605,,
0.0176615759463465,0.275315922870812,0.00445045239567898,,
0.0177400718394414,0.282230788254319,0.00469549310628681,,
0.0178185677325362,0.278909010796416,0.0047897031184192,,
0.0178970636256311,0.264535608476818,0.00464646846047545,,
0.017975559518726,0.240388337345321,0.004372146729132,,
0.0180540554118209,0.206510364064434,0.00390221283909264,,
0.0181325513049157,0.165090558176465,0.00327849061558494,,
0.0182110471980106,0.117239970191707,0.00252399836325079,,
0.0182895430911055,0.0646746234017029,0.00169573461607664,,
0.0183680389842003,0.0102134835843806,0.00080929101814986,,
0.0184465348772952,-0.0451996752770683,-0.000144733019283638,,
0.0185250307703901,-0.0993432774706473,-0.00108329136184349,,
0.018603526663485,-0.149360740555385,-0.00195743971063012,,
0.0186820225565798,-0.193195412877479,-0.00274487636859888,,
0.0187605184496747,-0.229962492052995,-0.00348856956159471,,
0.0188390143427696,-0.257730852341967,-0.00404462448406884,,
0.0189175102358645,-0.27555059877414,-0.00445574877728516,,
0.0189960061289593,-0.282708316603397,-0.00469572763240977,,
0.0190745020220542,-0.279099812012611,-0.00476953604339903,,
0.0191529979151491,-0.264839236842641,-0.00466417735428282,,
0.019231493808244,-0.239923758994996,-0.00435392969539183,,
0.0193099897013388,-0.206489511597306,-0.0038827428278263,,
0.0193884855944337,-0.164570251436445,-0.00327783698259454,,
0.0194669814875286,-0.116741863449549,-0.00253761390760054,,
0.0195454773806234,-0.0643157005967597,-0.00168067717037967,,
0.0196239732737183,-0.00969607746136538,-0.000788372590921682,,
0.0197024691668132,0.0453786227907005,0.000133877499952639,,
0.0197809650599081,0.0995625823878007,0.00107058352045053,,
0.0198594609530029,0.149404501044999,0.00194335511403487,,
0.0199379568460978,0.193439886928011,0.00277088922438296,,
0.0200164527391927,0.229894704405201,0.0034800354165716,,
0.0200949486322876,0.257413269039216,0.00404003168083111,,
0.0201734445253824,0.275325081511906,0.00446751199957252,,
0.0202519404184773,0.282277746274489,0.00471242676096617,,
0.0203304363115722,0.278560297249749,0.00481569208728327,,
0.0204089322046671,0.264366641826422,0.00466957796972078,,
0.0204874280977619,0.240207471313355,0.00436283517344238,,
0.0205659239908568,0.206575662206294,0.0039119804177985,,
0.0206444198839517,0.1650085643572,0.00326380667445347,,
0.0207229157770465,0.117034346137433,0.00255595037594025,,
0.0208014116701414,0.06472708574233,0.00170604507932559,,
0.0208799075632363,0.0101885428460416,0.000798426812666175,,
0.0209584034563312,-0.0452224234230259,-0.000125931841775007,,
0.021036899349426,-0.0994740564703995,-0.00103965430224129,,
0.0211153952425209,-0.149291399821322,-0.00196561989493116,,
0.0211938911356158,-0.193459026432341,-0.00275314341442678,,
0.0212723870287107,-0.229847655027016,-0.00345901058397269,,
0.0213508829218055,-0.257770867152929,-0.00403682866202493,,
0.0214293788149004,-0.275687818514013,-0.00444572061399828,,
0.0215078747079953,-0.282926936335431,-0.00470364506059173,,
0.0215863706010902,-0.279117809541742,-0.00478151641950397,,
0.021664866494185,-0.264331880101374,-0.00467472885826936,,
0.0217433623872799,-0.240017675035335,-0.00436326079492488,,
0.0218218582803748,-0.206503306657706,-0.00391369810449405,,
0.0219003541734696,-0.164659188464918,-0.00329316587056327,,
0.0219788500665645,-0.116704223947001,-0.00253273011824762,,
0.0220573459596594,-0.0642450808504737,-0.00171635988565155,,
0.0221358418527543,-0.00963007129488202,-0.000796902392868226,,
0.0222143377458491,0.045434191303868,0.000107315245010842,,
0.022292833638944,0.0995299218971186,0.00108577560151435,,
0.0223713295320389,0.149394588700274,0.00196025402410349,,
0.0224498254251338,0.193318243729848,0.00276038766577447,,
0.0225283213182286,0.229943695141224,0.00345031140204854,,
0.0226068172113235,0.257567184456493,0.00404187748827844,,
0.0226853131044184,0.275209353745272,0.00446023734669021,,
0.0227638089975132,0.282724212898162,0.00470088286403447,,
0.0228423048906081,0.278650536129948,0.00477782914768454,,
0.022920800783703,0.26447394181609,0.00464456619303499,,
0.0229992966767979,0.240115382433334,0.00435983410768648,,
0.0230777925698927,0.206499012830959,0.00391583272651852,,
0.0231562884629876,0.164978484730467,0.00329085535394658,,
0.0232347843560825,0.116994171449944,0.00255710129117226,,
0.0233132802491774,0.0647166252495102,0.00170019929856169,,
0.0233917761422722,0.0102103774118402,0.000795321513077596,,
0.0234702720353671,-0.0452237024352484,-0.00013507184594852,,
0.023548767928462,-0.0994769799269081,-0.00106928711216092,,
0.0236272638215569,-0.149300764017951,-0.00197001508819472,,
0.0237057597146517,-0.193431847422612,-0.00277030508061404,,
0.0237842556077466,-0.229987615507365,-0.0034713926946397,,
0.0238627515008415,-0.257761868388363,-0.00403714136352162,,
0.0239412473939363,-0.275485140755752,-0.00445731662784654,,
0.0240197432870312,-0.282714528948477,-0.00471156248877325,,
0.0240982391801261,-0.279137999663254,-0.00475050902592011,,
0.024176735073221,-0.264915338069881,-0.00465121978599958,,
0.0242552309663158,-0.240327881178303,-0.00435928470852875,,
0.0243337268594107,-0.206376912842717,-0.00388375476461533,,
0.0244122227525056,-0.164771650182483,-0.00328340046339592,,
0.0244907186456005,-0.116724414068513,-0.00254533806888491,,
0.0245692145386953,-0.0643017684993359,-0.00169504841001356,,
0.0246477104317902,-0.00966364536572304,-0.000807592875298191,,
0.0247262063248851,0.0454380511800395,0.000121058910112826,,
0.02480470221798,0.0995014867146717,0.00104646641749229,,
0.0248831981110748,0.149449083756755,0.00195207601134095,,
0.0249616940041697,0.193409601745742,0.00276464388059505,,
0.0250401898972646,0.229796951328195,0.00345352093546936,,
0.0251186857903594,0.257281188187737,0.00402937377147383,,
0.0251971816834543,0.27509581857102,0.00446088446506598,,
0.0252756775765492,0.282601519082817,0.00469938015961802,,
0.0253541734696441,0.278979995974766,0.00476682379221982,,
0.0254326693627389,0.264618881308305,0.00466798840377747,,
0.0255111652558338,0.240059265772071,0.00435990359690797,,
0.0255896611489287,0.206368210991703,0.00391630612184057,,
0.0256681570420236,0.165017928553829,0.00329448616577288,,
0.0257466529351184,0.117090302922168,0.00254466706358913,,
