Time domain (s),Current (AC) (A),Potential (AC) (V),Frequency (Hz),Column 5
0,-0.0645569085982236,0.000129438206169397,0.012589,0.3
0.193931706251489,-0.0688412797905928,-0.000115837769511185,,
0.387863412502979,-0.0731027657999806,-0.000414846754927645,,
0.581795118754468,-0.0772644888560122,-0.000674030368278622,,
0.775726825005958,-0.0814011798156889,-0.000942179235666085,,
0.969658531257447,-0.0856484139745972,-0.00122284602185818,,
1.16359023750894,-0.0898835888754075,-0.00148765120475636,,
1.35752194376043,-0.093942077373479,-0.00173635236723513,,
1.55145365001192,-0.0980661609269623,-0.00200368412172525,,
1.7453853562634,-0.102156304977541,-0.00228630487354042,,
1.93931706251489,-0.1061049354615,-0.00255278189868324,,
2.13324876876638,-0.110205996794978,-0.0028081892383649,,
2.32718047501787,-0.114229403814946,-0.00307705490811427,,
2.52111218126936,-0.118139161463142,-0.00335013153051689,,
2.71504388752085,-0.122074864787853,-0.00364369240001938,,
2.90897559377234,-0.126105443412068,-0.00389157644960081,,
3.10290730002383,-0.129963264028229,-0.00415554362157433,,
3.29683900627532,-0.133808522917204,-0.00440886115845052,,
3.49077071252681,-0.137696537357617,-0.00470426105442145,,
3.6847024187783,-0.141606112289782,-0.00493130977003231,,
3.87863412502979,-0.145162862564564,-0.00520101345070634,,
4.07256583128128,-0.148954768372257,-0.00544690800801728,,
4.26649753753277,-0.152781207509958,-0.0057335976058952,,
4.46042924378426,-0.156354950375696,-0.00601421214701725,,
4.65436095003575,-0.160115063593858,-0.00623794016597001,,
4.84829265628724,-0.163704702754362,-0.00652484501353667,,
5.04222436253872,-0.167185625875952,-0.00677450330570029,,
5.23615606879021,-0.17066814776282,-0.00700277455595222,,
5.4300877750417,-0.174127738787699,-0.00727073743088935,,
5.62401948129319,-0.177408222422418,-0.00750136806850854,,
5.81795118754468,-0.180951451710848,-0.00775814422902821,,
6.01188289379617,-0.18439761310739,-0.00801769982727851,,
6.20581460004766,-0.187653293040794,-0.00823246468199823,,
6.39974630629915,-0.190919707541065,-0.00850052995727335,,
6.59367801255064,-0.194006466503081,-0.00874650601689364,,
6.78760971880213,-0.197264293349858,-0.00897711993609018,,
6.98154142505362,-0.200411851071451,-0.00921840020880627,,
7.17547313130511,-0.20354483718951,-0.00946856005364349,,
7.3694048375566,-0.206372915929522,-0.00969987405678019,,
7.56333654380809,-0.209465704520586,-0.00990204993939914,,
7.75726825005958,-0.212466678305678,-0.0101114983357813,,
7.95119995631106,-0.215359073088879,-0.0103860963346265,,
8.14513166256256,-0.218051165422233,-0.0105798649405586,,
8.33906336881404,-0.22092675033051,-0.010826528545302,,
8.53299507506553,-0.223792742647119,-0.0110223681458148,,
8.72692678131702,-0.226529052260165,-0.0112615753341476,,
8.92085848756851,-0.228946705113774,-0.0114823755393698,,
9.11479019382,-0.231659490037728,-0.0116913077544591,,
9.30872190007149,-0.233904750315345,-0.0119227889418201,,
9.50265360632298,-0.23638566859496,-0.0120712965985903,,
9.69658531257447,-0.238948260940785,-0.0122912629724929,,
9.89051701882596,-0.241178629861811,-0.0125126148856554,,
10.0844487250774,-0.243506660501828,-0.0126976711036915,,
10.2783804313289,-0.245877629409315,-0.0128820941114776,,
10.4723121375804,-0.248205751407347,-0.0130857224070464,,
10.6662438438319,-0.250015051233119,-0.01324901123906,,
10.8601755500834,-0.252047355975687,-0.0134600813224193,,
11.0541072563349,-0.254248901442698,-0.0136265800915423,,
11.2480389625864,-0.256020881518977,-0.0138127731623046,,
11.4419706688379,-0.257745538143022,-0.0139751759179285,,
11.6359023750894,-0.259683789808228,-0.0141476431638639,,
11.8298340813409,-0.261316357552252,-0.0143316294028635,,
12.0237657875923,-0.263362777108276,-0.0144716629092572,,
12.2176974938438,-0.264879320172115,-0.0146930148224196,,
12.4116292000953,-0.266496539769469,-0.014817832474586,,
12.6055609063468,-0.268149160597982,-0.0150197283236291,,
12.7994926125983,-0.26939939504549,-0.0151313217036422,,
12.9934243188498,-0.270602534435805,-0.0152680449623914,,
13.1873560251013,-0.271838425674818,-0.0153998028496751,,
13.3812877313528,-0.273335418123256,-0.0155692440611483,,
13.5752194376043,-0.274449437769067,-0.0156908726742335,,
13.7691511438557,-0.275460222856917,-0.01583142236192,,
13.9630828501072,-0.276496405473186,-0.0159467105132931,,
14.1570145563587,-0.277756004117323,-0.0160554011572089,,
14.3509462626102,-0.27862134724387,-0.0162120005304423,,
14.5448779688617,-0.279431555807826,-0.0163332592484307,,
14.7388096751132,-0.280152735985292,-0.0164106321075028,,
14.9327413813647,-0.281067777872486,-0.016547790045236,,
15.1266730876162,-0.281628396337019,-0.0166546730097252,,
15.3206047938677,-0.28221084936735,-0.0167437320460864,,
15.5145365001192,-0.282728712280445,-0.016847484485973,,
15.7084682063706,-0.283187649273288,-0.0169535942234238,,
15.9023999126221,-0.283637678859582,-0.0170352323700222,,
16.0963316188736,-0.284105980049054,-0.0171121517418857,,
16.2902633251251,-0.284295091141954,-0.0171757360820473,,
16.4841950313766,-0.284321630645571,-0.0172792879008643,,
16.6781267376281,-0.284585244200433,-0.017351361020022,,
16.8720584438796,-0.284862287383632,-0.0174286001317143,,
17.0659901501311,-0.284926375031781,-0.0174763646646379,,
17.2599218563826,-0.284356301012603,-0.0175509455471619,,
17.453853562634,-0.284367081258479,-0.0176030067146535,,
17.6477852688855,-0.284226389914002,-0.0176563217638286,,
17.841716975137,-0.283871920812334,-0.017679777710518,,
18.0356486813885,-0.283604241825764,-0.0177256196248599,,
18.22958038764,-0.283340993702966,-0.017759323964508,,
18.4235120938915,-0.282582311059975,-0.0178105324924549,,
18.617443800143,-0.282427048111963,-0.0178579292200842,,
18.8113755063945,-0.281621772880866,-0.0178295580571963,,
19.005307212646,-0.280928548256263,-0.0178940744494089,,
19.1992389188975,-0.280216458201378,-0.0178901289017119,,
19.3931706251489,-0.279508113825145,-0.0179134343825993,,
19.5871023314004,-0.278686074398131,-0.0179499306987951,,
19.7810340376519,-0.27737983748688,-0.017934533031724,,
19.9749657439034,-0.276469135105441,-0.0179424408455402,,
20.1688974501549,-0.27557807469742,-0.0179304704550702,,
20.3628291564064,-0.274197106929167,-0.0178957797284984,,
20.5567608626579,-0.273209344061322,-0.0178982707734425,,
20.7506925689094,-0.271982954055962,-0.0178612896229957,,
20.9446242751609,-0.270724223312976,-0.0178626103783688,,
21.1385559814123,-0.269291135796656,-0.0178285883886944,,
21.3324876876638,-0.267843111244737,-0.0178148960007127,,
21.5264193939153,-0.26623087065925,-0.0177720968392552,,
21.7203511001668,-0.26465293500873,-0.017744812373826,,
21.9142828064183,-0.263048322817569,-0.0176894576771129,,
22.1082145126698,-0.261287899530301,-0.01763259832238,,
22.3021462189213,-0.25955246266038,-0.01758006903906,,
22.4960779251728,-0.257704472714878,-0.0175371194118004,,
22.6900096314243,-0.256033625962194,-0.017473020980149,,
22.8839413376757,-0.253867755800389,-0.0173981893212884,,
23.0778730439272,-0.251990896721864,-0.0173108042169745,,
23.2718047501787,-0.250051914192532,-0.0172475249880231,,
23.4657364564302,-0.247927657606966,-0.017172106094574,,
23.6596681626817,-0.245557465242614,-0.0171071550233779,,
23.8535998689332,-0.243531509882151,-0.0170184972291558,,
24.0475315751847,-0.240783095331998,-0.0169083562620926,,
24.2414632814362,-0.238716394296446,-0.0168373364035492,,
24.4353949876877,-0.236358124153168,-0.0167075345716916,,
24.6293266939392,-0.23374688366388,-0.0165960749390579,,
24.8232584001906,-0.231380117225125,-0.0164963474593751,,
25.0171901064421,-0.22885224092534,-0.0163865387709579,,
25.2111218126936,-0.226297368331858,-0.0162777039306481,,
25.4050535189451,-0.223528672302177,-0.0161699704164171,,
25.5989852251966,-0.22055163431725,-0.0160186833219158,,
25.7929169314481,-0.217991645674879,-0.015917589111198,,
25.9868486376996,-0.215190791623603,-0.0157805649208442,,
26.1807803439511,-0.212241435117491,-0.0156466503570654,,
26.3747120502026,-0.209604979815817,-0.0154966861077401,,
26.568643756454,-0.20629306902363,-0.0153848231431652,,
26.7625754627055,-0.203437217446786,-0.0152233545293954,,
26.956507168957,-0.200173406649968,-0.0150713715305595,,
27.1504388752085,-0.197193034097461,-0.014912811922295,,
27.34437058146,-0.193859608492532,-0.0147817394903318,,
27.5383022877115,-0.190809529773897,-0.0146042399992403,,
27.732233993963,-0.187585688109033,-0.0144463700259014,,
27.9261657002145,-0.184262631638907,-0.0142789496537414,,
28.120097406466,-0.180703140623648,-0.0140935423488342,,
28.3140291127175,-0.177532652040066,-0.0139154765211824,,
28.5079608189689,-0.173943195595594,-0.0137455149488108,,
28.7018925252204,-0.17041695889812,-0.0135590042280223,,
28.8958242314719,-0.167018257990834,-0.0133777263734585,,
29.0897559377234,-0.163461873148116,-0.0131922354764389,,
29.2836876439749,-0.159830026584269,-0.0130168592249982,,
29.4776193502264,-0.156154693604857,-0.0128279410513774,,
29.6715510564779,-0.152506037166085,-0.0126083090459237,,
29.8654827627294,-0.148691474570451,-0.0124519270121826,,
30.0594144689809,-0.145090689732008,-0.0122053469995516,,
30.2533461752323,-0.141311939478603,-0.0120120151624055,,
30.4472778814838,-0.137426665778667,-0.0118337299054594,,
30.6412095877353,-0.133636038983196,-0.0115966125199316,,
30.8351412939868,-0.129806493672955,-0.0113719503591252,,
31.0290730002383,-0.125983754534898,-0.0111595448917732,,
31.2230047064898,-0.121917546284483,-0.010948288815964,,
31.4169364127413,-0.118044149126613,-0.0107301802767554,,
31.6108681189928,-0.113980910011715,-0.0104850547668769,,
31.8047998252443,-0.110030041256366,-0.0102868244319549,,
31.9987315314958,-0.105971963869366,-0.0100628330978489,,
32.1926632377472,-0.101973908698809,-0.00982905730700745,,
32.3865949439987,-0.0978231486046845,-0.00958903091597429,,
32.5805266502502,-0.093700892211519,-0.00934515719797657,,
32.7744583565017,-0.0895004333567484,-0.00913221674110609,,
32.9683900627532,-0.0853494905465923,-0.00887413236403045,,
33.1623217690047,-0.0812729588403817,-0.00862175314861391,,
33.3562534752562,-0.0771572345453527,-0.00839660824335953,,
33.5501851815077,-0.0728504349600816,-0.00816685950252394,,
33.7441168877592,-0.0686110575905401,-0.00791498183978101,,
33.9380485940106,-0.0644270431786304,-0.0076751059145499,,
34.1319803002621,-0.0600882682877964,-0.00738114589271177,,
34.3259120065136,-0.0558240872169398,-0.00713448019816543,,
34.5198437127651,-0.0515163283725017,-0.0069084345879018,,
34.7137754190166,-0.047181573234367,-0.00664768989185482,,
34.9077071252681,-0.042857415626076,-0.0063918165261474,,
35.1016388315196,-0.0385308827093718,-0.00613478749948859,,
35.2955705377711,-0.0342820041061774,-0.00589740052939902,,
35.4895022440226,-0.0299337736606983,-0.00560870681063053,,
35.6834339502741,-0.0255324642079849,-0.00535624400310208,,
35.8773656565255,-0.0211551362344437,-0.00507789898782685,,
36.071297362777,-0.0168221625776189,-0.00481697456873853,,
36.2652290690285,-0.012469501268369,-0.00455409409422414,,
36.45916077528,-0.00807540909891122,-0.00428083147937164,,
36.6530924815315,-0.00367177001679252,-0.0040106638624744,,
36.847024187783,0.000652935739593842,-0.00377367813452389,,
37.0409558940345,0.00508215506616284,-0.00347490529682437,,
37.234887600286,0.00944671575698293,-0.00321478127221031,,
37.4288193065375,0.0138293196559421,-0.00296579380674755,,
37.6227510127889,0.0182123118264687,-0.00267827037755008,,
37.8166827190404,0.0225280644972975,-0.00239755134628794,,
38.0106144252919,0.0268770486464077,-0.00215311129172946,,
38.2045461315434,0.0312090858835695,-0.00188688922252922,,
38.3984778377949,0.0355036434947109,-0.00161885738409939,,
38.5924095440464,0.0398029517226787,-0.0013349639423752,,
38.7863412502979,0.0441996475955895,-0.00106532713539087,,
38.9802729565494,0.0485048027365746,-0.000810872745788505,,
39.1742046628009,0.052765740597867,-0.000520939773956286,,
39.3681363690523,0.0570676296897838,-0.000252594465105727,,
39.5620680753038,0.0613102731083934,1.06872515472922E-05,,
39.7559997815553,0.0656612899733573,0.000284802505944537,,
39.9499314878068,0.0698889735168643,0.000548351717356343,,
40.1438631940583,0.0740897978036985,0.000808390060055064,,
40.3377949003098,0.0782783801164029,0.00107882726151409,,
40.5317266065613,0.0825296340280106,0.00134739199965983,,
40.7256583128128,0.0865849935140377,0.00163076926009076,,
40.9195900190643,0.0907713832343606,0.00192049952105045,,
41.1135217253157,0.0948958550594115,0.00216809935745088,,
41.3074534315672,0.0990312670068657,0.0024670916244447,,
41.5013851378187,0.103124654267009,0.00273319875449074,,
41.6953168440702,0.107175856963313,0.0029585630890403,,
41.8892485503217,0.111137688680568,0.0032650619277117,,
42.0831802565732,0.115248776556291,0.00350826063940346,,
42.2771119628247,0.11924568975165,0.00382161821088278,,
42.4710436690762,0.123162573325086,0.00405991006558715,,
42.6649753753277,0.127069384677269,0.00431559743884469,,
42.8589070815792,0.130968202203062,0.00458812444310919,,
43.0528387878306,0.134841622200436,0.00486892706648367,,
43.2467704940821,0.138607011344016,0.00510029749429641,,
43.4407022003336,0.142362214068824,0.00535835888354086,,
43.6346339065851,0.146126506916213,0.00561779536303186,,
43.8285656128366,0.149865059642624,0.00584192253432025,,
44.0224973190881,0.153571637063472,0.00612588075993115,,
44.2164290253396,0.157227213871947,0.0063667514312975,,
44.4103607315911,0.160839190067337,0.00661232415897617,,
44.6042924378426,0.164474485396284,0.00686540763793841,,
44.7982241440941,0.168066477025697,0.00710541731054892,,
44.9921558503455,0.171585450760907,0.00733588494354898,,
45.186087556597,0.175043876971083,0.00757050710452711,,
45.3800192628485,0.178408227264393,0.00782964265241359,,
45.5739509691,0.181703122626119,0.00806212485531876,,
45.7678826753515,0.184923698241915,0.00831704736074945,,
45.961814381603,0.188349806553969,0.00856189283705211,,
46.1557460878545,0.191652764260598,0.00878416426344897,,
46.349677794106,0.194758936800991,0.0089880955804249,,
46.5436095003575,0.197883563660595,0.00921416208871673,,
46.7375412066089,0.201157652234201,0.00948127232410956,,
46.9314729128604,0.204126239602658,0.00967901782478053,,
47.1254046191119,0.207300017074813,0.00991784048939781,,
47.3193363253634,0.210262026666126,0.0101376208708506,,
47.5132680316149,0.213013547388819,0.0103317050370064,,
47.7071997378664,0.21578425329485,0.0105534749107301,,
47.9011314441179,0.218596253024065,0.0107560562150937,,
48.0950631503694,0.221311413256432,0.0109455386354718,,
48.2889948566209,0.224149358662161,0.0111535325291015,,
48.4829265628724,0.226999180609955,0.0113804182400932,,
48.6768582691238,0.229278197674445,0.0115760028846634,,
48.8707899753753,0.23197271099522,0.0117441985736644,,
49.0647216816268,0.234402286069903,0.0119691574864693,,
49.2586533878783,0.236707431526939,0.0121463894828016,,
49.4525850941298,0.239047475746046,0.0123242902160312,,
49.6465168003813,0.241519440940103,0.0125118374790114,,
49.8404485066328,0.243795169116021,0.012688283709489,,
50.0343802128843,0.245966566437787,0.0128818997598166,,
50.2283119191358,0.248023766239687,0.0130806149289895,,
50.4222436253872,0.250202289486693,0.0132702687131978,,
50.6161753316387,0.252270269534468,0.0133909255679781,,
50.8101070378902,0.254384294022253,0.0136016947197337,,
51.0040387441417,0.256179844466632,0.0137725569971145,,
51.1979704503932,0.258085024530084,0.0139129583088016,,
51.3919021566447,0.259897932997483,0.0140526072914793,,
51.5858338628962,0.261530500741507,0.0142075201938479,,
51.7797655691477,0.263174762311566,0.0143544918455558,,
51.9736972753992,0.264861962149095,0.0145119584869531,,
52.1676289816506,0.266373571880076,0.0146608736552705,,
52.3615606879021,0.267895048276773,0.014805517266653,,
52.5554923941536,0.269188312349767,0.0149452916374986,,
52.7494241004051,0.27073080109012,0.0150905872673563,,
52.9433558066566,0.2718917787561,0.0152137393466867,,
53.1372875129081,0.2733184255323,0.0153295269609304,,
53.3312192191596,0.274194548904722,0.0154780534259258,,
53.5251509254111,0.275419477181828,0.015589899672078,,
53.7190826316626,0.276551402998754,0.0157131478823374,,
53.913014337914,0.277381299215134,0.0158354932977849,,
54.1069460441655,0.278240978144696,0.015939197672207,,
54.300877750417,0.278998884244552,0.0160256444550608,,
54.4948094566685,0.279752770591709,0.0161084215441885,,
54.68874116292,0.280860212460375,0.016235097031049,,
54.8826728691715,0.281401782778594,0.0163436204907406,,
55.076604575423,0.281830982737263,0.0164214572860355,,
55.2705362816745,0.282457698726296,0.0164965230028105,,
55.464467987926,0.283170291250268,0.0165980874191596,,
55.6583996941775,0.283370730737139,0.0166753265308524,,
55.8523314004289,0.283736893664842,0.0167331722725095,,
56.0462631066804,0.283967481296959,0.0168034899573106,,
56.2401948129319,0.284110365233817,0.0168857236977082,,
56.4341265191834,0.284247219541626,0.0169272062833983,,
56.6280582254349,0.284462093595008,0.0169960360286017,,
56.8219899316864,0.284202271397806,0.0170459530584148,,
57.0159216379379,0.28424667139353,0.0171077777846138,,
57.2098533441894,0.284081130668731,0.0171427736223952,,
57.4037850504409,0.284011515860619,0.0171842227712404,,
57.5977167566924,0.283443999865886,0.0172386704935357,,
57.7916484629438,0.283073634469453,0.0172995422696554,,
57.9855801691953,0.282708385121909,0.0173253931303599,,
58.1795118754468,0.282388083918184,0.0173386508393585,,
58.3734435816983,0.281590893871494,0.0173665706048403,,
58.5673752879498,0.281061930959468,0.0173650784856374,,
58.7613069942013,0.280453121141551,0.0173857967906512,,
58.9552387004528,0.279531866909277,0.0173909251667359,,
59.1491704067043,0.279125689170613,0.017400287483305,,
59.3431021129558,0.278176479385475,0.0174059048732462,,
59.5370338192072,0.277203151084141,0.0174379373706497,,
59.7309655254587,0.276036509221176,0.0174035308572593,,
59.9248972317102,0.27498424759411,0.0174135660903314,,
60.1188289379617,0.273866756343695,0.0173915270299441,,
60.3127606442132,0.272651694732306,0.0173762463918301,,
60.5066923504647,0.271633418287152,0.0173788879025762,,
60.7006240567162,0.270103354236961,0.0173590598535571,,
60.8945557629677,0.268701008692989,0.0173229647794999,,
61.0884874692192,0.267392213757293,0.0173157925762712,,
61.2824191754707,0.26569843614262,0.0172380059362438,,
61.4763508817221,0.264076100496375,0.017196540068976,,
61.6702825879736,0.262747206797183,0.0171814433335089,,
61.8642142942251,0.260850248955161,0.0171504682763253,,
62.0581460004766,0.259045928141256,0.0170746126140897,,
62.2520777067281,0.257266091275611,0.0170162778585761,,
62.4460094129796,0.255313587759926,0.0169664402412697,,
62.6399411192311,0.253491543490938,0.0168894686243357,,
62.8338728254826,0.251434891837134,0.0168325967307861,,
63.0278045317341,0.249411129069052,0.0167647533725068,,
63.2217362379855,0.247125351511386,0.0166889186082995,,
63.415667944237,0.245056823315516,0.016623198489671,,
63.6095996504885,0.242920872903916,0.0165242087103783,,
63.80353135674,0.240433376847156,0.0164176454857183,,
63.9974630629915,0.238097169664717,0.0163509724170106,,
64.191394769243,0.235747258779894,0.0162719277156937,,
64.3853264754945,0.23338400962475,0.0161532310959447,,
64.579258181746,0.230860153077664,0.0160924930672044,,
64.7731898879975,0.228535822437291,0.015994899276186,,
64.967121594249,0.225745748631891,0.0158856151282731,,
65.1610533005004,0.223014326672694,0.015754108017326,,
65.3549850067519,0.22020543311602,0.0156484434078723,,
65.5489167130034,0.217511285227308,0.0155302483407969,,
65.7428484192549,0.21462839167776,0.0154365415829965,,
65.9367801255064,0.211887103052847,0.0152943681185302,,
66.1307118317579,0.20884086137088,0.0151732598663434,,
66.3246435380094,0.205971306091652,0.0150030328890156,,
66.5185752442609,0.202802279236324,0.0148823384177845,,
66.7125069505123,0.19980025483405,0.0147566534974537,,
66.9064386567638,0.196562161318705,0.0146069901797325,,
67.1003703630153,0.193415243103224,0.0144743963713267,,
