Time domain (s),Current (AC) (A),Potential (AC) (V),Frequency (Hz),Column 5
0,-0.45594004672841,-0.0168331799162278,1.9953,0.5
0.00122357853455621,-0.454903335288014,-0.0168458988050713,,
0.00244715706911241,-0.454347630793216,-0.0169008972205993,,
0.00367073560366862,-0.452790229334209,-0.0169504018576045,,
0.00489431413822483,-0.451602991014366,-0.0169661354195183,,
0.00611789267278103,-0.45040931568981,-0.0170049118624118,,
0.00734147120733724,-0.448429264745516,-0.0170241821916153,,
0.00856504974189345,-0.447036325220114,-0.0170568383429228,,
0.00978862827644966,-0.445174828340646,-0.0170799048023507,,
0.0110122068110059,-0.443402459218746,-0.0171148817466698,,
0.0122357853455621,-0.44175911313637,-0.0170713087736618,,
0.0134593638801183,-0.439565792200755,-0.0170771831757124,,
0.0146829424146745,-0.437263678811856,-0.0170940788183076,,
0.0159065209492307,-0.43511831709817,-0.0170918456023901,,
0.0171300994837869,-0.432688666132372,-0.0170980399976717,,
0.0183536780183431,-0.430161752732721,-0.0170816293974481,,
0.0195772565528993,-0.427782183078317,-0.0170716051884443,,
0.0208008350874555,-0.42543147384065,-0.0170342030322694,,
0.0220244136220117,-0.422276068277521,-0.0169975553864492,,
0.0232479921565679,-0.419392926792865,-0.0169395422978504,,
0.0244715706911241,-0.416502499467709,-0.0169350657609666,,
0.0256951492256803,-0.413826403178607,-0.0168873429810059,,
0.0269187277602366,-0.410525563750751,-0.0168439316887881,,
0.0281423062947928,-0.407349008029279,-0.0168326712954081,,
0.029365884829349,-0.40379917677076,-0.0167818159501332,,
0.0305894633639052,-0.400301478176786,-0.0167194071650458,,
0.0318130418984614,-0.397055388657149,-0.0166744093800726,,
0.0330366204330176,-0.393581457465192,-0.0165943234952368,,
0.0342601989675738,-0.389279557699966,-0.0165481366827844,,
0.03548377750213,-0.38571274972572,-0.0164702334886186,,
0.0367073560366862,-0.38200708636409,-0.0163871565091607,,
0.0379309345712424,-0.378036374028171,-0.0163146696214729,,
0.0391545131057986,-0.373799551673232,-0.0162436109141,,
0.0403780916403548,-0.370018624871879,-0.0161485965029522,,
0.041601670174911,-0.365502889224808,-0.0160709627767703,,
0.0428252487094672,-0.361482519995388,-0.0159630947427876,,
0.0440488272440235,-0.356507988605794,-0.0158945420876653,,
0.0452724057785797,-0.352201844661636,-0.0157789403225426,,
0.0464959843131359,-0.347656329025728,-0.0156522095296814,,
0.0477195628476921,-0.342842227599754,-0.0155827137366154,,
0.0489431413822483,-0.338167971869582,-0.0154442341396535,,
0.0501667199168045,-0.333420786998099,-0.0153207639093984,,
0.0513902984513607,-0.328413292485469,-0.0152444269978895,,
0.0526138769859169,-0.323346237995163,-0.015110309413918,,
0.0538374555204731,-0.318472505855199,-0.0149819887599514,,
0.0550610340550293,-0.313408917444354,-0.014858006540527,,
0.0562846125895855,-0.308266953195902,-0.0146792111648129,,
0.0575081911241417,-0.303081698322347,-0.0145714542863731,,
0.0587317696586979,-0.297465234869325,-0.0144429180580197,,
0.0599553481932541,-0.292223390943347,-0.0143320622977643,,
0.0611789267278103,-0.2864478415167,-0.0141765253774166,,
0.0624025052623666,-0.281005177190934,-0.0139950622686618,,
0.0636260837969228,-0.275459167108179,-0.0138580916924096,,
0.064849662331479,-0.269762347200716,-0.0137085908549035,,
0.0660732408660352,-0.263944143775806,-0.0135167060718682,,
0.0672968194005914,-0.258320323745969,-0.0134032297354687,,
0.0685203979351476,-0.252401674753006,-0.0132165962097712,,
0.0697439764697038,-0.246379184848847,-0.0130469930606605,,
0.07096755500426,-0.240311706648011,-0.0128601170137772,,
0.0721911335388162,-0.234179504718466,-0.0127188888433789,,
0.0734147120733724,-0.228200517648357,-0.0125244946397429,,
0.0746382906079286,-0.222153694451656,-0.0123295884469372,,
0.0758618691424848,-0.215942763002926,-0.012199920453051,,
0.077085447677041,-0.209591419967872,-0.0119641898606742,,
0.0783090262115972,-0.203286409219488,-0.0117925926484821,,
0.0795326047461535,-0.197214050212881,-0.0116047465168569,,
0.0807561832807097,-0.190673204588523,-0.0114204304158214,,
0.0819797618152659,-0.184135754307311,-0.0112251200210398,,
0.0832033403498221,-0.177703276718344,-0.0110324773592998,,
0.0844269188843783,-0.171147434995094,-0.0108093039749759,,
0.0856504974189345,-0.164527647642606,-0.0105818157345587,,
0.0868740759534907,-0.157994724485588,-0.0103722538517754,,
0.0880976544880469,-0.151228088542061,-0.0101681049071196,,
0.0893212330226031,-0.14464140578524,-0.0099608031870515,,
0.0905448115571593,-0.137902215532139,-0.00974541742746471,,
0.0917683900917155,-0.131147463289621,-0.00953205267775736,,
0.0929919686262717,-0.124387900977647,-0.00931445728070157,,
0.0942155471608279,-0.117541757415465,-0.00908516697314177,,
0.0954391256953841,-0.110651191447131,-0.00887000015629136,,
0.0966627042299403,-0.103855695086868,-0.00863375420639523,,
0.0978862827644966,-0.096934853975487,-0.00842712615628693,,
0.0991098612990528,-0.0899438424391013,-0.00819020990478059,,
0.100333439833609,-0.0829981021446543,-0.00794211073193951,,
0.101557018368165,-0.0760492494523241,-0.00773928218040565,,
0.102780596902721,-0.0691035091578771,-0.00748498524393337,,
0.104004175437278,-0.0620779075631976,-0.00723707806703056,,
0.105227753971834,-0.055018211064433,-0.00700762271033062,,
0.10645133250639,-0.048074734332083,-0.00676065530302195,,
0.107674911040946,-0.0409900679139365,-0.00650894525919599,,
0.108898489575502,-0.0339317861414825,-0.00628167932986523,,
0.110122068110059,-0.0268882882589741,-0.00602422624963062,,
0.111345646644615,-0.0198387777896458,-0.0057924837834169,,
0.112569225179171,-0.0127123062090216,-0.00550965018744209,,
0.113792803713727,-0.00570566194690391,-0.00530183647820426,,
0.115016382248283,0.00139654707749376,-0.00501574231962332,,
0.11623996078284,0.00849620959453237,-0.00476508320093449,,
0.117463539317396,0.0156103023199389,-0.00450830715900974,,
0.118687117851952,0.0226745966792129,-0.00427389695975444,,
0.119910696386508,0.0297230461038084,-0.00401364478083632,,
0.121134274921064,0.0366990615413019,-0.00375059013488466,,
0.122357853455621,0.0437571664729671,-0.00347392735574292,,
0.123581431990177,0.0508759985315141,-0.00323625659388149,,
0.124805010524733,0.0577878207626648,-0.00295811174082772,,
0.126028589059289,0.0647032859140653,-0.00273000709239746,,
0.127252167593846,0.0717715768751667,-0.00245407187681224,,
0.128475746128402,0.0788199555634466,-0.00220990693653711,,
0.129699324662958,0.0857835567775647,-0.00192925603123228,,
0.130922903197514,0.0927010025458,-0.00168875585553918,,
0.13214648173207,0.0995714794005239,-0.00140430545166081,,
0.133370060266627,0.106624173004051,-0.00114125080570915,,
0.134593638801183,0.113265181251198,-0.000875740632753974,,
0.135817217335739,0.120167630920541,-0.000647100416705459,,
0.137040795870295,0.126922949053583,-0.000348664624458817,,
0.138264374404851,0.133864162223837,-9.38287520182435E-05,,
0.139487952939408,0.140455089159589,0.00021281907703985,,
0.140711531473964,0.147236438256746,0.000447909682954606,,
0.14193511000852,0.153850885017412,0.000729342045413084,,
0.143158688543076,0.160634992830874,0.00097636334631801,,
0.144382267077632,0.167122963059374,0.00123311244144464,,
0.145605845612189,0.173807827822149,0.00152392228974474,,
0.146829424146745,0.1801231660726,0.00176337154030071,,
0.148053002681301,0.186808313780637,0.00202125240095974,,
0.149276581215857,0.193202593759218,0.00229511944976801,,
0.150500159750413,0.199669626038321,0.00253720274986691,,
0.15172373828497,0.205922928540052,0.00281523981572684,,
0.152947316819526,0.212083814045544,0.00306005147916366,,
0.154170895354082,0.218336939706487,0.00333291475973141,,
0.155394473888638,0.224561134214378,0.00359750537319181,,
0.156618052423194,0.230746883534779,0.00385427467841692,,
0.157841630957751,0.236858819509925,0.00411121913783186,,
0.159065209492307,0.242700153710014,0.00438530176102736,,
0.160288788026863,0.248814353247257,0.00462248074381799,,
0.161512366561419,0.254563482660053,0.00486958288511818,,
0.162735945095976,0.260395302825704,0.00512344867281644,,
0.163959523630532,0.26623730902079,0.00537674857774784,,
0.165183102165088,0.272044159267059,0.00560993943437582,,
0.166406680699644,0.277718661866972,0.00588687841820157,,
0.1676302592342,0.283233229657474,0.00611083325967865,,
0.168853837768757,0.28904549123188,0.00639692741825959,,
0.170077416303313,0.29420726164868,0.00661622046361421,,
0.171300994837869,0.299524934904906,0.00681759388803505,,
0.172524573372425,0.304819972540162,0.0070948225499432,,
0.173748151906981,0.310160281417358,0.0073605988225327,,
0.174971730441538,0.31530366039212,0.00757502123407727,,
0.176195308976094,0.320278686935922,0.00781944890563668,,
0.17741888751065,0.325407918647578,0.00806956908835765,,
0.178642466045206,0.330226759406692,0.00828457759276713,,
0.179866044579762,0.335161324778012,0.00852637121478317,,
0.181089623114319,0.33993800669307,0.00873442744520636,,
0.182313201648875,0.344710727374459,0.00894806166289763,,
0.183536780183431,0.349199936903207,0.00922587641767114,,
0.184760358717987,0.353695937118245,0.0093952707290943,,
0.185983937252543,0.358423669502957,0.00962799001674997,,
0.1872075157871,0.362459883667055,0.00983264421387586,,
0.188431094321656,0.366874961537128,0.0100488451141145,,
0.189654672856212,0.370941450844273,0.0102815778751695,,
0.190878251390768,0.375151959289836,0.0104877478297047,,
0.192101829925324,0.379267964017851,0.0107053903836576,,
0.193325408459881,0.382998314353601,0.0109233697725908,,
0.194548986994437,0.386746773186126,0.0111355488631686,,
0.195772565528993,0.390609541904547,0.0112928912190085,,
0.196996144063549,0.394242276124867,0.0114989264395517,,
0.198219722598106,0.397961874540656,0.0116994375664241,,
0.199443301132662,0.40154311272327,0.0118676664288162,,
0.200666879667218,0.404593828539415,0.0120596893141931,,
0.201890458201774,0.40789042378834,0.0122529248054981,,
0.20311403673633,0.411540134724387,0.0124267855487554,,
0.204337615270887,0.414389959404429,0.0126273775160226,,
0.205561193805443,0.417162540027913,0.0127948249212615,,
0.206784772339999,0.420147612543246,0.0129639699747992,,
0.208008350874555,0.423197196578343,0.0131443787900674,,
0.209231929409111,0.425846130122282,0.0133140088859762,,
0.210455507943668,0.428151851063273,0.0134728872093248,,
0.211679086478224,0.430456723168478,0.0136229269827992,,
0.21290266501278,0.433125462880765,0.0138124977095222,,
0.214126243547336,0.435163800549055,0.013974683752374,,
0.215349822081892,0.437515924513034,0.0140904269881887,,
0.216573400616449,0.439693471250286,0.0142583324890002,,
0.217796979151005,0.441461596193254,0.0143670089269352,,
0.219020557685561,0.443789103919429,0.0145291208660918,,
0.220244136220117,0.44552553899304,0.0146567745867978,,
0.221467714754673,0.44713068746503,0.0147942840990178,,
0.22269129328923,0.448742909568572,0.0149288025166152,,
0.223914871823786,0.45002974462068,0.0150801289997133,,
0.225138450358342,0.451424947708179,0.015195117725173,,
0.226362028892898,0.452605678286993,0.0153101199240315,,
0.227585607427454,0.453813288665708,0.0154280930074138,,
0.228809185962011,0.45491224806377,0.0155390060296154,,
0.230032764496567,0.455974707523019,0.0156484100311074,,
0.231256343031123,0.456703291572971,0.0157356637643167,,
0.232479921565679,0.457533735917284,0.0158561159531514,,
0.233703500100236,0.458090855138392,0.0159457410046198,,
0.234927078634792,0.458638920111113,0.0160229166352286,,
0.236150657169348,0.459069279854792,0.0161367129648591,,
0.237374235703904,0.459390988617819,0.0161750784690771,,
0.23859781423846,0.459264795030915,0.0163012770626696,,
0.239821392773017,0.459440786983952,0.0163899050825975,,
0.241044971307573,0.459210186595327,0.0164434820545103,,
0.242268549842129,0.459804654591034,0.0165185019412473,,
0.243492128376685,0.459049190741182,0.0165902814754775,,
0.244715706911241,0.458600156610203,0.0166365289182262,,
0.245939285445798,0.458135560489807,0.0167024879440025,,
0.247162863980354,0.457904677155919,0.0167642028490311,,
0.24838644251491,0.456899938530142,0.0168258773338623,,
0.249610021049466,0.456322164304899,0.0168540704216853,,
0.250833599584022,0.45530384430654,0.0168836512696253,,
0.252057178118579,0.454479624757993,0.0169371406644436,,
0.253280756653135,0.453491296957419,0.0169817982460869,,
0.254504335187691,0.452005551386043,0.0170103820624865,,
0.255727913722247,0.45077021237164,0.0170563533005517,,
0.256951492256803,0.44927456371609,0.0170308885760666,,
0.25817507079136,0.447800418900461,0.017068452413032,,
0.259398649325916,0.446076433418382,0.0170947255414688,,
0.260622227860472,0.444506370158895,0.0170964231897681,,
0.261845806395028,0.442593943132246,0.0170768867609303,,
0.263069384929584,0.440677271926666,0.0170872073847161,,
0.264292963464141,0.438805871963025,0.0170724944327914,,
0.265516541998697,0.436632286459442,0.0170942404990977,,
0.266740120533253,0.4344292746486,0.0170955676289188,,
0.267963699067809,0.431726015614334,0.0170842701836911,,
0.269187277602366,0.429457360502681,0.0170439577732893,,
0.270410856136922,0.426927546914093,0.0170488620905975,,
0.271634434671478,0.424437062716939,0.0170323706499782,,
0.272858013206034,0.421513389323485,0.0170083610526066,,
0.27408159174059,0.418619991073077,0.0169678936981139,,
0.275305170275147,0.415541829566507,0.0169560303701197,,
0.276528748809703,0.412653807276079,0.0168781339126536,,
0.277752327344259,0.409558103163257,0.0168260188045539,,
0.278975905878815,0.406142387958981,0.0167928944526241,,
0.280199484413371,0.402956990198069,0.0167194442168936,,
0.281423062947928,0.399604937677769,0.0166866162797468,,
0.282646641482484,0.395943625985976,0.016593784559269,,
0.28387022001704,0.392292500323619,0.016523884564227,,
0.285093798551596,0.388589595678294,0.0164684011063279,,
0.286317377086152,0.384770117584977,0.0163965878885999,,
0.287540955620709,0.38093847284539,0.0163117661039456,,
0.288764534155265,0.377005533701964,0.0162535003891118,,
0.289988112689821,0.373115036347856,0.0161880466158055,,
0.291211691224377,0.368939896060058,0.0160616324478258,,
0.292435269758933,0.364491996539579,0.0159775921203251,,
0.29365884829349,0.360212732395323,0.0159146713460681,,
0.294882426828046,0.355791146784221,0.0157918949958717,,
0.296106005362602,0.351410022345602,0.015703570127426,,
0.297329583897158,0.346747933261701,0.0155952439978702,,
0.298553162431714,0.342260704349788,0.0154678395350492,,
0.299776740966271,0.337449786058014,0.0153381984879615,,
0.301000319500827,0.33252399198982,0.0152438577467735,,
0.302223898035383,0.327704019449657,0.0151166419115412,,
0.303447476569939,0.322663632550306,0.0150230017871116,,
0.304671055104496,0.317683230046523,0.0148643390381502,,
0.305894633639052,0.312540699907548,0.0147291267404936,,
0.307118212173608,0.307298855981569,0.0145957872453257,,
0.308341790708164,0.30202758574833,0.0144779691060348,,
0.30956536924272,0.29670000940793,0.0143275588140823,,
0.310788947777277,0.29126657617134,0.0141820932596355,,
0.312012526311833,0.285722900386998,0.0140262060309091,,
0.313236104846389,0.280343509695473,0.0138751220689968,,
0.314459683380945,0.27460286864054,0.0137193695742623,,
0.315683261915501,0.268912238160686,0.013558066039058,,
0.316906840450058,0.263175805916527,0.0133773675457074,,
0.318130418984614,0.257345754158765,0.0132080338645806,,
0.31935399751917,0.25156543003082,0.0130686043929749,,
0.320577576053726,0.245518889779381,0.0128722700198542,,
0.321801154588282,0.239508318944388,0.012729930294022,,
0.323024733122839,0.233523991282456,0.0125482078223325,,
0.324248311657395,0.227425141525683,0.0123597958079404,,
0.325471890191951,0.221235678548717,0.0121914793684534,,
0.326695468726507,0.215189704187802,0.0119908402442888,,
0.327919047261063,0.208944253417095,0.0118017545599374,,
0.32914262579562,0.202590151665734,0.0116180649719646,,
0.330366204330176,0.196237747585946,0.0114219394365316,,
0.331589782864732,0.189737610711176,0.0112368149315443,,
0.332813361399288,0.183169920655075,0.011032827667679,,
0.334036939933844,0.176745648478709,0.0108275469574908,,
0.335260518468401,0.170226872584797,0.0106419104633342,,
0.336484097002957,0.163640189827976,0.0104195454829621,,
0.337707675537513,0.156928728210562,0.0102273339699965,,
0.338931254072069,0.150364928651815,0.00999944489595306,,
0.340154832606626,0.143739199448823,0.00978586457185848,,
0.341378411141182,0.13693609893464,0.00958352106269533,,
0.342601989675738,0.130117684008146,0.00935908791554674,,
0.343825568210294,0.12337255190454,0.0091362244194042,,
0.34504914674485,0.116575923763229,0.00894290808770437,,
0.346272725279407,0.109737702668386,0.0086950042791516,,
0.347496303813963,0.102847101331894,0.00846838170463293,,
0.348719882348519,0.095983415163461,0.00823777100395162,,
0.349943460883075,0.0889749317571396,0.00802483740301829,,
0.351167039417631,0.0820407568502816,0.00778840619388355,,
0.352390617952188,0.075139438961987,0.00756652625588261,,
0.353614196486744,0.0681074003625944,0.00732469895036836,,
0.3548377750213,0.0611345326911419,0.00708349815791687,,
0.356061353555856,0.0541598966118012,0.00684928332294987,,
0.357284932090412,0.0471377610965827,0.00661414556013762,,
0.358508510624969,0.0400287260177364,0.00636030671923793,,
0.359732089159525,0.0329769519863111,0.00609509632941485,,
0.360955667694081,0.0259462927450713,0.00587364754018838,,
0.362179246228637,0.0189088781856984,0.00561478985808739,,
0.363402824763193,0.011855017432965,0.00537585259670115,,
0.36462640329775,0.00482920362933888,0.00513120935075451,,
0.365849981832306,-0.00233634976561522,0.00488798754842357,,
0.367073560366862,-0.00939441932912264,0.00461811536247758,,
0.368297138901418,-0.0164751245135994,0.00435353148571727,,
0.369520717435974,-0.0235464217681108,0.00411671628470467,,
0.370744295970531,-0.0306815231792296,0.00387227513974597,,
0.371967874505087,-0.0376515967662186,0.00362374481813088,,
0.373191453039643,-0.0447625770937419,0.00339208319231199,,
0.374415031574199,-0.0518656349539259,0.00312149017950869,,
0.375638610108756,-0.0587844247121562,0.00285014265635075,,
0.376862188643312,-0.0657990621779287,0.0025959737171708,,
0.378085767177868,-0.0727786851675142,0.00234402115215904,,
0.379309345712424,-0.0797116929251659,0.00208907075582543,,
0.38053292424698,-0.0867041899241777,0.00180045033489495,,
0.381756502781537,-0.0936903206547919,0.00158144696762275,,
0.382980081316093,-0.10058873835415,0.00131104258240855,,
0.384203659850649,-0.107506254858701,0.0010117781761112,,
0.385427238385205,-0.114448246128425,0.000783754368076206,,
0.386650816919761,-0.121124693269652,0.000519318698706694,,
0.387874395454318,-0.127966875598164,0.000256129318763509,,
0.389097973988874,-0.134756995998447,-2.15843855158049E-05,,
0.39032155252343,-0.141380532375658,-0.000252734022165413,,
0.391545131057986,-0.148241884245679,-0.000518375560762951,,
0.392768709592542,-0.154756628169606,-0.000801101369543922,,
0.393992288127099,-0.161452669270235,-0.00104931169792843,,
0.395215866661655,-0.168128409048307,-0.00130301243648656,,
0.396439445196211,-0.174732634411378,-0.00154733905755178,,
0.397663023730767,-0.18110824000266,-0.0018203673872601,,
0.398886602265323,-0.187505349433862,-0.00205908570590907,,
0.40011018079988,-0.193889726328269,-0.00232734108395105,,
0.401333759334436,-0.200411897565327,-0.00259279399495993,,
0.402557337868992,-0.206606701134115,-0.00284140852532033,,
0.403780916403548,-0.212940713771865,-0.00309998663438815,,
0.405004494938104,-0.219238509416065,-0.00336285265275071,,
0.406228073472661,-0.225481413679413,-0.00361127518717241,,
0.407451652007217,-0.231523992697183,-0.00387406036513971,,
0.408675230541773,-0.237640986318889,-0.00413339298456261,,
0.409898809076329,-0.24334289924107,-0.0043698241936978,,
0.411122387610886,-0.249713411817633,-0.00462495984927047,,
0.412345966145442,-0.255345154314809,-0.0048497500414979,,
0.413569544679998,-0.261175241440729,-0.00511881382349211,,
0.414793123214554,-0.267085119130566,-0.00536481114605802,,
0.41601670174911,-0.272787385734324,-0.00561283284685388,,
