Time domain (s),Current (AC) (A),Potential (AC) (V),Frequency (Hz),Column 5
0,0.368458230521558,0.0210891702249634,0.025119,0.4
0.0971936084239022,0.367190824099711,0.0211035582663808,,
0.194387216847804,0.366561703574718,0.0210782551590603,,
0.291580825271707,0.365120390097027,0.0210796759217708,,
0.388774433695609,0.363764150070979,0.0210389022871573,,
0.485968042119511,0.361998288425557,0.0210423527108832,,
0.583161650543413,0.360650273733231,0.020983966129017,,
0.680355258967316,0.359289333516484,0.0209845073719546,,
0.777548867391218,0.357556373205952,0.0209309017693684,,
0.87474247581512,0.355942797739161,0.0209115297825693,,
0.971936084239022,0.353637589211088,0.020827293212498,,
1.06912969266292,0.351962676255682,0.0208040028523504,,
1.16632330108683,0.349864511127878,0.020726898285568,,
1.26351690951073,0.348087134015245,0.0206787727677225,,
1.36071051793463,0.345666535805524,0.0205872350559444,,
1.45790412635853,0.343855317319862,0.0205364709787794,,
1.55509773478244,0.341202294680101,0.020432394472286,,
1.65229134320634,0.338813892776665,0.0203939718616821,,
1.74948495163024,0.336362978336939,0.0203101017581826,,
1.84667856005414,0.333839210941386,0.0202216254517689,,
1.94387216847804,0.331183603196741,0.0200916143878613,,
2.04106577690195,0.328484518688135,0.0200365429189864,,
2.13825938532585,0.325451485630401,0.0199157724506445,,
2.23545299374975,0.322970959989274,0.0198102357158096,,
2.33264660217365,0.320002554553645,0.019707619437658,,
2.42984021059756,0.316735451999126,0.0195728555842063,,
2.52703381902146,0.313721924732791,0.0194449813023119,,
2.62422742744536,0.310522034905261,0.0193350413306641,,
2.72142103586926,0.307340005802385,0.0192117112342642,,
2.81861464429316,0.30403154156972,0.0190886235695964,,
2.91580825271707,0.300613797903315,0.0189459158484504,,
3.01300186114097,0.297110510766198,0.0187696961687669,,
3.11019546956487,0.293617329039082,0.0186293338336827,,
3.20738907798877,0.289889372786577,0.0185160787490433,,
3.30458268641268,0.286260355548276,0.0183679529605767,,
3.40177629483658,0.282648258996488,0.0181996094932209,,
3.49896990326048,0.278847214778622,0.0180381612353693,,
3.59616351168438,0.274760163956752,0.0178574311978745,,
3.69335712010828,0.271136551937753,0.0176783925445592,,
3.79055072853219,0.267031875400765,0.0175139674505518,,
3.88774433695609,0.262911453224936,0.0173295163678633,,
3.98493794537999,0.258879629643774,0.0171561156618116,,
4.08213155380389,0.254622196909084,0.0169851731007675,,
4.1793251622278,0.250381214841839,0.0167507021499524,,
4.2765187706517,0.245995231891546,0.0165644694759282,,
4.3737123790756,0.241834123689983,0.016368562084399,,
4.4709059874995,0.237393912289506,0.0161975969715655,,
4.56809959592341,0.232873474509045,0.0159659055287515,,
4.66529320434731,0.228605936364353,0.0157580231372338,,
4.76248681277121,0.223674026264431,0.0155546680173688,,
4.85968042119511,0.219180173937607,0.0153516286225504,,
4.95687402961901,0.214474813029352,0.0151014898162889,,
5.05406763804292,0.209808698713429,0.0148685298353404,,
5.15126124646682,0.20497857711832,0.0146426511161559,,
5.24845485489072,0.200038882327553,0.0144307094026077,,
5.34564846331462,0.195259963434866,0.0142207522464965,,
5.44284207173853,0.190199268109805,0.0139521096973145,,
5.54003568016243,0.185437504913168,0.013699986333616,,
5.63722928858633,0.180297141355768,0.0134674322848709,,
5.73442289701023,0.175171142756189,0.0131913081796693,,
5.83161650543413,0.170132508951219,0.0129613250348766,,
5.92881011385804,0.165087559264998,0.0127115188675035,,
6.02600372228194,0.159700200686392,0.0124479279190699,,
6.12319733070584,0.15455020173806,0.0121782818152747,,
6.22039093912974,0.149383017717486,0.0119162243884969,,
6.31758454755365,0.144004413244056,0.0116286947159807,,
6.41477815597755,0.138706563922065,0.0113692138311028,,
6.51197176440145,0.133352576697418,0.01110500270847,,
6.60916537282535,0.12788393419592,0.010827181581142,,
6.70635898124925,0.122467640068327,0.0105505838883708,,
6.80355258967316,0.117103782443213,0.0102594177398689,,
6.90074619809706,0.111511466173961,0.0099962891031109,,
6.99793980652096,0.106037183443625,0.00970722027099136,,
7.09513341494486,0.100487668285922,0.00940810461684771,,
7.19232702336877,0.0949146521747254,0.00913391996550494,,
7.28952063179267,0.0894406044539242,0.00881628365459886,,
7.38671424021657,0.0837893007914064,0.00852491453999571,,
7.48390784864047,0.0780994849413528,0.00826547875869554,,
7.58110145706437,0.0725706212465305,0.00795164806219262,,
7.67829506548828,0.0668404131326618,0.00764430664299054,,
7.77548867391218,0.0611752732837753,0.00735386778968561,,
7.87268228233608,0.0554471508795291,0.00702977602916244,,
7.96987589075998,0.0497484046671484,0.00673681137548332,,
8.06706949918389,0.0441453073354819,0.00644239213141029,,
8.16426310760779,0.0383821685105319,0.00613441926211467,,
8.26145671603169,0.0326446457248887,0.0058173918495128,,
8.35865032445559,0.0269129981776186,0.00551073262192991,,
8.45584393287949,0.0211324686470842,0.0051943310214746,,
8.5530375413034,0.0153674497458548,0.00486466333110691,,
8.6502311497273,0.00959397050136817,0.00456344472263348,,
8.7474247581512,0.00386960824968071,0.00422938507134729,,
8.8446183665751,-0.00192196672899511,0.00393396227266107,,
8.94181197499901,-0.00769127455423685,0.00360249043916916,,
9.03900558342291,-0.0134668101321541,0.00326971623985939,,
9.13619919184681,-0.0192043329177973,0.00296215494071372,,
9.23339280027071,-0.0249700568476314,0.00264933907471843,,
9.33058640869461,-0.0306925390230395,0.00230718333116098,,
9.42778001711852,-0.0365045598312538,0.00195582645766867,,
9.52497362554242,-0.0422604721130048,0.001637958990925,,
9.62216723396632,-0.0478594567778101,0.00132415084621096,,
9.71936084239022,-0.0536066149543852,0.000988828294737676,,
9.81655445081413,-0.0593131752338022,0.000649017937242036,,
9.91374805923803,-0.0649733798824553,0.000337284557121453,,
10.0109416676619,-0.0706300593880845,1.37565913238547E-06,,
10.1081352760858,-0.0762712282644088,-0.000318135269238962,,
10.2053288845097,-0.0819125733978842,-0.000613679283790969,,
10.3025224929336,-0.0876334692589315,-0.000964607673290985,,
10.3997161013575,-0.0931098964512738,-0.00132257503995037,,
10.4969097097814,-0.0987240392310817,-0.00161975969715655,,
10.5941033182053,-0.104341942163448,-0.00195984067612054,,
10.6912969266292,-0.109834114994631,-0.00227696393382582,,
10.7884905350531,-0.115311423472729,-0.00260159411831262,,
10.8856841434771,-0.120750307891867,-0.00295376567518479,,
10.982877751901,-0.126231200265373,-0.00328425932482634,,
11.0800713603249,-0.131576022118157,-0.00361969745421842,,
11.1772649687488,-0.136965965801647,-0.00392299646523231,,
11.2744585771727,-0.142315429092747,-0.00426204006189979,,
11.3716521855966,-0.147583461579995,-0.00456087381868064,,
11.4688457940205,-0.152872821182537,-0.00491773614767599,,
11.5660394024444,-0.15819572839619,-0.00522182165233342,,
11.6632330108683,-0.163296434094572,-0.00551379966524124,,
11.7604266192922,-0.16847627925384,-0.0058604883183988,,
11.8576202277161,-0.17354467114117,-0.00614457320513662,,
11.95481383614,-0.178601900075591,-0.00648106844964103,,
12.0520074445639,-0.183714297498335,-0.00680218337400929,,
12.1492010529878,-0.18868498417152,-0.00713144231320006,,
12.2463946614117,-0.193569246088237,-0.00745440366529682,,
12.3435882698356,-0.198447985280883,-0.00776732947126391,,
12.4407818782595,-0.203533532864262,-0.00808075705453781,,
12.5379754866834,-0.208276612802873,-0.0083530473555995,,
12.6351690951073,-0.212990610311537,-0.00867980022723147,,
12.7323627035312,-0.217636455055073,-0.00898681746446606,,
12.8295563119551,-0.222104985104508,-0.00929797013601874,,
12.926749920379,-0.226969212458372,-0.00955839537706371,,
13.0239435288029,-0.231423348173794,-0.00987935243890803,,
13.1211371372268,-0.235856803050142,-0.0101807119960631,,
13.2183307456507,-0.240561693939327,-0.0104967302161048,,
13.3155243540746,-0.244906080201939,-0.0107910987186521,,
13.4127179624985,-0.249161339098431,-0.0110671551684867,,
13.5099115709224,-0.253212257204305,-0.0113306249010541,,
13.6071051793463,-0.257328449208506,-0.0116387077103211,,
13.7042987877702,-0.261621368382969,-0.0119138620885932,,
13.8014923961941,-0.26579537273276,-0.0122024545141688,,
13.898686004618,-0.269811450675083,-0.0124477305909152,,
13.9958796130419,-0.273944387108646,-0.0127509591275885,,
14.0930732214658,-0.277599196643406,-0.013033583785985,,
14.1902668298897,-0.281393190575225,-0.0132914381230775,,
14.2874604383136,-0.28525909742473,-0.0135845211736489,,
14.3846540467375,-0.289180466524478,-0.01382697545779,,
14.4818476551614,-0.292912887958147,-0.0141013179716558,,
14.5790412635853,-0.296342382101298,-0.0143432958492529,,
14.6762348720092,-0.299945254528839,-0.0145947511162006,,
14.7734284804331,-0.303125051041133,-0.0148556978673673,,
14.870622088857,-0.30654015085027,-0.0151026174057414,,
14.9678156972809,-0.309730640296403,-0.015333818347143,,
15.0650093057048,-0.312911200589686,-0.0155611178290385,,
15.1622029141287,-0.316034301051679,-0.0158033014917103,,
15.2593965225527,-0.318925623359854,-0.0160710814349612,,
15.3565901309766,-0.322142433873898,-0.0162548559639784,,
15.4537837394005,-0.325008375152301,-0.0164931381671436,,
15.5509773478244,-0.327742006062541,-0.016719264956008,,
15.6481709562483,-0.330754769547887,-0.0169195248428253,,
15.7453645646722,-0.333315257183272,-0.017145761571661,,
15.8425581730961,-0.335813643549053,-0.0173587434864793,,
15.93975178152,-0.338312969952973,-0.0175639450340732,,
16.0369453899439,-0.340834857272247,-0.017749701301554,,
16.1341389983678,-0.343048118319781,-0.0179501190508944,,
16.2313326067917,-0.345563249114925,-0.0181309167437562,,
16.3285262152156,-0.347947655856267,-0.0183659063857191,,
16.4257198236395,-0.349770624818675,-0.0185007886360631,,
16.5229134320634,-0.351801342209957,-0.0186787194327414,,
16.6201070404873,-0.353716904929125,-0.018877113159014,,
16.7173006489112,-0.355510732709203,-0.0190264708389578,,
16.8144942573351,-0.357330411538122,-0.019214552759685,,
16.911687865759,-0.359628981046834,-0.0193638681550246,,
17.0088814741829,-0.360542051842398,-0.0195011859985863,,
17.1060750826068,-0.362271252000372,-0.0196826630640934,,
17.2032686910307,-0.363491950277153,-0.0198185150413668,,
17.3004622994546,-0.364815523977847,-0.0199654145763035,,
17.3976559078785,-0.366339267049912,-0.0200858157590997,,
17.4948495163024,-0.367452742226384,-0.0202709208436711,,
17.5920431247263,-0.368590188375418,-0.0203852161295806,,
17.6892367331502,-0.369395096032534,-0.0204991928714695,,
17.7864303415741,-0.370434308195969,-0.0205969548770271,,
17.883623949998,-0.37133392469566,-0.020724981383498,,
17.9808175584219,-0.372081255016719,-0.0208504144342272,,
18.0780111668458,-0.372805084384286,-0.0209067713550781,,
18.1752047752697,-0.373511758055804,-0.0209918141516083,,
18.2723983836936,-0.373799174717016,-0.0210923246564572,,
18.3695919921175,-0.374203626126621,-0.0212093036052643,,
18.4667856005414,-0.37460972260297,-0.0212719778460242,,
18.5639792089653,-0.374926045436978,-0.021361077145611,,
18.6611728173892,-0.375065641100724,-0.0213996181531075,,
18.7583664258131,-0.374896669245113,-0.0214975605729775,,
18.855560034237,-0.374882568673018,-0.021547915898966,,
18.9527536426609,-0.374734042646945,-0.0216121236613822,,
19.0499472510848,-0.374387638592467,-0.0216622083659015,,
19.1471408595087,-0.374053925052874,-0.0217016542639343,,
19.2443344679326,-0.373721621570491,-0.0217161099607193,,
19.3415280763565,-0.373645243471641,-0.0217894004561776,,
19.4387216847804,-0.372620836908905,-0.0217871931998235,,
19.5359152932043,-0.372068094482763,-0.0218024579420408,,
19.6331089016283,-0.371590085088727,-0.0218259822769999,,
19.7303025100522,-0.370501050903888,-0.0218487370321574,,
19.8274961184761,-0.36976335597376,-0.0218475671581002,,
19.9246897269,-0.368614394357515,-0.0218421321769378,,
20.0218833353239,-0.367688926808983,-0.0218571488494752,,
20.1190769437478,-0.366431860806673,-0.0218224162753553,,
20.2162705521717,-0.365310160296479,-0.0218394682468555,,
20.3134641605956,-0.363834535426689,-0.0218232760623129,,
20.4106577690195,-0.362229009036469,-0.0217975191002378,,
20.5078513774434,-0.360625715236831,-0.0217454949418592,,
20.6050449858673,-0.359032115580509,-0.0217396089249156,,
20.7022385942912,-0.357616418142125,-0.0217017219193014,,
20.7994322027151,-0.35569145504156,-0.0216069593016881,,
20.896625811139,-0.354052733554532,-0.0215793559118835,,
20.9938194195629,-0.351874665184853,-0.0215464049290994,,
21.0910130279868,-0.349824677011708,-0.0214913362791984,,
21.1882066364107,-0.347608125830685,-0.0214009938122399,,
21.2854002448346,-0.345383466820708,-0.0213492600081455,,
21.3825938532585,-0.343333948666632,-0.0212663173469712,,
21.4797874616824,-0.340705367018503,-0.0211369349141837,,
21.5769810701063,-0.338491342189981,-0.0210595822777213,,
21.6741746785302,-0.336143831945622,-0.0209909994682285,,
21.7713682869541,-0.333249924532563,-0.0209048319012193,,
21.868561895378,-0.330827916265633,-0.0207928171649785,,
21.9657555038019,-0.327964325082579,-0.0206761116566136,,
22.0629491122258,-0.325277461069789,-0.0205376211200208,,
22.1601427206497,-0.322157474484134,-0.0204473688602187,,
22.2573363290736,-0.319597750629737,-0.020357206807573,,
22.3545299374975,-0.316283411158699,-0.0202151981918877,,
22.4517235459214,-0.312994393965049,-0.0200624774764004,,
22.5489171543453,-0.310265992016961,-0.0199166350565756,,
22.6461107627692,-0.3066158826729,-0.0197934797365407,,
22.7433043711931,-0.3036025904161,-0.0196320117458737,,
22.840497979617,-0.299871990306327,-0.0194694105278064,,
22.9376915880409,-0.296523574452724,-0.0193127432492344,,
23.0348851964648,-0.292659312669963,-0.0191251123642888,,
23.1320788048887,-0.289276585424262,-0.0189946502646001,,
23.2292724133126,-0.285410208555687,-0.0188106953212706,,
23.3264660217365,-0.281965438792765,-0.0186326038430953,,
23.4236596301604,-0.277998947862312,-0.0184626310089806,,
23.5208532385843,-0.273991095253712,-0.0182558085515478,,
23.6180468470082,-0.269932245576034,-0.0180892635893697,,
23.7152404554321,-0.26613848665375,-0.0178903793616851,,
23.812434063856,-0.261922650606742,-0.0177118368477287,,
23.9096276722799,-0.257814213917194,-0.0174807261134831,,
24.0068212807039,-0.25372692808579,-0.0173015070458553,,
24.1040148891278,-0.249406924062427,-0.0170547453700047,,
24.2012084975517,-0.244946266832411,-0.0168637993720679,,
24.2984021059756,-0.240726435623309,-0.0166834780857497,,
24.3955957143995,-0.236203618371306,-0.0164080502670356,,
24.4927893228234,-0.231811818935024,-0.0161602963124667,,
24.5899829312473,-0.227250753881212,-0.015956025026171,,
24.6871765396712,-0.222411672547584,-0.0157188675934847,,
24.7843701480951,-0.217852017550982,-0.0154567481492873,,
24.881563756519,-0.213230555046695,-0.0152170705541739,,
24.9787573649429,-0.208465031697499,-0.0150049230555509,,
25.0759509733668,-0.203764135970407,-0.0147360831782146,,
25.1731445817907,-0.198776998629777,-0.0144806841671556,,
25.2703381902146,-0.193797851613335,-0.0142329978679538,,
25.3675317986385,-0.188963235460871,-0.0139806659002062,,
25.4647254070624,-0.183991373740011,-0.0137057849623767,,
25.5619190154863,-0.178951359254023,-0.0134468876050406,,
25.6591126239102,-0.17390024056751,-0.0132017947615801,,
25.7563062323341,-0.168691782997366,-0.0129307899124944,,
25.853499840758,-0.163642603139516,-0.0126383129412537,,
25.9506934491819,-0.158560463194393,-0.0123665244174984,,
26.0478870576058,-0.153244371257253,-0.012077745939663,,
26.1450806660297,-0.147967525912445,-0.0118017796969849,,
26.2422742744536,-0.142683512776822,-0.0115199950927307,,
26.3394678828775,-0.137423059347075,-0.0112217476824652,,
26.4366614913014,-0.131978828461018,-0.0109174366599176,,
26.5338550997253,-0.126557863518918,-0.0106284777677694,,
26.6310487081492,-0.121073739764307,-0.0103318766381055,,
26.7282423165731,-0.115680270937793,-0.0100752372786483,,
26.825435924997,-0.110226110898884,-0.00976124871962192,,
26.9226295334209,-0.104586645841688,-0.00944320083856542,,
27.0198231418448,-0.0991155651162657,-0.00913338436051436,,
27.1170167502687,-0.0935801505306574,-0.0088337612911169,,
27.2142103586926,-0.087942506797357,-0.00852024631966053,,
27.3114039671165,-0.0823260139221999,-0.008216563928233,,
27.4085975755404,-0.0767156312949507,-0.00790828379081132,,
27.5057911839643,-0.0710274605116416,-0.00757704029418349,,
27.6029847923882,-0.0654079125125304,-0.00727868012497268,,
27.7001784008121,-0.0596770287462488,-0.00694222998404692,,
27.797372009236,-0.0540595370805682,-0.00663705917454127,,
27.8945656176599,-0.0483257744474838,-0.00631098003760711,,
27.9917592260838,-0.042633608502081,-0.00598792847835394,,
28.0889528345077,-0.0368558403335819,-0.00567770606809992,,
28.1861464429316,-0.0311277766817194,-0.005357493215294,,
28.2833400513556,-0.0254038844491018,-0.00501614933614292,,
28.3805336597795,-0.0196451520529317,-0.0046935685454863,,
28.4777272682034,-0.0138647400271648,-0.00436947960393619,,
28.5749208766273,-0.00805483430476483,-0.00404159632387779,,
28.6721144850512,-0.00232947326255395,-0.00372402203039135,,
28.7693080934751,0.0034613966875171,-0.00338520395161446,,
28.866501701899,0.00923252583665451,-0.00304884401784467,,
28.9636953103229,0.0150194300008237,-0.00272353446071216,,
29.0608889187468,0.0207204969323618,-0.00238451341583357,,
29.1580825271707,0.0264854864573993,-0.00207352424475182,,
29.2552761355946,0.0321741566359701,-0.00172187419800185,,
29.3524697440185,0.0379518660520854,-0.00140130051657117,,
29.4496633524424,0.0437041944384289,-0.00108677071460761,,
29.5468569608663,0.0493733000732172,-0.000736789500247692,,
29.6440505692902,0.0550182584782921,-0.000417952306574154,,
29.7412441777141,0.0607614214927735,-9.30937852228197E-05,,
29.838437786138,0.0664636928481781,0.000259774058136042,,
29.9356313945619,0.0721290677065995,0.000578746562543753,,
30.0328250029858,0.0777993483890625,0.000920321597532858,,
30.1300186114097,0.0833559432090058,0.00123725880297831,,
30.2272122198336,0.0890231981437067,0.00157003300228808,,
30.3244058282575,0.0945263870468385,0.00188469811498626,,
30.4215994366814,0.100041620188635,0.00222444645506181,,
30.5187930451053,0.105595130508433,0.00257230216330306,,
30.6159866535292,0.111186242353818,0.00285016275626182,,
30.7131802619531,0.116593106723823,0.00319121346215523,,
30.810373870377,0.122092124207709,0.00352628794394905,,
30.9075674788009,0.127479923429193,0.00383806642764783,,
31.0047610872248,0.132893338689984,0.00417950051395533,,
31.1019546956487,0.138361804934331,0.00448189745340688,,
31.1991483040726,0.143623198402217,0.00480256134199397,,
31.2963419124965,0.148902217585223,0.00512973705967079,,
31.3935355209204,0.15422283345591,0.00545085762198605,,
31.4907291293443,0.159447565436349,0.00574312880815153,,
31.5879227377682,0.164466399688001,0.00608762993777079,,
31.6851163461921,0.169786809925346,0.00639370281883833,,
31.782309954616,0.174969240189498,0.00669840004077393,,
31.8795035630399,0.179819131961732,0.00699999075376656,,
31.9766971714638,0.184974536129367,0.00731280098181486,,
32.0738907798877,0.189992694728607,0.00764925112274106,,
32.1710843883116,0.194832921733717,0.00793385470062757,,
32.2682779967355,0.199851814737753,0.00820867644001089,,
32.3654716051594,0.204750353483717,0.00853986637613957,,
32.4626652135834,0.209298963032178,0.008830468729915,,
32.5598588220073,0.214002443864154,0.00910909608370147,,
32.6570524304312,0.218759036851023,0.00941929030421917,,
32.7542460388551,0.223343602858327,0.00968901533927591,,
32.851439647279,0.228105131045429,0.0099946146327734,,
32.9486332557029,0.232585822838297,0.0102880641499175,,
33.0458268641268,0.236859001211827,0.0105290243780329,,
33.1430204725507,0.24143252177099,0.0108393369954434,,
33.2402140809746,0.245827670093145,0.0110842099589603,,
33.3374076893985,0.250346668440205,0.0113568328989109,,
33.4346012978224,0.25455615922977,0.0116692428327032,,
33.5317949062463,0.258525000255573,0.0119185979642951,,
