Time domain (s),Current (AC) (A),Potential (AC) (V),Frequency (Hz),Column 5
0,-0.343722116628622,-0.00717220227309445,3.9811,0.5
0.000613249164803697,-0.348312691297523,-0.00737955688691683,,
0.00122649832960739,-0.352816826188848,-0.0075705704991762,,
0.00183974749441109,-0.357365737167902,-0.00773969628180371,,
0.00245299665921479,-0.361948035687886,-0.0079094517458822,,
0.00306624582401849,-0.366064889251688,-0.00810920922739866,,
0.00367949498882218,-0.370095161565281,-0.00828003207832761,,
0.00429274415362588,-0.3745965377403,-0.00847211051775654,,
0.00490599331842958,-0.378613511626575,-0.00864555448171789,,
0.00551924248323328,-0.38249502546861,-0.00882987196927632,,
0.00613249164803697,-0.386596812197204,-0.0089774503598048,,
0.00674574081284067,-0.390108658054284,-0.00918341506700937,,
0.00735898997764437,-0.393657145322809,-0.00934752131579186,,
0.00797223914244807,-0.397371933669142,-0.00948566216359437,,
0.00858548830725176,-0.401110560153809,-0.00968228659593917,,
0.00919873747205546,-0.404442169878921,-0.00981414086795196,,
0.00981198663685916,-0.408056795602465,-0.00998908224512052,,
0.0104252358016629,-0.410934844072403,-0.0101514453513492,,
0.0110384849664666,-0.413827747168602,-0.0102845692249876,,
0.0116517341312702,-0.41710800232864,-0.0104483683120864,,
0.0122649832960739,-0.420067821979329,-0.010619457369808,,
0.0128782324608776,-0.423099368253966,-0.0107625128045465,,
0.0134914816256813,-0.42563873124515,-0.0109011246335968,,
0.014104730790485,-0.428227114502996,-0.0110444232380016,,
0.0147179799552887,-0.430697226641277,-0.0111837952922187,,
0.0153312291200924,-0.433021339024306,-0.0113154652672214,,
0.0159444782848961,-0.435514369728818,-0.0114308556729976,,
0.0165577274496998,-0.437528374104567,-0.0115772694088094,,
0.0171709766145035,-0.439832185165038,-0.0117330822921371,,
0.0177842257793072,-0.442031165005896,-0.0118525297918164,,
0.0183974749441109,-0.443875119279112,-0.0119599109566946,,
0.0190107241089146,-0.445531197898283,-0.0120884888374166,,
0.0196239732737183,-0.447433721840757,-0.0121987573221198,,
0.020237222438522,-0.448630580299512,-0.012337228368732,,
0.0208504716033257,-0.450614875422738,-0.0124227242636596,,
0.0214637207681294,-0.45190022501222,-0.0125520982050777,,
0.0220769699329331,-0.453116677430376,-0.0126505947182602,,
0.0226902190977368,-0.454086896734175,-0.0127539034311512,,
0.0233034682625405,-0.455383068979933,-0.0128665908141126,,
0.0239167174273442,-0.456171637425453,-0.0129446892318286,,
0.0245299665921479,-0.457216342069504,-0.0130570310578957,,
0.0251432157569516,-0.45800575935081,-0.0131369161327375,,
0.0257564649217553,-0.458501974604248,-0.0132376446874871,,
0.026369714086559,-0.45869069909408,-0.0132923988172551,,
0.0269829632513627,-0.459591879753923,-0.0133931478494502,,
0.0275962124161664,-0.460340835862746,-0.0134697334958749,,
0.0282094615809701,-0.459696569500906,-0.0135455409993681,,
0.0288227107457738,-0.460122968010916,-0.013611867445563,,
0.0294359599105775,-0.459977251200926,-0.0137040569055102,,
0.0300492090753812,-0.460147372039774,-0.0137404222891586,,
0.0306624582401849,-0.459827290212004,-0.0138238090071927,,
0.0312757074049886,-0.459276466522978,-0.0138752278730139,,
0.0318889565697923,-0.45902881868231,-0.0139338164044651,,
0.032502205734596,-0.458399831364624,-0.0139843317030008,,
0.0331154548993997,-0.45829577824448,-0.0140263309438611,,
0.0337287040642034,-0.45691642009166,-0.0141202609866817,,
0.0343419532290071,-0.456150416530794,-0.0141350047474909,,
0.0349552023938107,-0.455025709113879,-0.0141761644130827,,
0.0355684515586144,-0.453949102391524,-0.0142156423684572,,
0.0361817007234181,-0.452774808817423,-0.0142181022216059,,
0.0367949498882218,-0.451418722912412,-0.01426276353039,,
0.0374081990530255,-0.450079542986813,-0.0143096364032953,,
0.0380214482178292,-0.448621243105862,-0.0143145100353408,,
0.0386346973826329,-0.447065610054743,-0.0143578198327172,,
0.0392479465474366,-0.445160256659647,-0.0143628137697549,,
0.0398611957122403,-0.443640557656817,-0.0143770660718703,,
0.040474444877044,-0.441478572908981,-0.0144022123750278,,
0.0410876940418477,-0.439491731278396,-0.0144066994952881,,
0.0417009432066514,-0.437292185547015,-0.0143968268068435,,
0.0423141923714551,-0.435226331451983,-0.0144088675448377,,
0.0429274415362588,-0.432719719374889,-0.0144020690329092,,
0.0435406907010625,-0.430176890304244,-0.0143965810774969,,
0.0441539398658662,-0.427813165584519,-0.0143652505857776,,
0.0447671890306699,-0.425475754774171,-0.0143762085788373,,
0.0453804381954736,-0.422309597291082,-0.0143604409457496,,
0.0459936873602773,-0.419686199557049,-0.0142996613276232,,
0.046606936525081,-0.416437846475316,-0.0142835276601962,,
0.0472201856898847,-0.413483119839344,-0.014268330835904,,
0.0478334348546884,-0.410230098160785,-0.0142632549890838,,
0.0484466840194921,-0.406936615309744,-0.0142151125145533,,
0.0490599331842958,-0.403917589362956,-0.0141779869057381,,
0.0496731823490995,-0.400278418137923,-0.0141313188072885,,
0.0502864315139032,-0.396681547229577,-0.0140988415786176,,
0.0508996806787069,-0.393371865762279,-0.0140520301380489,,
0.0515129298435106,-0.389719962000451,-0.0139944270836661,,
0.0521261790083143,-0.385805980189588,-0.0139532699777547,,
0.052739428173118,-0.381706952177299,-0.0138916533440403,,
0.0533526773379217,-0.377807329838488,-0.0138345596661158,,
0.0539659265027254,-0.374140925131976,-0.0137788430964059,,
0.0545791756675291,-0.369557282621997,-0.0137202724827197,,
0.0551924248323328,-0.36536948053372,-0.0136390794110421,,
0.0558056739971365,-0.36110988108518,-0.0135756223669072,,
0.0564189231619402,-0.356460878219652,-0.0134971323180451,,
0.0570321723267439,-0.352193497776404,-0.0134060486401579,,
0.0576454214915475,-0.347667222418319,-0.0133288896252575,,
0.0582586706563513,-0.342990137235526,-0.0132714503904392,,
0.0588719198211549,-0.338115839205037,-0.0131359920880061,,
0.0594851689859586,-0.333302091460641,-0.013066284303612,,
0.0600984181507623,-0.328391930118179,-0.0129653330566417,,
0.060711667315566,-0.323372056750331,-0.0128850000376781,,
0.0613249164803697,-0.318617444565718,-0.0127653708006696,,
0.0619381656451734,-0.31299680767008,-0.0126460487253444,,
0.0625514148099771,-0.307953025427583,-0.0125698111954944,,
0.0631646639747808,-0.302686777472747,-0.0124469465220858,,
0.0637779131395845,-0.297352764127634,-0.0123415670275118,,
0.0643911623043882,-0.292051218751348,-0.0122018110211903,,
0.0650044114691919,-0.286425347368362,-0.0120972327066742,,
0.0656176606339956,-0.280863846032506,-0.011976108616139,,
0.0662309097987993,-0.275117581440488,-0.0118482474460118,,
0.066844158963603,-0.269725139898748,-0.0116938475064283,,
0.0674574081284067,-0.263820567432576,-0.0115702046900883,,
0.0680706572932104,-0.258124384151953,-0.0114587869087526,,
0.0686839064580141,-0.252161029807576,-0.0113440108263432,,
0.0692971556228178,-0.246240400197779,-0.0111706282947184,,
0.0699104047876215,-0.240179995628496,-0.0110704526309995,,
0.0705236539524252,-0.234166277027462,-0.0108941623021037,,
0.0711369031172289,-0.228321759693174,-0.0107581511086403,,
0.0717501522820326,-0.22205933220674,-0.010624290046962,,
0.0723634014468363,-0.215833404659118,-0.0104742518032848,,
0.07297665061164,-0.209584841490527,-0.010328736515397,,
0.0735898997764437,-0.203234418027574,-0.0101438661368083,,
0.0742031489412474,-0.196893331758271,-0.0100007748665401,,
0.0748163981060511,-0.19052847808695,-0.00984500037842295,,
0.0754296472708548,-0.184110996596876,-0.00970036818037556,,
0.0760428964356585,-0.177402435168398,-0.00950151170646407,,
0.0766561456004622,-0.171050243297557,-0.00931588366238945,,
0.0772693947652659,-0.164434983069263,-0.0091599069594972,,
0.0778826439300696,-0.157918824419025,-0.00898889981155815,,
0.0784958930948733,-0.151193710692714,-0.0088277218374917,,
0.079109142259677,-0.144584109369662,-0.00865104243713022,,
0.0797223914244806,-0.137734287519072,-0.00845421579001071,,
0.0803356405892844,-0.13105253515418,-0.00826389585122023,,
0.0809488897540881,-0.124145558360643,-0.00807904595007702,,
0.0815621389188917,-0.117430630663768,-0.00795777851742274,,
0.0821753880836954,-0.110635205039821,-0.00772120514845565,,
0.0827886372484991,-0.103819619565948,-0.00755164677979048,,
0.0834018864133028,-0.0968484141979103,-0.00738404144749616,,
0.0840151355781065,-0.0898936196550756,-0.00717574487117778,,
0.0846283847429102,-0.0828754453735267,-0.00698954089894643,,
0.0852416339077139,-0.076010344478783,-0.00679711690262375,,
0.0858548830725176,-0.0689800035509631,-0.00659785087980103,,
0.0864681322373213,-0.0619742788609473,-0.00639229828118859,,
0.087081381402125,-0.0549677053351451,-0.00617329200083772,,
0.0876946305669287,-0.0479654467245903,-0.00599235329179848,,
0.0883078797317324,-0.0408784460080314,-0.00579601554369136,,
0.0889211288965361,-0.0338435779560176,-0.00558096141033548,,
0.0895343780613398,-0.0267235433801065,-0.00538226875598857,,
0.0901476272261435,-0.0197514891762827,-0.00519682500892404,,
0.0907608763909472,-0.0126148315662223,-0.0049736797248876,,
0.0913741255557509,-0.00557338503686423,-0.0047720408780596,,
0.0919873747205546,0.00151577313731829,-0.00455504138737473,,
0.0926006238853583,0.00859598316758636,-0.00434485832638298,,
0.093213873050162,0.0157808122085222,-0.00411911496644057,,
0.0938271222149657,0.0227706565957016,-0.00391842064178904,,
0.0944403713797694,0.0298824857590113,-0.00368661339827758,,
0.0950536205445731,0.0368927375732209,-0.00349093092842923,,
0.0956668697093768,0.0439100630189835,-0.0032656585497346,,
0.0962801188741805,0.0510297792814747,-0.00308339136641367,,
0.0968933680389842,0.057853004277425,-0.00282577998180589,,
0.0975066172037879,0.0649512874363108,-0.00262815471430899,,
0.0981198663685916,0.0719177181030501,-0.00240237039947555,,
0.0987331155333953,0.0789092601618022,-0.00216276380888347,,
0.099346364698199,0.0858957445739941,-0.00194431041956289,,
0.0999596138630027,0.0927902717759979,-0.0017236659435671,,
0.100572863027806,0.0997111128873786,-0.00151401529616013,,
0.10118611219261,0.106685713598562,-0.00128917550350316,,
0.101799361357414,0.113503845579794,-0.00108401197635688,,
0.102412610522217,0.120359043390363,-0.000835579606724757,,
0.103025859687021,0.127030326780557,-0.000640347640678662,,
0.103639108851825,0.133929911629121,-0.000417471123115742,,
0.104252358016629,0.140661462360145,-0.000175937092959266,,
0.104865607181432,0.147478214983225,1.59340123326857E-05,,
0.105478856346236,0.154039468034613,0.000226462630218194,,
0.10609210551104,0.16064280919374,0.000462874739302066,,
0.106705354675843,0.16731890265339,0.000670311262906509,,
0.107318603840647,0.17383060491575,0.000906272868187674,,
0.107931853005451,0.180299582443529,0.00113230291236821,,
0.108545102170254,0.186846935808916,0.00134944574517215,,
0.109158351335058,0.193337169599512,0.00158405583904564,,
0.109771600499862,0.1997025537932,0.00178792928712124,,
0.110384849664666,0.206001198273185,0.00202579529484037,,
0.110998098829469,0.212236745959719,0.00225051990186564,,
0.111611347994273,0.218511340092424,0.00246208775011381,,
0.112224597159077,0.224664833652944,0.00266669838623024,,
0.11283784632388,0.230715901028577,0.00289754063011927,,
0.113451095488684,0.236818464441915,0.00314496448555701,,
0.114064344653488,0.242932062720476,0.00332474109956049,,
0.114677593818291,0.24883345205245,0.00354987013613606,,
0.115290842983095,0.254645147736332,0.00375065148993103,,
0.115904092147899,0.260565494400867,0.00397584195884315,,
0.116517341312703,0.266403256417022,0.0041758451697067,,
0.117130590477506,0.272042284754697,0.00436603968414317,,
0.11774383964231,0.277703205982029,0.00462681995345271,,
0.118357088807114,0.283248933119521,0.00479850797645653,,
0.118970337971917,0.288878129109338,0.00503778180855852,,
0.119583587136721,0.294351988150252,0.00523409907921968,,
0.120196836301525,0.29962976612452,0.00541268288201868,,
0.120810085466328,0.304888869711488,0.00566803662825288,,
0.121423334631132,0.31028350407901,0.00585202647668215,,
0.122036583795936,0.315281449189043,0.00603534056940758,,
0.122649832960739,0.320352111231441,0.00623649051722275,,
0.123263082125543,0.325425885671723,0.00644814539461436,,
0.123876331290347,0.33026255198235,0.00663717269465369,,
0.124489580455151,0.335158636798022,0.00684657505303266,,
0.125102829619954,0.340166767937492,0.00703363651829703,,
0.125716078784758,0.344735202139632,0.00720496618600386,,
0.126329327949562,0.349134718020289,0.0074194776670522,,
0.126942577114365,0.353530555612538,0.00759439088773339,,
0.127555826279169,0.358251497310959,0.00779320640675385,,
0.128169075443973,0.362670253469439,0.00798198797744609,,
0.128782324608776,0.367119284770966,0.00814785528654749,,
0.12939557377358,0.371112774200485,0.00832005012632964,,
0.130008822938384,0.375412410403614,0.00852101065777333,,
0.130622072103188,0.37905533065337,0.00871241334149842,,
0.131235321267991,0.383525582849556,0.00888441364554726,,
0.131848570432795,0.386984305733673,0.00904432201798855,,
0.132461819597599,0.390617888789779,0.00921036850473866,,
0.133075068762402,0.394542622520604,0.00940435134660511,,
0.133688317927206,0.398096980903317,0.00958064167550088,,
0.13430156709201,0.40136132039236,0.00972566294501398,,
0.134914816256813,0.404683380714875,0.00989007635548012,,
0.135528065421617,0.408216235257668,0.0100538344876879,,
0.136141314586421,0.411422288022715,0.0102022806099726,,
0.136754563751224,0.414388120260225,0.0103671189274341,,
0.137367812916028,0.417353669552473,0.0105105839110844,,
0.137981062080832,0.420330819600467,0.0106706765805353,,
0.138594311245636,0.423071993299856,0.0107822581814361,,
0.139207560410439,0.425661791284013,0.010978206858077,,
0.139820809575243,0.428105023622393,0.011089824294507,,
0.140434058740047,0.430755371892642,0.0112403795936853,,
0.14104730790485,0.433162670182733,0.0113532103187652,,
0.141660557069654,0.43559882888956,0.0115345227411865,,
0.142273806234458,0.437576333326495,0.0116692592136629,,
0.142887055399261,0.43990921701265,0.0117963627183042,,
0.143500304564065,0.441907659398982,0.0119179168351962,,
0.144113553728869,0.443929869187332,0.0120337372673291,,
0.144726802893673,0.445438250379677,0.0121495372220171,,
0.145340052058476,0.447019914394911,0.0122204301385738,,
0.14595330122328,0.44839248186144,0.012381137131392,,
0.146566550388084,0.450051389933232,0.0124959951235835,,
0.147179799552887,0.451554395165597,0.0126086620290988,,
0.147793048717691,0.452873768922849,0.0127116021479696,,
0.148406297882495,0.453763348826944,0.0128276273545582,,
0.149019547047298,0.454857215210288,0.0129151274794705,,
0.149632796212102,0.455743116825977,0.0130255060304441,,
0.150246045376906,0.456581200692367,0.0131044465831089,,
0.15085929454171,0.457168029165998,0.0132084054548969,,
0.151472543706513,0.457866621018164,0.013283823886924,,
0.152085792871317,0.458592941506019,0.0133678018911989,,
0.152699042036121,0.45922532416685,0.0134498345381444,,
0.153312291200924,0.459253901638324,0.0135211984359493,,
0.153925540365728,0.459262107050925,0.0135918661006049,,
0.154538789530532,0.459556653068789,0.0137008265884724,,
0.155152038695335,0.459693315630391,0.0137449913192014,,
0.155765287860139,0.459378114608393,0.0137931798679847,,
0.156378537024943,0.458969824595158,0.0138830144216917,,
0.156991786189747,0.458989064872982,0.0139417386162197,,
0.15760503535455,0.458315372203882,0.014008070181776,,
0.158218284519354,0.457777493260598,0.0140365082343088,,
0.158831533684158,0.456874897874444,0.0141037203300245,,
0.159444782848961,0.456362766950013,0.0141353579834274,,
0.160058032013765,0.455298609819191,0.01419181942022,,
0.160671281178569,0.454310282018616,0.0142258119798631,,
0.161284530343372,0.452944222293116,0.0142755721725933,,
0.161897779508176,0.452132452336102,0.0143085971729331,,
0.16251102867298,0.450996710053965,0.0143482619849986,,
0.163124277837783,0.449241600593053,0.014370546565138,,
0.163737527002587,0.447796882084684,0.0144013600013566,,
0.164350776167391,0.446117884899282,0.0143841384696337,,
0.164964025332195,0.444419364490794,0.0144159604200467,,
0.165577274496998,0.442771491284225,0.0143937219141597,,
0.166190523661802,0.440528867136686,0.01441950301813,,
0.166803772826606,0.438600312230097,0.0144450588701988,,
0.167417021991409,0.436425594945466,0.0144289635979824,,
0.168030271156213,0.434160901067482,0.0144428473060776,,
0.168643520321017,0.43189252890109,0.0144430930354242,,
0.16925676948582,0.429460048482671,0.0144034282233592,,
0.169870018650624,0.426684638406565,0.014455154250864,,
0.170483267815428,0.424260929291272,0.0143978993130558,,
0.171096516980232,0.421702821176472,0.0143669374153568,,
0.171709766145035,0.418754248599951,0.0143207658949622,,
0.172323015309839,0.415599408927347,0.0143104452623959,,
0.172936264474643,0.412337333000401,0.0143005495368249,,
0.173549513639446,0.409584558545265,0.014268870928531,,
0.17416276280425,0.406307769464689,0.0142094044266012,,
0.174776011969054,0.402678147642252,0.0141722788177865,,
0.175389261133857,0.399415505824782,0.0141386343747181,,
0.176002510298661,0.395802860718073,0.0141003261934216,,
0.176615759463465,0.392268025558446,0.0140584446978735,,
0.177229008628269,0.388574175161509,0.0140128977395686,,
0.177842257793072,0.38492022004653,0.013929846339706,,
0.178455506957876,0.380818362581621,0.0138681836317391,,
0.17906875612268,0.376918810979125,0.0138434315194087,,
0.179682005287483,0.37265312820745,0.0137645523990804,,
0.180295254452287,0.368687367413619,0.0137053674620273,,
0.180908503617091,0.364556932477235,0.0136051150078873,,
0.181521752781894,0.359976614574086,0.01356014653742,,
0.182135001946698,0.356034621182273,0.0134390429243303,,
0.182748251111502,0.351225400562071,0.0133807436367976,,
0.183361500276306,0.346698559313462,0.0133324168652571,,
0.183974749441109,0.341886226295376,0.0132036137326339,,
0.184587998605913,0.337406071015017,0.01313534192911,,
0.185201247770717,0.332264955602352,0.0130291868512851,,
0.18581449693552,0.327373680856136,0.0129250795180167,,
0.186427746100324,0.322646231416686,0.0128325214640492,,
0.187040995265128,0.317492383467225,0.012739159670343,,
0.187654244429931,0.312546500285421,0.0126239177260472,,
0.188267493594735,0.307176765100965,0.0124882956040495,,
0.188880742759539,0.302009335778924,0.0124119352095264,,
0.189493991924342,0.296531515504339,0.0122674873084891,,
0.190107241089146,0.291146465907572,0.0121940347112361,,
0.19072049025395,0.285670095727456,0.0120480100468905,,
0.191333739418754,0.280195953741279,0.0119235071778365,,
0.191946988583557,0.274532273797642,0.0117880079205124,,
0.192560237748361,0.268897383534425,0.0116538806520414,,
0.193173486913165,0.263147334549526,0.0115387154981663,,
0.193786736077968,0.257274558057185,0.0114055916245284,,
0.194399985242772,0.251399482634588,0.0112731588646784,,
0.195013234407576,0.24553314314696,0.0111283065340908,,
0.195626483572379,0.239406034232133,0.0110078786767049,,
0.196239732737183,0.233376435328262,0.0108557926884711,,
0.196852981901987,0.227203666121761,0.0107132696673169,,
0.197466231066791,0.221259622791524,0.010530119394156,,
0.198079480231594,0.21494622978975,0.0103905246477187,,
0.198692729396398,0.208768650513793,0.0102282818464827,,
0.199305978561202,0.202289239379473,0.0100979275473576,,
0.199919227726005,0.196156117877826,0.00993248514525158,,
0.200532476890809,0.189562361489452,0.00977779852143046,,
0.201145726055613,0.183213105175705,0.00958801355590522,,
0.201758975220416,0.176560177859392,0.0094213681038724,,
0.20237222438522,0.170150901781919,0.0092556236594441,,
0.202985473550024,0.163682773089925,0.00907872412654287,,
0.203598722714828,0.156863509327644,0.00891494039752816,,
0.204211971879631,0.150240857154377,0.00874477794421846,,
0.204825221044435,0.143557159540808,0.00854866032865154,,
0.205438470209239,0.1368411707992,0.00836073369131185,,
0.206051719374042,0.130035771354763,0.00818655765867149,,
0.206664968538846,0.123204871468578,0.00801833544332942,,
0.20727821770365,0.116377473030011,0.00782635939112897,,
