Time domain (s),Current (AC) (A),Potential (AC) (V),Frequency (Hz),Column 5
0,0.229039881470591,0.00348564926337769,125.89,0.4
0.000242414632814362,0.280816712186055,0.0046282583781756,,
0.000484829265628723,0.32241551495348,0.00561061071769142,,
0.000727243898443085,0.352017550982087,0.00636994582399053,,
0.000969658531257447,0.368706048076136,0.00688100834105354,,
0.00121207316407181,0.372351045962812,0.00717171779210313,,
0.00145448779688617,0.361902287030541,0.00720501649261873,,
0.00169690242970053,0.338505442762076,0.00698057565860655,,
0.00193931706251489,0.302726416117518,0.0064396480305664,,
0.00218173169532926,0.255883140568721,0.00572553936573472,,
0.00242414632814362,0.199642039351642,0.00476836781267354,,
0.00266656096095798,0.135992996950869,0.00363621199514652,,
0.00290897559377234,0.0672097012406036,0.00240611244287869,,
0.0031513902265867,-0.00374528820570573,0.00105099362454641,,
0.00339380485940106,-0.0750993532185085,-0.000334442806444457,,
0.00363621949221543,-0.143694876310369,-0.00170056910950045,,
0.00387863412502979,-0.206695527404286,-0.00298652804536914,,
0.00412104875784415,-0.262055783508276,-0.0041943651928138,,
0.00436346339065851,-0.307847626397822,-0.00522413021787616,,
0.00460587802347287,-0.342657708729887,-0.00608714413640765,,
0.00484829265628724,-0.364529576126227,-0.00671520969124506,,
0.0050907072891016,-0.372951142810242,-0.00707266907198223,,
0.00533312192191596,-0.367790333423303,-0.00719985763449715,,
0.00557553655473032,-0.349555943608522,-0.00706297502846898,,
0.00581795118754468,-0.317953212656721,-0.00663878266567242,,
0.00606036582035904,-0.275163969090136,-0.00601638439781249,,
0.00630278045317341,-0.221933310639246,-0.00513254523335593,,
0.00654519508598777,-0.160716851934475,-0.00407878067154677,,
0.00678760971880213,-0.0936183395800826,-0.00289800719208522,,
0.00703002435161649,-0.0231081938071932,-0.00157112990191832,,
0.00727243898443085,0.0481925240411817,-0.000215253524591397,,
0.00751485361724521,0.118123606320017,0.00116219718384114,,
0.00775726825005958,0.183580547696771,0.00251541786777931,,
0.00799968288287394,0.242133672718436,0.00374768671649761,,
0.0082420975156883,0.291529151816512,0.0048783104684067,,
0.00848451214850266,0.330315595479498,0.00577901591276575,,
0.00872692678131702,0.356769678787793,0.00649180605209887,,
0.00896934141413138,0.370768961773702,0.00698800549894996,,
0.00921175604694575,0.370896336941631,0.00717914763244609,,
0.00945417067976011,0.357712067022839,0.00715224835645989,,
0.00969658531257447,0.331319556212694,0.00684212031265208,,
0.00993899994538883,0.292669888099035,0.00628874634622711,,
0.0101814145782032,0.243637968751487,0.00550827415763777,,
0.0104238292110176,0.185616464674013,0.00451434319831767,,
0.0106662438438319,0.120375937702732,0.00335197992771707,,
0.0109086584766463,0.0508565921290842,0.00209027643778548,,
0.0111510731094606,-0.0202930145883344,0.000724419602023296,,
0.011393487742275,-0.0914255243620872,-0.000654683500190156,,
0.0116359023750894,-0.15882244007345,-0.00201426462911147,,
0.0118783170079037,-0.220333365725481,-0.00328475038014187,,
0.0121207316407181,-0.273590521501434,-0.00446192079377994,,
0.0123631462735324,-0.317046545870982,-0.00545625849618503,,
0.0126055609063468,-0.34855127784672,-0.00623934570385476,,
0.0128479755391612,-0.367981631184731,-0.00683091454067464,,
0.0130903901719755,-0.373088388378638,-0.0071256270215807,,
0.0133328048047899,-0.364940314040891,-0.00718048310557329,,
0.0135752194376043,-0.343157103991602,-0.00699906213179569,,
0.0138176340704186,-0.309145819068744,-0.00655541389145853,,
0.014060048703233,-0.263757017531594,-0.00582118669681098,,
0.0143024633360473,-0.20853071686251,-0.00491591386656554,,
0.0145448779688617,-0.145615139220236,-0.00384873017249454,,
0.0147872926016761,-0.0774442783579837,-0.00257651745811804,,
0.0150297072344904,-0.00660506048381648,-0.00130202867723117,,
0.0152721218673048,0.0646817330496142,9.8726715178632E-05,,
0.0155145365001192,0.133775946374584,0.00149403513978275,,
0.0157569511329335,0.197708175264941,0.0028259255384655,,
0.0159993657657479,0.25428672079798,0.00403530830963117,,
0.0162417803985622,0.301653832600123,0.00511223180581277,,
0.0164841950313766,0.337663403598442,0.00596743286759649,,
0.016726609664191,0.36154624758513,0.00664663958625455,,
0.0169690242970053,0.372266912549309,0.00706860842018964,,
0.0172114389298197,0.369109089428531,0.00723430199470076,,
0.017453853562634,0.352549847578691,0.00711907167886983,,
0.0176962681954484,0.323764939703016,0.00675479257241607,,
0.0179386828282628,0.282278471493285,0.00613421109033307,,
0.0181810974610771,0.230893666058266,0.00528994802799598,,
0.0184235120938915,0.170934243979614,0.00427906944015577,,
0.0186659267267059,0.104494698361149,0.00305611500807146,,
0.0189083413595202,0.0343716132922803,0.00176611575756347,,
0.0191507559923346,-0.0369086587265562,0.000409383524996088,,
0.0193931706251489,-0.107545239629235,-0.000986531624708409,,
0.0196355852579633,-0.173814873353949,-0.00232878380346868,,
0.0198779998907777,-0.233357829160524,-0.00358041362300776,,
0.020120414523592,-0.285065978339406,-0.00472085344135564,,
0.0203628291564064,-0.325570165445538,-0.0056589521332806,,
0.0206052437892207,-0.354382804446333,-0.0063967146032371,,
0.0208476584220351,-0.370017518785781,-0.00689825763736041,,
0.0210900730548495,-0.372725768666249,-0.00716433371035707,,
0.0213324876876638,-0.361263354857465,-0.00716333210551134,,
0.0215749023204782,-0.336469731418178,-0.00688738573366487,,
0.0218173169532926,-0.299456845962883,-0.00637556396284467,,
0.0220597315861069,-0.25148035443668,-0.00564416024310832,,
0.0223021462189213,-0.19449189352235,-0.00467683028151278,,
0.0225445608517356,-0.130217784511062,-0.00354510832327559,,
0.02278697548455,-0.0612006543135471,-0.00226264568317047,,
0.0230293901173644,0.00997057328108445,-0.000912382360409136,,
0.0232718047501787,0.0810630433053245,0.000429503749574955,,
0.0235142193829931,0.149256729468656,0.00182095828345341,,
0.0237566340158075,0.211671501792006,0.00310024324321123,,
0.0239990486486218,0.265913582528827,0.00426944318715661,,
0.0242414632814362,0.310925193762424,0.00530962083518149,,
0.0244838779142505,0.344168232515614,0.00616150355130118,,
0.0247262925470649,0.365144243564822,0.00677557714403232,,
0.0249687071798793,0.372395932783983,0.00711135711836741,,
0.0252111218126936,0.366471107399005,0.00720452840091745,,
0.025453536445508,0.347187400010787,0.0070539927853539,,
0.0256959510783223,0.314707907236566,0.00663272897276546,,
0.0259383657111367,0.271205527236254,0.00595866077507479,,
0.0261807803439511,0.217857422770285,0.00507116092285775,,
0.0264231949767654,0.155958496376094,0.00399322395849122,,
0.0266656096095798,0.0885196902151313,0.00277382174934449,,
0.0269080242423942,0.0179014400561767,0.00146021784183459,,
0.0271504388752085,-0.0535254779124526,0.000107078506513147,,
0.0273928535080229,-0.123331770128244,-0.00129474797601903,,
0.0276352681408372,-0.188361728556232,-0.00260155927401851,,
0.0278776827736516,-0.246179714376462,-0.00385986137490635,,
0.028120097406466,-0.295104469376084,-0.00491870514098292,,
0.0283625120392803,-0.333051870247006,-0.00585685806531933,,
0.0286049266720947,-0.359207080179261,-0.00654924495467712,,
0.028847341304909,-0.37202332516636,-0.0069959844424563,,
0.0290897559377234,-0.370859087930345,-0.00720255400219427,,
0.0293321705705378,-0.35635077429179,-0.00714270853636556,,
0.0295745852033521,-0.328883799887971,-0.00681498376986589,,
0.0298169998361665,-0.289189925658259,-0.0062382627503923,,
0.0300594144689809,-0.2390558703443,-0.00544989805120144,,
0.0303018291017952,-0.180157075672953,-0.00442727984108604,,
0.0305442437346096,-0.114504518234566,-0.00326240662670152,,
0.0307866583674239,-0.0447617373455885,-0.00198184551051606,,
0.0310290730002383,0.0265208847685973,-0.000635417436088748,,
0.0312714876330527,0.0972437141705932,0.000762234845539389,,
0.031513902265867,0.16440497407081,0.00210379047676712,,
0.0317563168986814,0.224990667183844,0.00339165093655591,,
0.0319987315314958,0.277609067043873,0.0045506246814524,,
0.0322411461643101,0.31982406481187,0.00550883003985359,,
0.0324835607971245,0.350218788001776,0.00631087317002255,,
0.0327259754299388,0.368119229267429,0.00685641394254555,,
0.0329683900627532,0.372325194913971,0.00714538795643493,,
0.0332108046955676,0.363308114068458,0.00719675960800403,,
0.0334532193283819,0.340574701717085,0.00695446275258371,,
0.0336956339611963,0.305846637712709,0.00647523466093203,,
0.0339380485940106,0.25955116938982,0.00577542301551981,,
0.034180463226825,0.204250840717235,0.00486957905019336,,
0.0344228778596394,0.14076301485742,0.00371189332506416,,
0.0346652924924537,0.0723752401944328,0.00248243100362844,,
0.0349077071252681,0.00143364629161417,0.00115029316956905,,
0.0351501217580825,-0.0700064615871627,-0.000237936230602198,,
0.0353925363908968,-0.138795867545336,-0.00162537587128408,,
0.0356349510237112,-0.202323175007018,-0.00293277016770466,,
0.0358773656565255,-0.258557725333311,-0.00412569170728938,,
0.0361197802893399,-0.304845673351082,-0.00516260354729825,,
0.0363621949221543,-0.340486455636721,-0.00604575294327425,,
0.0366046095549686,-0.363212817702046,-0.00666626324531716,,
0.036847024187783,-0.37266184607275,-0.00704623246625458,,
0.0370894388205973,-0.369035883958402,-0.00720861447415322,,
0.0373318534534117,-0.351484196842576,-0.00708310881115048,,
0.0375742680862261,-0.320860163098967,-0.00668250754725319,,
0.0378166827190404,-0.278219269301304,-0.00603136610142396,,
0.0380590973518548,-0.22622387971836,-0.00520781982018903,,
0.0383015119846692,-0.165322275038004,-0.0041575278274637,,
0.0385439266174835,-0.0986332080458334,-0.00296044225555203,,
0.0387863412502979,-0.0282043755720279,-0.00165388856150583,,
0.0390287558831122,0.043080831647042,-0.000304777677483603,,
0.0392711705159266,0.113175686195528,0.00106902590129154,,
0.039513585148741,0.178978150341005,0.00240176368140022,,
0.0397559997815553,0.238016041280835,0.00366686686561302,,
0.0399984144143697,0.288236668232222,0.00479153861038562,,
0.040240829047184,0.327859980849073,0.00573404029620006,,
0.0404832436799984,0.355382182493599,0.00645848023537754,,
0.0407256583128128,0.370410337223407,0.00696331619372215,,
0.0409680729456271,0.371377166450086,0.00716953493755002,,
0.0412104875784415,0.359003914436318,0.00717833414627744,,
0.0414529022112559,0.333580582948202,0.00688394705983875,,
0.0416953168440702,0.296016658885893,0.00633148148630225,,
0.0419377314768846,0.247492125124247,0.00558337248913432,,
0.0421801461096989,0.189988317676019,0.00458574016774538,,
0.0424225607425133,0.12522888459892,0.00345855000537476,,
0.0426649753753277,0.056023746773466,0.00217339777662318,,
0.042907390008142,-0.0151705705079719,0.00082451907511194,,
0.0431498046409564,-0.0863240548827167,-0.00056395267614695,,
0.0433922192737708,-0.154213903093583,-0.00191399906926337,,
0.0436346339065851,-0.216172345652494,-0.00319387211173083,,
0.0438770485393995,-0.270172777835029,-0.00436941385826817,,
0.0441194631722138,-0.314329189371036,-0.0053725355165346,,
0.0443618778050282,-0.346667676424302,-0.0062018999186404,,
0.0446042924378426,-0.366528802239829,-0.00679307218095282,,
0.0448467070706569,-0.372938217285821,-0.00712780987613426,,
0.0450891217034713,-0.366005671015087,-0.00720862803225586,,
0.0453315363362856,-0.345293340664064,-0.00699999764088988,,
0.0455739509691,-0.311969693640395,-0.00657453081642867,,
0.0458163656019144,-0.267080052355424,-0.00589277517444087,,
0.0460587802347287,-0.212829805037265,-0.00498344677669094,,
0.0463011948675431,-0.150391414255655,-0.0039179290345035,,
0.0465436095003575,-0.0824673134050731,-0.00267230545451147,,
0.0467860241331718,-0.0116887867433001,-0.00133935243951999,,
0.0470284387659862,0.0595446596257027,-9.56185201061999E-06,,
0.0472708533988005,0.128971176433056,0.00138925473169671,,
0.0475132680316149,0.193516339566687,0.00272304665429957,,
0.0477556826644293,0.250583205537107,0.00393907289584483,,
0.0479980972972436,0.298558992034704,0.00501638618748235,,
0.048240511930058,0.335670052723214,0.0059086618814157,,
0.0484829265628723,0.360121149765349,0.00659820665347111,,
0.0487253411956867,0.371796188450856,0.00702424630777632,,
0.0489677558285011,0.369933267867511,0.00722025580018348,,
0.0492101704613154,0.354202669637814,0.00713698193268941,,
0.0494525850941298,0.326025496419453,0.00677857687428052,,
0.0496949997269442,0.285797269259707,0.00617989172824496,,
0.0499374143597585,0.23469750101436,0.00537323545359314,,
0.0501798289925729,0.175340878392789,0.00432516698972929,,
0.0504222436253872,0.109560828281705,0.00314571034100375,,
0.0506646582582016,0.0395119768496807,0.00186862857295367,,
0.050907072891016,-0.0317527845398507,0.000501985367228119,,
0.0511494875238303,-0.102441243797364,-0.000884683156356481,,
0.0513919021566447,-0.169036013213646,-0.00224235089801805,,
0.0516343167894591,-0.229441924032463,-0.00347665346215909,,
0.0518767314222734,-0.281405998594878,-0.00462436042361558,,
0.0521191460550878,-0.322912207605543,-0.00560287582003438,,
0.0523615606879021,-0.352702721281159,-0.00634466674129008,,
0.0526039753207165,-0.369311315133333,-0.0068956138073113,,
0.0528463899535309,-0.37281789240394,-0.00717160254822913,,
0.0530888045863452,-0.362306385925843,-0.0071888348969078,,
0.0533312192191596,-0.338738454715954,-0.00695345267392344,,
0.0535736338519739,-0.302672951448323,-0.00644880652901803,,
0.0538160484847883,-0.255385037859449,-0.00570311087415165,,
0.0540584631176027,-0.198794506840129,-0.00476022617193239,,
0.054300877750417,-0.135075666607483,-0.00362248441604507,,
0.0545432923832314,-0.066246309028373,-0.00234248935065251,,
0.0547857070160458,0.00479448827437551,-0.00103803885730569,,
0.0550281216488601,0.0760256139242209,0.000346812880501535,,
0.0552705362816745,0.144360775827577,0.00171829632893239,,
0.0555129509144888,0.207443709634909,0.00299320541100645,,
0.0557553655473032,0.262611463553605,0.00419507699321198,,
0.0559977801801176,0.307992744785638,0.00523339718115112,,
0.0562401948129319,0.342432687100197,0.00610248512974421,,
0.0564826094457463,0.364006092387183,0.00673119130493927,,
0.0567250240785607,0.372459385358412,0.00709831422345886,,
0.056967438711375,0.367592337890129,0.00719802051156604,,
0.0572098533441894,0.348737992922218,0.00705986344387322,,
0.0574522679770037,0.317349414409116,0.00667345412409848,,
0.0576946826098181,0.274946174003645,0.00599785725031499,,
0.0579370972426325,0.221848824711441,0.00516922668052411,,
0.0581795118754468,0.16065677762211,0.00410617651304923,,
0.0584219265082612,0.0935120271417212,0.00288898427466178,,
0.0586643411410755,0.0230244129079927,0.00155461274316337,,
0.0589067557738899,-0.0484057951941255,0.000195314639638067,,
0.0591491704067043,-0.118394396056634,-0.00118091414477783,,
0.0593915850395186,-0.183849545485684,-0.00253169437020917,,
0.059633999672333,-0.242481545582508,-0.00378896436052001,,
0.0598764143051473,-0.291752293369923,-0.00485815634857056,,
0.0601188289379617,-0.330852416009649,-0.00579427555748468,,
0.0603612435707761,-0.357837679619256,-0.00649498542720872,,
0.0606036582035904,-0.371416295537651,-0.00698031297036428,,
0.0608460728364048,-0.371312186313679,-0.0071869350677507,,
0.0610884874692192,-0.358170923139779,-0.00712763362079727,,
0.0613309021020335,-0.331244411913902,-0.00682924689402808,,
0.0615733167348479,-0.29255438091262,-0.00630190279024667,,
0.0618157313676622,-0.242947158223577,-0.00547312308132497,,
0.0620581460004766,-0.18445399000951,-0.00450635069670735,,
0.062300560633291,-0.119424501600591,-0.00334279600782184,,
0.0625429752661053,-0.0498992807885698,-0.00209380832356842,,
0.0627853898989197,0.0213422146570042,-0.00074019445464879,,
0.0630278045317341,0.0922076948466992,0.000646704556683364,,
0.0632702191645484,0.159555317308111,0.00200641618234432,,
0.0635126337973628,0.22080937753847,0.00329201582848881,,
0.0637550484301771,0.274131395946062,0.004459934531718,,
0.0639974630629915,0.317183732686994,0.00543535868069478,,
0.0642398776958059,0.348425430240768,0.00625194965518494,,
0.0644822923286202,0.366984133213745,0.00680696415205073,,
0.0647247069614346,0.372224845842558,0.00712610833423089,,
0.0649671215942489,0.364201385310706,0.00720642653531156,,
0.0652095362270633,0.342618344632788,0.00699577429186338,,
0.0654519508598777,0.308657116740869,0.00652433194075375,,
0.065694365492692,0.263364669113038,0.00584325420390686,,
0.0659367801255064,0.208396173903766,0.00489520386451492,,
0.0661791947583208,0.14554401945973,0.00380618654062204,,
0.0664216093911351,0.0773661376876213,0.00257120946086609,,
0.0666640240239495,0.0064858518972261,0.00122967586155509,,
0.0669064386567638,-0.0649147450034916,-0.000121795827119353,,
0.0671488532895782,-0.134089742856092,-0.00149931093654043,,
0.0673912679223926,-0.197831672775544,-0.00282225637689093,,
0.0676336825552069,-0.254550048981862,-0.00404742247449663,,
0.0678760971880213,-0.301977264472563,-0.00511254703170261,,
0.0681185118208357,-0.338109334190962,-0.00598267895421234,,
0.06836092645365,-0.361916975126473,-0.00663617950993167,,
0.0686033410864644,-0.372634819976233,-0.00705730774149194,,
0.0688457557192787,-0.369572410726634,-0.00719436660285666,,
0.0690881703520931,-0.35264966787865,-0.00708983363014726,,
0.0693305849849075,-0.323261960545894,-0.00678088344652172,,
0.0695729996177218,-0.281839121167744,-0.00610254614120631,,
0.0698154142505362,-0.230083206300888,-0.00530284856282481,,
0.0700578288833505,-0.170065766243301,-0.00425449537880196,,
0.0703002435161649,-0.103613060090881,-0.00306715808281455,,
0.0705426581489793,-0.0333367488052409,-0.00177010861884241,,
0.0707850727817936,0.0379474889994974,-0.000402990879518228,,
0.071027487414608,0.108349794772048,0.00100347247417698,,
0.0712699020474224,0.174560206093962,0.00233616619045218,,
0.0715123166802367,0.233947115569346,0.00359799170330888,,
0.0717547313130511,0.284710115151147,0.0047285747809096,,
0.0719971459458654,0.325454423249587,0.00566443638587,,
0.0722395605786798,0.354018657171968,0.00641894480756688,,
0.0724819752114942,0.369854069654241,0.00693982339106825,,
0.0727243898443085,0.371796188450856,0.00720412165783291,,
0.0729668044771229,0.360624070170087,0.00719364124435629,,
0.0732092191099372,0.335833384349987,0.0069214623303302,,
0.0734516337427516,0.299012795446643,0.00637792815702332,,
0.073694048375566,0.251467311407492,0.0056455058848135,,
0.0739364630083803,0.194173631859679,0.00467886738646106,,
0.0741788776411947,0.130182885595126,0.00354694544620759,,
0.0744212922740091,0.0610654063261982,0.00224278814683432,,
0.0746637069068234,-0.0100155776070225,0.000909975797159568,,
0.0749061215396378,-0.0813083051312099,-0.00044038243232114,,
0.0751485361724521,-0.149516062490445,-0.00181737216525812,,
0.0753909508052665,-0.211845291343083,-0.0031230310245185,,
0.0756333654380809,-0.266354107902043,-0.0043001048366742,,
0.0758757800708952,-0.311328587629122,-0.00530088263791617,,
0.0761181947037096,-0.344852462776546,-0.00614612188365626,,
0.0763606093365239,-0.36575203697452,-0.00676125300840713,,
0.0766030239693383,-0.373084393216544,-0.00712687436703963,,
0.0768454386021527,-0.366986365804327,-0.00720303023055591,,
0.077087853234967,-0.347208198354628,-0.00703219813507738,,
0.0773302678677814,-0.314716720094126,-0.00661299515411695,,
0.0775726825005958,-0.271005416617266,-0.00595007171694029,,
0.0778150971334101,-0.216877785523953,-0.00504575981723221,,
0.0780575117662245,-0.155073332962802,-0.00397350369794536,,
0.0782999263990388,-0.0875874661424701,-0.00277733838226224,,
0.0785423410318532,-0.016814638461919,-0.00146036020191342,,
0.0787847556646676,0.0544247712740325,-8.9581774829206E-05,,
0.0790271702974819,0.124146430681059,0.00127419728167633,,
0.0792695849302963,0.188994697362359,0.00260679948075726,,
0.0795119995631107,0.246573002833157,0.00386977743235351,,
0.079754414195925,0.29560656724745,0.00494552137358983,,
0.0799968288287394,0.333099518430211,0.00586725543541666,,
