Time domain (s),Current (AC) (A),Potential (AC) (V),Frequency (Hz),Column 5
0,-0.243024182598649,-0.00423005689847678,25.119,0.4
0.000242984021059756,-0.25302037191904,-0.00445802114445781,,
0.000485968042119511,-0.262393962229033,-0.00468164849230091,,
0.000728952063179267,-0.271913023441144,-0.00497351377161603,,
0.000971936084239022,-0.280750792011509,-0.00522934161364619,,
0.00121492010529878,-0.289330285102992,-0.00545261645081618,,
0.00145790412635853,-0.297075729355029,-0.00568505656548979,,
0.00170088814741829,-0.304325949764597,-0.00589949151962355,,
0.00194387216847804,-0.311858769139911,-0.00610467984763741,,
0.0021868561895378,-0.318245388261015,-0.00628646689019075,,
0.00242984021059756,-0.324469145774417,-0.00649383807275816,,
0.00267282423165731,-0.330064487791431,-0.0066443330140129,,
0.00291580825271707,-0.335590266986107,-0.00686915347490391,,
0.00315879227377682,-0.340253796197146,-0.00701802144382091,,
0.00340177629483658,-0.344492898188112,-0.00714903339132933,,
0.00364476031589633,-0.348230254822014,-0.00728351621315904,,
0.00388774433695609,-0.351231561592533,-0.00742755749747337,,
0.00413072835801584,-0.353803564695129,-0.00755474605998829,,
0.0043737123790756,-0.356028576219409,-0.00764361942394531,,
0.00461669640013536,-0.357564833549209,-0.00772094128430378,,
0.00485968042119511,-0.358853860848269,-0.00782632841749065,,
0.00510266444225487,-0.359695900011903,-0.00789689834264662,,
0.00534564846331462,-0.359647723057244,-0.00795495413890368,,
0.00558863248437438,-0.359086285278309,-0.00800669016448596,,
0.00583161650543413,-0.357988555740678,-0.00802706968778066,,
0.00607460052649389,-0.35645470725861,-0.00808705073463756,,
0.00631758454755364,-0.354630034477074,-0.00808649315765919,,
0.0065605685686134,-0.352107207119661,-0.00810077153468702,,
0.00680355258967316,-0.348571253657189,-0.00807534839714474,,
0.00704653661073291,-0.344939886323538,-0.00803639766251818,,
0.00728952063179267,-0.341065989149845,-0.00800505132880813,,
0.00753250465285242,-0.336439121426254,-0.00797845033108358,,
0.00777548867391218,-0.331250052142741,-0.00791270709052982,,
0.00801847269497193,-0.325705530937654,-0.00786292173699055,,
0.00826145671603169,-0.319714197854292,-0.00777730401247156,,
0.00850444073709144,-0.313034286833603,-0.00767039667700642,,
0.0087474247581512,-0.306197389443583,-0.00757424261183726,,
0.00899040877921095,-0.298569214949474,-0.00744396280188075,,
0.00923339280027071,-0.290745042503237,-0.00730201116016271,,
0.00947637682133047,-0.282358022220856,-0.00716096452180714,,
0.00971936084239022,-0.273660319333306,-0.0070027956943588,,
0.00996234486344998,-0.264506697948003,-0.00688313187890666,,
0.0102053288845097,-0.255015132851478,-0.00672409533287821,,
0.0104483129055695,-0.244972059128869,-0.00655223451634823,,
0.0106912969266292,-0.234852019783573,-0.00636614786043932,,
0.010934280947689,-0.22425585112052,-0.00616087818380873,,
0.0111772649687488,-0.213306110612173,-0.00594895147869545,,
0.0114202489898085,-0.202007087182545,-0.00572453945565199,,
0.0116632330108683,-0.190577868470569,-0.00551477865746364,,
0.011906217031928,-0.178871103497847,-0.00529413578700266,,
0.0121492010529878,-0.166562009087114,-0.00503874180426234,,
0.0123921850740475,-0.154293571325923,-0.00481073518920994,,
0.0126351690951073,-0.141729256560262,-0.00455951710213665,,
0.012878153116167,-0.128894152057984,-0.00429719492885727,,
0.0131211371372268,-0.116029083840004,-0.00402470248370346,,
0.0133641211582866,-0.102842170063945,-0.0037682526637064,,
0.0136071051793463,-0.0895270585865845,-0.00347617045474635,,
0.0138500892004061,-0.076144675629852,-0.00321641076289936,,
0.0140930732214658,-0.0626140016565822,-0.00292941453725826,,
0.0143360572425256,-0.0491065936272699,-0.00262229469751274,,
0.0145790412635853,-0.0353674661965223,-0.00231500029719367,,
0.0148220252846451,-0.0215564258480877,-0.0020291819317344,,
0.0150650093057048,-0.00779802763547624,-0.0017367065377929,,
0.0153079933267646,0.00601862356560462,-0.0014312950190023,,
0.0155509773478244,0.0197833964118509,-0.00113437426210039,,
0.0157939613688841,0.0335704657877232,-0.000815297870434328,,
0.0160369453899439,0.0473041879991676,-0.000482473562513075,,
0.0162799294110036,0.0609685823978093,-0.000182188701349784,,
0.0165229134320634,0.0745464932875989,0.000121375525932166,,
0.0167658974531231,0.0879173607771201,0.000440955262165588,,
0.0170088814741829,0.10118837859049,0.000724333169117575,,
0.0172518654952426,0.114365803856577,0.00105403911339108,,
0.0174948495163024,0.127418233426276,0.00134685345990304,,
0.0177378335373622,0.140176901077319,0.00163349886963404,,
0.0179808175584219,0.152791037864384,0.00193557340036898,,
0.0182238015794817,0.165188025841178,0.00222527955181029,,
0.0184667856005414,0.177361754759795,0.00254640660652727,,
0.0187097696216012,0.189209055434402,0.00285311800842525,,
0.0189527536426609,0.200596677458696,0.00310511907593591,,
0.0191957376637207,0.211941057728565,0.00340554290765338,,
0.0194387216847804,0.223056068692347,0.00369306959406712,,
0.0196817057058402,0.233602826600682,0.00397029212234079,,
0.0199246897269,0.243825741369892,0.00424397598577997,,
0.0201676737479597,0.253781450297892,0.00449489579459117,,
0.0204106577690195,0.263253039583949,0.00476080747559093,,
0.0206536417900792,0.27241324123623,0.00500068082013305,,
0.020896625811139,0.281318692552654,0.00526578240448927,,
0.0211396098321987,0.289580687762454,0.00545806341862232,,
0.0213825938532585,0.297309916356581,0.00568222970105259,,
0.0216255778743182,0.305094372191416,0.00592830248810694,,
0.021868561895378,0.311960410763766,0.00611585172435758,,
0.0221115459164378,0.318230700165082,0.00631731835314842,,
0.0223545299374975,0.324668786374335,0.00650146450559186,,
0.0225975139585573,0.330366592548576,0.00668775622780604,,
0.022840497979617,0.335284872095473,0.00686399800630833,,
0.0230834820006768,0.340196806384927,0.00702701046598753,,
0.0233264660217365,0.344176222839801,0.00716963831808393,,
0.0235694500427963,0.347924624921845,0.00730482277173383,,
0.023812434063856,0.351026750782846,0.00742600848422681,,
0.0240554180849158,0.353705859480984,0.00754674338980132,,
0.0242984021059756,0.355781463693436,0.00765110349669973,,
0.0245413861270353,0.357025604171325,0.00773362827901369,,
0.0247843701480951,0.358282670173636,0.0078015679322232,,
0.0250273541691548,0.359024360265857,0.00792519071369746,,
0.0252703381902146,0.358918135956071,0.00793614566077272,,
0.0255133222112743,0.358661740553469,0.00802789334252685,,
0.0257563062323341,0.357653549648643,0.00806357826913784,,
0.0259992902533938,0.356103426756282,0.00809416534909024,,
0.0262422742744536,0.353640526830275,0.0080737875205581,,
0.0264852582955134,0.351034271087964,0.00810560838786678,,
0.0267282423165731,0.347838376422527,0.00807935990081532,,
0.0269712263376329,0.344371750772858,0.00807723127867321,,
0.0272142103586926,0.340706072047108,0.00799786214478981,,
0.0274571943797524,0.335912112544186,0.0079870292206401,,
0.0277001784008121,0.33055671526233,0.00792248248265981,,
0.0279431624218719,0.3252741709363,0.00785862042887198,,
0.0281861464429316,0.318836789755652,0.00775442640873303,,
0.0284291304639914,0.312427609719195,0.00768385648357706,,
0.0286721144850512,0.305402704701237,0.00758332654072369,,
0.0289150985061109,0.298121874299745,0.0074548194527102,,
0.0291580825271707,0.29006057723277,0.00733393540800487,,
0.0294010665482304,0.281915381761827,0.00718802310550171,,
0.0296440505692902,0.272968803776791,0.00705077443069779,,
0.0298870345903499,0.263818002505907,0.00688474190361621,,
0.0301300186114097,0.254351348420084,0.0067161502846278,,
0.0303730026324694,0.244456976980699,0.00653511910630611,,
0.0306159866535292,0.23433958149267,0.00635452517680024,,
0.030858970674589,0.2236990547799,0.00614315435390278,,
0.0311019546956487,0.212764501762748,0.00593489172607553,,
0.0313449387167085,0.201483368433966,0.00572194477372578,,
0.0315879227377682,0.189907268762662,0.00549126382289256,,
0.031830906758828,0.178166691793103,0.00527132766854121,,
0.0320738907798877,0.165979302945269,0.00504912392149359,,
0.0323168748009475,0.15378727265912,0.00480232238641287,,
0.0325598588220072,0.141092527601576,0.00453379399156928,,
0.032802842843067,0.128400073886998,0.0043042010784875,,
0.0330458268641268,0.115393030533731,0.0039987336325229,,
0.0332888108851865,0.10219395501424,0.00372729024557428,,
0.0335317949062463,0.0889001706521738,0.00346793729681139,,
0.033774778927306,0.0754717258265961,0.00317560087342406,,
0.0340177629483658,0.0619899632127825,0.0028606156392823,,
0.0342607469694255,0.0482999233986421,0.00259894425493812,,
0.0345037309904853,0.0345361199667274,0.002284436943921,,
0.034746715011545,0.0207833619829541,0.00197237009141071,,
0.0349896990326048,0.0070040479217343,0.00170234691573246,,
0.0352326830536646,-0.00684012877112457,0.00139479830098521,,
0.0354756670747243,-0.0205968819169916,0.00107290860298503,,
0.0357186510957841,-0.0343082782226182,0.000763965198411043,,
0.0359616351168438,-0.0480720816545329,0.000455381083561246,,
0.0362046191379036,-0.0616239652383296,0.000141741491124669,,
0.0364476031589633,-0.0751978222136418,-0.000145676730466615,,
0.0366905871800231,-0.0885639307600808,-0.000467003767200325,,
0.0369335712010828,-0.101866234217788,-0.000764712588828598,,
0.0371765552221426,-0.115098916100774,-0.00108923933782679,,
0.0374195392432024,-0.128077787686041,-0.00137837943847563,,
0.0376625232642621,-0.140985451382226,-0.00170309600091301,,
0.0379055072853219,-0.15355123495748,-0.00198578244462144,,
0.0381484913063816,-0.165978950430966,-0.00229902885207656,,
0.0383914753274414,-0.178151034282838,-0.0026106211709882,,
0.0386344593485011,-0.189955093203019,-0.00287737853865133,,
0.0388774433695609,-0.201643997451087,-0.00316556787734035,,
0.0391204273906206,-0.212994781730782,-0.00345041005939661,,
0.0393634114116804,-0.223864560244871,-0.00373839602654291,,
0.0396063954327402,-0.234663777146098,-0.00397787449134057,,
0.0398493794537999,-0.244593635025257,-0.00426675868279869,,
0.0400923634748597,-0.254621491880479,-0.00451772933449579,,
0.0403353474959194,-0.264234321897025,-0.0047722166191102,,
0.0405783315169792,-0.273178314777176,-0.00505879423832711,,
0.0408213155380389,-0.282067315426155,-0.00526348091653661,,
0.0410642995590987,-0.290412269001784,-0.00547428229911562,,
0.0413072835801584,-0.298226806057089,-0.00571755703270194,,
0.0415502676012182,-0.305591299853013,-0.00594142673163267,,
0.041793251622278,-0.312848864310547,-0.00614809289285345,,
0.0420362356433377,-0.319260394442353,-0.00634273301687616,,
0.0422792196643975,-0.325554419806698,-0.00651229234545303,,
0.0425222036854572,-0.331130902308534,-0.00668873580073459,,
0.042765187706517,-0.335999242329259,-0.00684371847402154,,
0.0430081717275767,-0.340856830663762,-0.00702682065254834,,
0.0432511557486365,-0.344988533297267,-0.00716939596699584,,
0.0434941397696962,-0.348658207185111,-0.00731592177365137,,
0.043737123790756,-0.351626612620741,-0.00741942263578421,,
0.0439801078118158,-0.354194385551708,-0.00753801536111354,,
0.0442230918328755,-0.35651674977583,-0.00765042559155882,,
0.0444660758539353,-0.358117810984886,-0.00773790077616354,,
0.044709059874995,-0.358796048502678,-0.00784056442544712,,
0.0449520438960548,-0.359319414736954,-0.007911581767996,,
0.0451950279171145,-0.359539383661644,-0.00794795815785099,,
0.0454380119381743,-0.358912848241535,-0.00800933568929763,,
0.045680995959234,-0.357946254024391,-0.00801942291779278,,
0.0459239799802938,-0.356172872073852,-0.00806665765323977,,
0.0461669640013536,-0.354020008476794,-0.00808683380499264,,
0.0464099480224133,-0.351276977185157,-0.00807881927146559,,
0.0466529320434731,-0.348264096195043,-0.00807285540098945,,
0.0468959160645328,-0.344308885722266,-0.0080292237313655,,
0.0471389000855926,-0.340477760283929,-0.00801227779760882,,
0.0473818841066523,-0.335680745657053,-0.00794627695310179,,
0.0476248681277121,-0.330465414058012,-0.00792069450785116,,
0.0478678521487718,-0.324652453211658,-0.00781391089007411,,
0.0481108361698316,-0.318534156227054,-0.00774331215394986,,
0.0483538201908914,-0.311899660798988,-0.00765282368099474,,
0.0485968042119511,-0.305116815602001,-0.00755564089477412,,
0.0488397882330109,-0.297361030930427,-0.00746008338612869,,
0.0490827722540706,-0.289520231559595,-0.00731127134438569,,
0.0493257562751304,-0.281227156338801,-0.00718590973622568,,
0.0495687402961901,-0.272163778614908,-0.00702840695057771,,
0.0498117243172499,-0.263030133040073,-0.00683699196026177,,
0.0500547083383096,-0.253594735222395,-0.00668823415093023,,
0.0502976923593694,-0.243474754629482,-0.00651507006176733,,
0.0505406763804292,-0.233159481113047,-0.00634669198289872,,
0.0507836604014889,-0.222460437026081,-0.00613314000021026,,
0.0510266444225487,-0.211519568127678,-0.00595185291269829,,
0.0512696284436084,-0.20015268569484,-0.00571958905336123,,
0.0515126124646682,-0.188654080417678,-0.0054805868169252,,
0.0517555964857279,-0.17682675555354,-0.00524688579869004,,
0.0519985805067877,-0.164615425109335,-0.00503052389919301,,
0.0522415645278474,-0.152277189516272,-0.00477016934558527,,
0.0524845485489072,-0.139678798368047,-0.00452219164508483,,
0.052727532569967,-0.126792285530005,-0.00426406062033857,,
0.0529705165910267,-0.113807068687294,-0.00400911066546517,,
0.0532135006120865,-0.100604703034314,-0.00371644715284702,,
0.0534564846331462,-0.0874405851831424,-0.00346042949737724,,
0.053699468654206,-0.0739243642962704,-0.00314757627490359,,
0.0539424526752657,-0.0604669545455133,-0.00286594905797743,,
0.0541854366963255,-0.046832406357807,-0.00256570317635996,,
0.0544284207173852,-0.0331630767589318,-0.00228990424888176,,
0.054671404738445,-0.0193962769554468,-0.00200284023272657,,
0.0549143887595048,-0.00558470783555866,-0.00168362656526933,,
0.0551573727805645,0.00819578127333571,-0.00137257657047041,,
0.0554003568016243,0.0220425430710788,-0.00106241971569432,,
0.055643340822684,0.0357412488618195,-0.000764021125585046,,
0.0558863248437438,0.0495602795344414,-0.000474772560113745,,
0.0561293088648035,0.0630824931644539,-0.000131589861640968,,
0.0563722928858633,0.0767194208237014,0.000180016015373319,,
0.056615276906923,0.0901015393947071,0.00047406414924156,,
0.0568582609279828,0.103318710648388,0.000792367729046894,,
0.0571012449490426,0.116441672454756,0.0010738746178105,,
0.0573442289701023,0.129474566856864,0.00142964262522183,,
0.0575872129911621,0.14217612719092,0.00169007683268418,,
0.0578301970122218,0.154788148892171,0.00200572302433777,,
0.0580731810332816,0.167023920328008,0.00229059571212531,,
0.0583161650543413,0.179187073817552,0.00260378449764342,,
0.0585591490754011,0.190977737194242,0.00291260757405531,,
0.0588021330964608,0.202497434577164,0.00318370522938194,,
0.0590451171175206,0.213652602795227,0.00346199884777798,,
0.0592881011385804,0.224621232194943,0.00373794691438745,,
0.0595310851596401,0.23516422995072,0.00404169248129449,,
0.0597740691806999,0.245378449367137,0.00428589763968601,,
0.0600170532017596,0.25538727045003,0.00453768516707775,,
0.0602600372228194,0.264787651847005,0.00478590691342839,,
0.0605030212438791,0.273824473493451,0.0050485985450095,,
0.0607460052649389,0.282685978026843,0.00527664244484471,,
0.0609889892859986,0.290937867826642,0.00551572264037237,,
0.0612319733070584,0.298704932955892,0.00573165237534168,,
0.0614749573281182,0.306097392886473,0.0059479719057669,,
0.0617179413491779,0.312838406386243,0.00615029947408674,,
0.0619609253702377,0.319551923770427,0.00636237192880484,,
0.0622039093912974,0.325451133116098,0.00654456571444317,,
0.0624468934123572,0.331373608405727,0.00671672989352334,,
0.0626898774334169,0.336293533019368,0.00688292850736438,,
0.0629328614544767,0.340685391208035,0.00703008476580091,,
0.0631758454755364,0.344767741839206,0.00718188128492647,,
0.0634188294965962,0.348360332599594,0.0073184791707952,,
0.063661813517656,0.3517141536725,0.00744169520918492,,
0.0639047975387157,0.353756856550062,0.00757899472687429,,
0.0641477815597755,0.356289084288872,0.00767251174104588,,
0.0643907655808352,0.357263433820669,0.00776961487341232,,
0.064633749601895,0.358625314075555,0.00784321842407332,,
0.0648767336229547,0.358936936718865,0.0079295293065984,,
0.0651197176440145,0.358891109859555,0.00796730218104313,,
0.0653627016650742,0.358385369340398,0.00802430044528046,,
0.065605685686134,0.357394099122087,0.00807068271501343,,
0.0658486697071937,0.355817655161814,0.00810247646611639,,
0.0660916537282535,0.353303288147658,0.00808887768899202,,
0.0663346377493133,0.350550386455554,0.00811200781239574,,
0.066577621770373,0.347599136715974,0.00807923787789022,,
0.0668206057914328,0.344044617500244,0.00806528659009276,,
0.0670635898124925,0.339827841415096,0.00802782555201276,,
0.0673065738335523,0.334910031887269,0.00795480161024686,,
0.067549557854612,0.329893988373843,0.00790177587013474,,
0.0677925418756718,0.324111343757495,0.00780971635201544,,
0.0680355258967316,0.317859385099902,0.0077420478608623,,
0.0682785099177913,0.311300268980163,0.00766722408094767,,
0.0685214939388511,0.304307090249419,0.00754813648486552,,
0.0687644779599108,0.29675576387323,0.00742547971821717,,
0.0690074619809706,0.288724078007655,0.00731220176919134,,
0.0692504460020303,0.280293815970848,0.00716520481846317,,
0.0694934300230901,0.271626194303768,0.0070128388590196,,
0.0697364140441498,0.262456357260555,0.00685987973257784,,
0.0699793980652096,0.252797700384699,0.00668580047147493,,
0.0702223820862694,0.242726836784585,0.00651101279949984,,
0.0704653661073291,0.232464234780166,0.00628790065956375,,
0.0707083501283889,0.221853054883069,0.00612015981152725,,
0.0709513341494486,0.210941797186066,0.0059028369814933,,
0.0711943181705084,0.199601412078292,0.0056739592583348,,
0.0714373021915681,0.188088294962347,0.00547582453331108,,
0.0716802862126279,0.176260940722017,0.00523415474014577,,
0.0719232702336876,0.164046349520516,0.00498861410862705,,
0.0721662542547474,0.151735845052573,0.00475331323425943,,
0.0724092382758072,0.139110427807832,0.00448952678587622,,
0.0726522222968669,0.126338364613298,0.00421891044319933,,
0.0728952063179267,0.113302356334852,0.0039571102568785,,
0.0731381903389864,0.100227424602185,0.00369247303754339,,
0.0733811743600462,0.0868873433617385,0.00341409807053017,,
0.0736241583811059,0.0732882522376139,0.00313764835411678,,
0.0738671424021657,0.0597820192559763,0.00284591865583028,,
0.0741101264232254,0.0460506765160729,0.00255210100971004,,
0.0743531104442852,0.0323972981893808,0.00225355158570695,,
0.074596094465345,0.0186257394428135,0.00194636565021034,,
0.0748390784864047,0.00476910724460368,0.00162922806724675,,
0.0750820625074645,-0.00904146308476101,0.00135627295183438,,
0.0753250465285242,-0.0227718951627165,0.00104164361789172,,
0.075568030549584,-0.0366003262167354,0.000721946943022189,,
0.0758110145706437,-0.0502842264067759,0.000412157851784833,,
0.0760539985917035,-0.063910314251225,0.000119235040450416,,
0.0762969826127632,-0.0773204283330785,-0.0001889253836862,,
0.076539966633823,-0.090734067557956,-0.000499963515145474,,
0.0767829506548827,-0.104004585976065,-0.000790472984178336,,
0.0770259346759425,-0.117191147237821,-0.0011246141228356,,
0.0772689186970023,-0.130211204244084,-0.00142271443468278,,
0.077511902718062,-0.143079856357472,-0.00175191872915237,,
0.0777548867391218,-0.15546556387659,-0.00202939886137976,,
0.0779978707601815,-0.167921774256186,-0.00233316815496654,,
0.0782408547812413,-0.180074117307124,-0.00263002281611779,,
0.078483838802301,-0.191783232375196,-0.00292876374832307,,
0.0787268228233608,-0.203408684048834,-0.00321265347365651,,
0.0789698068444206,-0.214427106093762,-0.00348494424203105,,
0.0792127908654803,-0.225291596893315,-0.00378004821315603,,
0.0794557748865401,-0.236130236644026,-0.004035970961906,,
0.0796987589075998,-0.246157388470644,-0.00430207584587095,,
0.0799417429286596,-0.256289295797454,-0.00457310062639538,,
0.0801847269497193,-0.265533454606087,-0.00480833540501147,,
