Time domain (s),Current (AC) (A),Potential (AC) (V),Frequency (Hz),Column 5
0,0.246595246624161,0.0107407184884267,1.5849,0.3
0.00154041658779734,0.244381641899052,0.0107153697035436,,
0.00308083317559467,0.241941469294525,0.0106712985529493,,
0.00462124976339201,0.239795469501177,0.0105921157360731,,
0.00616166635118935,0.237352556156174,0.0105806753615569,,
0.00770208293898669,0.234986748976585,0.0105166414001499,,
0.00924249952678402,0.232539815878882,0.0104896151221494,,
0.0107829161145814,0.230020161800528,0.0104044421765939,,
0.0123233327023787,0.227452270689781,0.010379196226538,,
0.013863749290176,0.224954725251273,0.0103008553698087,,
0.0154041658779734,0.22218785638191,0.0102165372387533,,
0.0169445824657707,0.219368730727456,0.0101382542266144,,
0.018484999053568,0.216497896436005,0.010125811212534,,
0.0200254156413654,0.2140118621075,0.00999125184125749,,
0.0215658322291627,0.210985353756966,0.00996530532894191,,
0.0231062488169601,0.207945141704048,0.00988846843155944,,
0.0246466654047574,0.204920095081769,0.00978074895015935,,
0.0261870819925547,0.201987502771574,0.00971071843289595,,
0.0277274985803521,0.198872011713559,0.00962024949374429,,
0.0292679151681494,0.195561562649627,0.00954690255330659,,
0.0308083317559468,0.192532130842585,0.009476666366389,,
0.0323487483437441,0.189064363275284,0.00938516907896636,,
0.0338891649315414,0.185995464805375,0.00929367821871985,,
0.0354295815193388,0.182622869451131,0.00921150676468052,,
0.0369699981071361,0.179312991374798,0.00911034300350932,,
0.0385104146949334,0.175998522558167,0.00898943495553217,,
0.0400508312827308,0.172586848812624,0.00891395419243191,,
0.0415912478705281,0.169038868907368,0.00878585413373401,,
0.0431316644583254,0.165527066776406,0.00871192874739357,,
0.0446720810461228,0.161889738731605,0.00858307670902247,,
0.0462124976339201,0.158183709458853,0.00851392028778974,,
0.0477529142217175,0.154596628322794,0.00837111484881437,,
0.0492933308095148,0.150922757071636,0.00827365314141915,,
0.0508337473973121,0.147156066076329,0.00814647216898834,,
0.0523741639851095,0.143391202241341,0.00805533480346021,,
0.0539145805729068,0.139645683466218,0.00792730544370546,,
0.0554549971607042,0.135965805425515,0.00779557403017517,,
0.0569954137485015,0.132054586049065,0.00768078465441135,,
0.0585358303362988,0.128179179014844,0.00757134268965753,,
0.0600762469240962,0.124287533093299,0.00741814450596712,,
0.0616166635118935,0.120318369895268,0.00729726216669713,,
0.0631570800996908,0.116292564727383,0.00717409817970038,,
0.0646974966874882,0.112398178065361,0.0070580940675411,,
0.0662379132752855,0.108345536480306,0.00694047673403198,,
0.0677783298630829,0.104221452926823,0.00680310868654033,,
0.0693187464508802,0.100203161955745,0.00666359396203253,,
0.0708591630386775,0.0960865697595649,0.00651564035452523,,
0.0723995796264749,0.0920136238554782,0.0063898990696738,,
0.0739399962142722,0.0877740866094089,0.00625523686357088,,
0.0754804128020695,0.0836836228057746,0.00610085607936872,,
0.0770208293898669,0.0795047244427549,0.00593891693537429,,
0.0785612459776642,0.0752167674482619,0.00580052696678823,,
0.0801016625654615,0.0710849869819395,0.00567350667377475,,
0.0816420791532589,0.0668850534357603,0.00551832891966253,,
0.0831824957410562,0.0625106489187276,0.00538396879086411,,
0.0847229123288536,0.0582446178480491,0.00523280159500938,,
0.0862633289166509,0.0540598725720123,0.00507680116228038,,
0.0878037455044482,0.0497479569378511,0.00493458059638474,,
0.0893441620922456,0.0454007999490588,0.00476994203817815,,
0.0908845786800429,0.0410186985191871,0.00462054874309104,,
0.0924249952678402,0.0367552026334496,0.00446485681484354,,
0.0939654118556376,0.0324500246529606,0.00432021963051055,,
0.0955058284434349,0.0281313713651272,0.00417087775283687,,
0.0970462450312323,0.0237061717912575,0.00398177093295482,,
0.0985866616190296,0.0193620752959977,0.00387384578190053,,
0.100127078206827,0.015041069539255,0.00371444537270049,,
0.101667494794624,0.0106416100863635,0.00354795578760569,,
0.103207911382422,0.00629698828251224,0.00337400425036938,,
0.104748327970219,0.00194942018264843,0.0032116859029494,,
0.106288744558016,-0.00247703556393978,0.00304653317060755,,
0.107829161145814,-0.00685838329018037,0.00289328356950413,,
0.109369577733611,-0.0112015890447853,0.00271620199721712,,
0.110909994321408,-0.0155828910920179,0.00256963665987575,,
0.112450410909206,-0.0199655635094889,0.00238312641937766,,
0.113990827497003,-0.0243329791383057,0.00225448005066076,,
0.1155312440848,-0.028686188595651,0.00203685584778501,,
0.117071660672598,-0.0330017585504479,0.00189514302884763,,
0.118612077260395,-0.0373041272719482,0.00173749723888506,,
0.120152493848192,-0.0416508046311571,0.00156051850142536,,
0.12169291043599,-0.0460776486493128,0.00137780672235399,,
0.123233327023787,-0.0503219593517126,0.00122139495031659,,
0.124773743611584,-0.0546157860987268,0.00104181963347205,,
0.126314160199382,-0.0589309906214602,0.000883865339027956,,
0.127854576787179,-0.0631857161376718,0.000699816707204093,,
0.129394993374976,-0.0674333157286437,0.000574563887781654,,
0.130935409962774,-0.0716635572965957,0.000408620612706301,,
0.132475826550571,-0.0759106087394723,0.00021675010684552,,
0.134016243138368,-0.0800497206865701,7.62777330103326E-05,,
0.135556659726166,-0.0842914276855168,-9.86443079069588E-05,,
0.137097076313963,-0.0884602309877802,-0.000305445145229566,,
0.13863749290176,-0.0925414676318093,-0.00044954244672013,,
0.140177909489558,-0.0966556388405681,-0.000646625392880296,,
0.141718326077355,-0.100850935967441,-0.000800154576170442,,
0.143258742665152,-0.104811168919418,-0.000958009249375724,,
0.14479915925295,-0.108921914202581,-0.00112177692513971,,
0.146339575840747,-0.112983143441129,-0.00127975371470246,,
0.147879992428544,-0.116946071454576,-0.00145709237405711,,
0.149420409016342,-0.120992500694549,-0.00162733221675282,,
0.150960825604139,-0.124800987982127,-0.00180771093068399,,
0.152501242191936,-0.128662006128844,-0.00196041743535691,,
0.154041658779734,-0.132645946485946,-0.00213986420866741,,
0.155582075367531,-0.136463615254121,-0.00231843367235918,,
0.157122491955328,-0.140184490204457,-0.00248158112557251,,
0.158662908543126,-0.14410900217222,-0.00264404087087922,,
0.160203325130923,-0.147744457377694,-0.00278551588427867,,
0.16174374171872,-0.151470082944856,-0.00296074321608897,,
0.163284158306518,-0.15513536654252,-0.00310496584752551,,
0.164824574894315,-0.15873066990001,-0.00328438691212929,,
0.166364991482112,-0.162334012762898,-0.00344578938686979,,
0.16790540806991,-0.165819503785282,-0.00361662374340987,,
0.169445824657707,-0.16949205034521,-0.00373467812493411,,
0.170986241245504,-0.173029615436654,-0.00391474190720764,,
0.172526657833302,-0.176370623756903,-0.00407120509665848,,
0.174067074421099,-0.179762198738949,-0.00422162674001658,,
0.175607491008896,-0.183286790992136,-0.00441094887031834,,
0.177147907596694,-0.186492224016798,-0.00454128880009419,,
0.178688324184491,-0.189916459489526,-0.00469034788199307,,
0.180228740772288,-0.193161313498046,-0.00485629758424544,,
0.181769157360086,-0.196127708274122,-0.00500026634220196,,
0.183309573947883,-0.19954815238919,-0.00514781182398938,,
0.18484999053568,-0.202337860762527,-0.00526851098872383,,
0.186390407123478,-0.205532422183298,-0.00543680018329251,,
0.187930823711275,-0.208628956453014,-0.00558205437658854,,
0.189471240299073,-0.211454294452549,-0.00573993154491204,,
0.19101165688687,-0.214510631195273,-0.00586392463770258,,
0.192552073474667,-0.217123424770831,-0.00601666327825878,,
0.194092490062465,-0.219960410917393,-0.00615495041201797,,
0.195632906650262,-0.222760990894621,-0.00630205241861326,,
0.197173323238059,-0.225341078300489,-0.0064401338827178,,
0.198713739825857,-0.228127497785253,-0.00655808542941561,,
0.200254156413654,-0.230652953097617,-0.00672429221873516,,
0.201794573001451,-0.23334728370236,-0.00682573877568116,,
0.203334989589249,-0.235701442734923,-0.00699050587742178,,
0.204875406177046,-0.238047151151015,-0.00712627355791629,,
0.206415822764843,-0.240331421301419,-0.00724867271088625,,
0.207956239352641,-0.242939007470071,-0.00737719053606956,,
0.209496655940438,-0.244951624560214,-0.00747416377803622,,
0.211037072528235,-0.246981782389409,-0.00761051954519854,,
0.212577489116033,-0.249296429080097,-0.00773765552739247,,
0.21411790570383,-0.251476231339326,-0.00785416417292195,,
0.215658322291627,-0.253328058321496,-0.00796031542320819,,
0.217198738879425,-0.255303538378178,-0.00808705934762388,,
0.218739155467222,-0.257303411025104,-0.00819308205437652,,
0.220279572055019,-0.258873718281296,-0.00833805345189775,,
0.221819988642817,-0.260888162531757,-0.00841248015801987,,
0.223360405230614,-0.262534388299158,-0.00854056414877657,,
0.224900821818411,-0.264198383200649,-0.00864905167779106,,
0.226441238406209,-0.265908605258184,-0.00874301700106495,,
0.227981654994006,-0.267212466861022,-0.00884677734162098,,
0.229522071581803,-0.268956125952373,-0.00894722125900271,,
0.231062488169601,-0.270396476430957,-0.00905028746447556,,
0.232602904757398,-0.271581024465037,-0.00917011574676785,,
0.234143321345195,-0.273002235439291,-0.00921528594457666,,
0.235683737932993,-0.274127355084032,-0.00930793691021625,,
0.23722415452079,-0.275405271010357,-0.00943399312672577,,
0.238764571108587,-0.276348405487438,-0.0095008325507604,,
0.240304987696385,-0.277207216515848,-0.00958860207570034,,
0.241845404284182,-0.278321784309754,-0.0096642113823342,,
0.243385820871979,-0.278907206475602,-0.00974645353531711,,
0.244926237459777,-0.280024103898913,-0.0098517049808664,,
0.246466654047574,-0.280818187773063,-0.00988492063002377,,
0.248007070635371,-0.281682480282428,-0.00998770082613376,,
0.249547487223169,-0.282096925921531,-0.0100369329996135,,
0.251087903810966,-0.282631553030542,-0.0101279964526095,,
0.252628320398763,-0.283237941861038,-0.0101767112383655,,
0.254168736986561,-0.28341499369584,-0.0102620191546317,,
0.255709153574358,-0.283949255372788,-0.0103257221164395,,
0.257249570162155,-0.284113882517429,-0.010384595054961,,
0.258789986749953,-0.28451878124387,-0.0104340586068017,,
0.26033040333775,-0.284503798529264,-0.0105011326227857,,
0.261870819925547,-0.284678475055653,-0.0105705204223794,,
0.263411236513345,-0.284388550392214,-0.0105686179780782,,
0.264951653101142,-0.284391656564754,-0.0106503459569254,,
0.266492069688939,-0.284386312120824,-0.0106875464556331,,
0.268032486276737,-0.284379551627648,-0.0107132808711179,,
0.269572902864534,-0.284066559065196,-0.0107797121694322,,
0.271113319452331,-0.28343746776775,-0.0108311810004018,,
0.272653736040129,-0.283324914692169,-0.0108453979152499,,
0.274194152627926,-0.28306856409957,-0.0108640881450777,,
0.275734569215723,-0.282386485152906,-0.0109139598226387,,
0.277274985803521,-0.281783156815943,-0.0109160711501826,,
0.278815402391318,-0.281240627238557,-0.0109460989196997,,
0.280355818979115,-0.280429413736427,-0.0109586929724323,,
0.281896235566913,-0.27957028295496,-0.0109766376497635,,
0.28343665215471,-0.278813290435263,-0.0110213707995572,,
0.284977068742507,-0.277647927584521,-0.0110288809555246,,
0.286517485330305,-0.276750061004315,-0.0110306034388787,,
0.288057901918102,-0.275831364796486,-0.0110544900410638,,
0.289598318505899,-0.274612466148429,-0.0110398874956141,,
0.291138735093697,-0.273604056368992,-0.0110770590720266,,
0.292679151681494,-0.272324176245326,-0.011064050466397,,
0.294219568269291,-0.271049503528566,-0.0110808157568045,,
0.295759984857089,-0.269765055504106,-0.0110581406774264,,
0.297300401444886,-0.268337266752708,-0.0110133786053375,,
0.298840818032683,-0.266654452099942,-0.0110561868157113,,
0.300381234620481,-0.265147912738843,-0.0110256930758843,,
0.301921651208278,-0.263733736331813,-0.0110154353018799,,
0.303462067796075,-0.261802062443752,-0.0110048915185126,,
0.305002484383873,-0.259961563855553,-0.0110104735214716,,
0.30654290097167,-0.258612982503935,-0.0109517773303089,,
0.308083317559468,-0.256450081477646,-0.0109164053633708,,
0.309623734147265,-0.25462109399945,-0.0108940355748857,,
0.311164150735062,-0.252394744831123,-0.0108856577500642,,
0.31270456732286,-0.250562285748323,-0.0108479398636328,,
0.314244983910657,-0.248554601991038,-0.010795728693755,,
0.315785400498454,-0.246438933058967,-0.0107841854844115,,
0.317325817086252,-0.243952350582366,-0.0107334107885251,,
0.318866233674049,-0.241850385352679,-0.0106930224101767,,
0.320406650261846,-0.23940180781069,-0.0106695246521817,,
0.321947066849644,-0.236955057429019,-0.0106211665747322,,
0.323487483437441,-0.234449107053049,-0.0105409811182917,,
0.325027900025238,-0.232385101078966,-0.0104916975273981,,
0.326568316613036,-0.229504765553862,-0.0104600758180613,,
0.328108733200833,-0.227084371959777,-0.0104059589902934,,
0.32964914978863,-0.224450017892467,-0.010334900124759,,
0.331189566376428,-0.221749429263635,-0.0102325280543689,,
0.332729982964225,-0.218904906080762,-0.01020769665721,,
0.334270399552022,-0.215962629820883,-0.0101088691747671,,
0.33581081613982,-0.21310408318257,-0.0100586311481341,,
0.337351232727617,-0.210317298265742,-0.00998857813575249,,
0.338891649315414,-0.207255845474128,-0.00995217460695486,,
0.340432065903212,-0.204099974173089,-0.00984995678880551,,
0.341972482491009,-0.201276097901808,-0.00975203232468802,,
0.343512899078806,-0.198063082161827,-0.0096616148029498,,
0.345053315666604,-0.194942612091946,-0.00958047812435847,,
0.346593732254401,-0.191646963026589,-0.00948916079788287,,
0.348134148842198,-0.188411975683785,-0.0094090267588558,,
0.349674565429996,-0.185181190809712,-0.00933064091188962,,
0.351214982017793,-0.18163869238541,-0.00921615682701882,,
0.35275539860559,-0.178441344545154,-0.0091695501552187,,
0.354295815193388,-0.174987646112301,-0.00905450047879874,,
0.355836231781185,-0.171587666192793,-0.00895251725259882,,
0.357376648368982,-0.168195177630588,-0.00884605749783107,,
0.35891706495678,-0.164427024907027,-0.00875178367007612,,
0.360457481544577,-0.160931073391823,-0.00864848608624191,,
0.361997898132374,-0.157342758922549,-0.00852603872944657,,
0.363538314720172,-0.153754216058236,-0.00841176031423041,,
0.365078731307969,-0.149923391735772,-0.00829447398032057,,
0.366619147895766,-0.146121801978394,-0.00819385331557987,,
0.368159564483564,-0.142521017139951,-0.00808091496670382,,
0.369699981071361,-0.138730984171584,-0.0079690820922198,,
0.371240397659158,-0.134805649981678,-0.00786591305191964,,
0.372780814246956,-0.13090594171523,-0.00773426197809757,,
0.374321230834753,-0.127005685300687,-0.00761885237978266,,
0.37586164742255,-0.123246485662684,-0.00748223631196465,,
0.377402064010348,-0.119320100855595,-0.00733981007641438,,
0.378942480598145,-0.115180897550481,-0.00722108726851367,,
0.380482897185942,-0.111305033726182,-0.00708642827599881,,
0.38202331377374,-0.107301451395663,-0.00694934623787002,,
0.383563730361537,-0.103174033274599,-0.00683975323446351,,
0.385104146949334,-0.0991387497125649,-0.00670917549914973,,
0.386644563537132,-0.0949848834459001,-0.00656037029073042,,
0.388184980124929,-0.0908794826066671,-0.00640635264201173,,
0.389725396712726,-0.0866641780743137,-0.00626572601593578,,
0.391265813300524,-0.0825092611904662,-0.00612718500869747,,
0.392806229888321,-0.0783105838170055,-0.00600627374713225,,
0.394346646476118,-0.0740934521243342,-0.00585544076446576,,
0.395887063063916,-0.0699668562254138,-0.00570208832853503,,
0.397427479651713,-0.0656740800955824,-0.00554613931321946,,
0.39896789623951,-0.0613273113783577,-0.00540605256998639,,
0.400508312827308,-0.0571316488194215,-0.00525159787325213,,
0.402048729415105,-0.052802694915296,-0.00511870635432832,,
0.403589146002902,-0.0484990015025653,-0.00496681931468412,,
0.4051295625907,-0.0442205685812292,-0.00483243990435511,,
0.406669979178497,-0.0398885085045634,-0.00467032079941321,,
0.408210395766294,-0.0355555805267466,-0.00450411401009321,,
0.409750812354092,-0.0311982142796781,-0.00433965541283454,,
0.411291228941889,-0.0268748788935302,-0.00417915595641949,,
0.412831645529686,-0.0225239077075743,-0.00401788523880064,,
0.414372062117484,-0.0181616081276476,-0.00385440357239952,,
0.415912478705281,-0.0137878887957342,-0.00370071692328056,,
0.417452895293078,-0.00941439785886045,-0.00354463936443139,,
0.418993311880876,-0.00504328223039998,-0.00338388282094826,,
0.420533728468673,-0.000696102402103719,-0.00322068395032149,,
0.42207414505647,0.00370043359427924,-0.00306072437674887,,
0.423614561644268,0.00807661959262182,-0.00290441543953834,,
0.425154978232065,0.0125098815113941,-0.00271059749913904,,
0.426695394819862,0.0168188736890467,-0.00254076256857516,,
0.42823581140766,0.0212271035114641,-0.00240309565736752,,
0.429776227995457,0.0255294950724684,-0.00220333900570235,,
0.431316644583254,0.0298733860121925,-0.00205502868988816,,
0.432857061171052,0.0342074102862,-0.00189401184574933,,
0.434397477758849,0.0385151006121261,-0.00171541345976234,,
0.435937894346646,0.0428007279772138,-0.00155323972381849,,
0.437478310934444,0.0471758633583737,-0.0014107138670294,,
0.439018727522241,0.0515089740522223,-0.00122805350537192,,
0.440559144110038,0.0558150427733663,-0.00103721777495869,,
0.442099560697836,0.0600390719962375,-0.000888901031967926,,
0.443639977285633,0.0642811901062558,-0.000715113387736999,,
0.445180393873431,0.0685549180897733,-0.000544587535678431,,
0.446720810461228,0.0728237127404326,-0.000362518474276374,,
0.448261227049025,0.0770439277661403,-0.000178264172798759,,
0.449801643636823,0.081215882919952,-1.58879807887757E-05,,
0.45134206022462,0.0853863535060055,0.000153789483946287,,
0.452882476812417,0.0895316321191762,0.000304281826247976,,
0.454422893400215,0.0936562638207548,0.000498466115718799,,
0.455963309988012,0.0977867424353507,0.000649659020280247,,
0.457503726575809,0.101916855617883,0.000818231010623727,,
0.459044143163607,0.10595197930339,0.00101685647919059,,
0.460584559751404,0.110012249282771,0.00116740666608273,,
0.462124976339201,0.114031659389544,0.00135474601237418,,
0.463665392926999,0.118005367648866,0.00153357577672164,,
0.465205809514796,0.121865243820384,0.00168476868128353,,
0.466746226102593,0.125846443437009,0.00186326423244321,,
0.468286642690391,0.129847010953004,0.00202700298591196,,
0.469827059278188,0.133498042700188,0.0021978951870425,,
0.471367475865985,0.137412550965211,0.00235134403062354,,
0.472907892453783,0.141182919120657,0.00251434365877268,,
0.47444830904158,0.145134495900629,0.00265894870722239,,
0.475988725629377,0.14871630111127,0.00285063282495912,,
0.477529142217175,0.152462116799944,0.00302513709939145,,
0.479069558804972,0.156254776311268,0.00319353555596447,,
0.480609975392769,0.159781743872869,0.00333639883952985,,
0.482150391980567,0.163455432407995,0.003478927909907,,
0.483690808568364,0.166898898743069,0.00364539178629464,,
0.485231225156161,0.17039770519627,0.00381946543988843,,
0.486771641743959,0.173949910409762,0.00398143671976658,,
0.488312058331756,0.177310606382435,0.00415097921379104,,
0.489852474919553,0.180665249886556,0.00430443448454865,,
0.491392891507351,0.184170702635414,0.00447483179307362,,
0.492933308095148,0.187387395535535,0.00460057307792461,,
0.494473724682945,0.190648876702948,0.00478166520846912,,
0.496014141270743,0.193896106019881,0.00491398149507871,,
0.49755455785854,0.196995883499162,0.00507374182617371,,
0.499094974446337,0.200095112830347,0.00523652293031551,,
0.500635391034135,0.203222845862491,0.00535805441443182,,
0.502175807621932,0.206143927062684,0.00552462755282335,,
0.503716224209729,0.209252657627522,0.00565522135607877,,
0.505256640797527,0.212056617851338,0.00582577291684405,,
0.506797057385324,0.214885244739446,0.00596684301811168,,
0.508337473973121,0.21777179260963,0.0060854051465955,,
0.509877890560919,0.220484577533584,0.0062344128110805,,
0.511418307148716,0.223155885918322,0.00635444676302699,,
0.512958723736513,0.225971722684204,0.00654147760483736,,
0.514499140324311,0.22851092737796,0.00664901712528954,,
