Time domain (s),Current (AC) (A),Potential (AC) (V),Frequency (Hz),Column 5
0,-0.3739529080053,-0.0185097255037436,0.012589,0.5
0.193931706251489,-0.378357163219097,-0.0188668547912485,,
0.387863412502979,-0.382187181023427,-0.0191776827424079,,
0.581795118754468,-0.385905647658168,-0.0195178288102236,,
0.775726825005958,-0.389462269602978,-0.0198404661957805,,
0.969658531257447,-0.393447270674633,-0.0201595701823973,,
1.16359023750894,-0.39691787725976,-0.020475302450865,,
1.35752194376043,-0.400419890768982,-0.020801604601004,,
1.55145365001192,-0.40384331623165,-0.0210619106735193,,
1.7453853562634,-0.406942062006039,-0.021400604982571,,
1.93931706251489,-0.410445773186834,-0.0216910645224919,,
2.13324876876638,-0.413418396110634,-0.0219789641165655,,
2.32718047501787,-0.416720367319539,-0.0222585607283827,,
2.52111218126936,-0.419462389854715,-0.0225464097972092,,
2.71504388752085,-0.422309738763713,-0.0227894968655482,,
2.90897559377234,-0.425072911457232,-0.0230931839151327,,
3.10290730002383,-0.427789468918817,-0.0233676134783574,,
3.29683900627532,-0.429928252155159,-0.0235898706715356,,
3.49077071252681,-0.432556530694963,-0.0238687700349445,,
3.6847024187783,-0.435141164928086,-0.0240916470044863,,
3.87863412502979,-0.437420076805491,-0.0243194821849326,,
4.07256583128128,-0.439815774339836,-0.0245586080739075,,
4.26649753753277,-0.442010297792815,-0.0247849578120927,,
4.46042924378426,-0.443476520141105,-0.025013065828873,,
4.65436095003575,-0.445577954602847,-0.0252655876450008,,
4.84829265628724,-0.447087184630979,-0.0254809969830365,,
5.04222436253872,-0.448585379793889,-0.0256294468954055,,
5.23615606879021,-0.450184020524849,-0.0258703815882226,,
5.4300877750417,-0.45153140586305,-0.0260650688382911,,
5.62401948129319,-0.452897111906973,-0.0262349178769372,,
5.81795118754468,-0.45386167230553,-0.0264075053839705,,
6.01188289379617,-0.455242798866238,-0.0265916092789684,,
6.20581460004766,-0.455983620298776,-0.0267440473175,,
6.39974630629915,-0.457050819091166,-0.0268865184089746,,
6.59367801255064,-0.457710930387685,-0.0270652531543925,,
6.78760971880213,-0.458349325635336,-0.0272032746557818,,
6.98154142505362,-0.45891457953273,-0.0273504580686259,,
7.17547313130511,-0.45926741227459,-0.0274692395559599,,
7.3694048375566,-0.459801047038942,-0.0276448518411132,,
7.56333654380809,-0.459801329984205,-0.027745393714282,,
7.75726825005958,-0.460128414707212,-0.0278663848390845,,
7.95119995631106,-0.459971663031999,-0.0279762166210009,,
8.14513166256256,-0.459757544204892,-0.0280532844644164,,
8.33906336881404,-0.459682775919378,-0.0281415352291665,,
8.53299507506553,-0.459164137253917,-0.0282445528394382,,
8.72692678131702,-0.458903544667507,-0.0282985272766272,,
8.92085848756851,-0.45829436351817,-0.028362256454836,,
9.11479019382,-0.45792823234899,-0.0284445250303422,,
9.30872190007149,-0.456958295990453,-0.0285098171228579,,
9.50265360632298,-0.456183874808039,-0.0285265780314607,,
9.69658531257447,-0.455037946496466,-0.0285852142647727,,
9.89051701882596,-0.453956246759393,-0.0285919779111703,,
10.0844487250774,-0.4531286318677,-0.0286693152225697,,
10.2783804313289,-0.451661772892571,-0.0286806598246949,,
10.4723121375804,-0.450219954573138,-0.0286997112111615,,
10.6662438438319,-0.4487225375097,-0.0286743812206685,,
10.8601755500834,-0.446947409671493,-0.0286863994927535,,
11.0541072563349,-0.445223141244153,-0.0286766178049356,,
11.2480389625864,-0.443460109315902,-0.0286703661477072,,
11.4419706688379,-0.441873635231212,-0.0286481350390297,,
11.6359023750894,-0.439648270744662,-0.028599496067923,,
11.8298340813409,-0.437356414121515,-0.0285366291872631,,
12.0237657875923,-0.435178796647947,-0.0285478390553964,,
12.2176974938438,-0.432982080369187,-0.0284598308118316,,
12.4116292000953,-0.430577540795402,-0.0284494832412472,,
12.6055609063468,-0.427953294225582,-0.0283620678272474,,
12.7994926125983,-0.425539488194463,-0.0283145336748749,,
12.9934243188498,-0.422644958163006,-0.0282274685692543,,
13.1873560251013,-0.419631095967252,-0.0281790721193333,,
13.3812877313528,-0.41676592150674,-0.0280735484568106,,
13.5752194376043,-0.413523581011826,-0.0279121101876143,,
13.7691511438557,-0.410499249841374,-0.0278137004798684,,
13.9630828501072,-0.407666684822321,-0.0277472799901699,,
14.1570145563587,-0.403940295720241,-0.0275878324157048,,
14.3509462626102,-0.400717336975782,-0.0275095485980121,,
14.5448779688617,-0.397205349646071,-0.0273139721035967,,
14.7388096751132,-0.393671858476439,-0.0271996098911997,,
14.9327413813647,-0.389944691274888,-0.0270505705176158,,
15.1266730876162,-0.386143321678346,-0.0268882968976691,,
15.3206047938677,-0.382226510414861,-0.026731574318192,,
15.5145365001192,-0.378432992549344,-0.0265585994509321,,
15.7084682063706,-0.37410400077527,-0.0264215749810832,,
15.9023999126221,-0.370173042248679,-0.0262279925497491,,
16.0963316188736,-0.365792200755322,-0.0260161065056037,,
16.2902633251251,-0.361840021334073,-0.0258136821560457,,
16.4841950313766,-0.357226598835256,-0.0256606748663977,,
16.6781267376281,-0.35268278087092,-0.0254270764394442,,
16.8720584438796,-0.348119156738235,-0.0252352960752527,,
17.0659901501311,-0.34329607180019,-0.0249941491763979,,
17.2599218563826,-0.33861276182163,-0.0247986737324766,,
17.453853562634,-0.334086486463545,-0.0245414126481807,,
17.6477852688855,-0.32883650786128,-0.0243204017444278,,
17.841716975137,-0.32394657710506,-0.0240807369194851,,
18.0356486813885,-0.318952027338171,-0.0238298858048576,,
18.22958038764,-0.313862407963211,-0.0235546242592326,,
18.4235120938915,-0.308704032889557,-0.0233284631486366,,
18.617443800143,-0.30353257159753,-0.0230477010877883,,
18.8113755063945,-0.298091039052812,-0.0228052607426106,,
19.005307212646,-0.292397402279548,-0.0225294602610173,,
19.1992389188975,-0.287014793085667,-0.022245171537929,,
19.3931706251489,-0.281822252371612,-0.0219532838176932,,
19.5871023314004,-0.275962243784223,-0.0216425872321757,,
19.7810340376519,-0.270188109083887,-0.0213467652793735,,
19.9749657439034,-0.264535711582576,-0.0210624226626885,,
20.1688974501549,-0.258750895698595,-0.0207497050672916,,
20.3628291564064,-0.252925123487923,-0.0204283880748561,,
20.5567608626579,-0.246976694506123,-0.0201232997917553,,
20.7506925689094,-0.240817824985623,-0.0198108280858933,,
20.9446242751609,-0.235079412124629,-0.0194749834007721,,
21.1385559814123,-0.229061944498872,-0.0191314959299556,,
21.3324876876638,-0.222879944203194,-0.0188259764980803,,
21.5264193939153,-0.216477458812012,-0.0184685507957929,,
21.7203511001668,-0.210292275382135,-0.0181091613455724,,
21.9142828064183,-0.204052766461932,-0.0177573675241498,,
22.1082145126698,-0.197586972068351,-0.0174506354863464,,
22.3021462189213,-0.191278070822614,-0.01706394892935,,
22.4960779251728,-0.18474712828243,-0.0166969065883844,,
22.6900096314243,-0.178430375305669,-0.0163648984536851,,
22.8839413376757,-0.17191803641647,-0.0159917358211334,,
23.0778730439272,-0.165361699539011,-0.0155990940216912,,
23.2718047501787,-0.158704280466662,-0.0152352886648832,,
23.4657364564302,-0.152069426278966,-0.0148857314277278,,
23.6596681626817,-0.145389725267224,-0.0144926854263092,,
23.8535998689332,-0.138644805372565,-0.0141181215602413,,
24.0475315751847,-0.131936809834611,-0.0137121444639421,,
24.2414632814362,-0.125062937636742,-0.0133030920642758,,
24.4353949876877,-0.11820399080145,-0.012952675897921,,
24.6293266939392,-0.111547208355939,-0.0125055981973672,,
24.8232584001906,-0.104703045410592,-0.01216060170584,,
25.0171901064421,-0.0976987354468873,-0.0117243330397927,,
25.2111218126936,-0.0907914757080882,-0.011300837156186,,
25.4050535189451,-0.0837439458555946,-0.0109302681529804,,
25.5989852251966,-0.0767995495511427,-0.0105115654311381,,
25.7929169314481,-0.0699120959806918,-0.0101105701241924,,
25.9868486376996,-0.0629040369922636,-0.00968031059418761,,
26.1807803439511,-0.0558717861839243,-0.00926066810275161,,
26.3747120502026,-0.0488185266898729,-0.00887161022749572,,
26.568643756454,-0.0417983717914892,-0.00843779372010234,,
26.7625754627055,-0.0347725579878631,-0.0080247262474753,,
26.956507168957,-0.0276881745149788,-0.00759206845241289,,
27.1504388752085,-0.0206702124423764,-0.00716676713331355,,
27.34437058146,-0.013560151686955,-0.00674246284575419,,
27.5383022877115,-0.00650830691921418,-0.00631721542025154,,
27.732233993963,0.000616254780890725,-0.00588302165768084,,
27.9261657002145,0.00766894838441792,-0.0054586095829281,,
28.120097406466,0.0147626690509521,-0.00506281500807315,,
28.3140291127175,0.0218116843660717,-0.00463163928692323,,
28.5079608189689,0.02885249426859,-0.00420693079738799,,
28.7018925252204,0.0358729674803937,-0.00376185052826505,,
28.8958242314719,0.0429757070271578,-0.00332938136079175,,
29.0897559377234,0.0499573813698936,-0.00287772607285985,,
29.2836876439749,0.0569907993274391,-0.00246751496086262,,
29.4776193502264,0.063980431505672,-0.00202839330253513,,
29.6715510564779,0.0710209938310859,-0.00160729231563561,,
29.8654827627294,0.0779072448841728,-0.00117108091153462,,
30.0594144689809,0.0849645009800516,-0.000745910958077189,,
30.2533461752323,0.0918392220137073,-0.000322064766090868,,
30.4472778814838,0.0988412684153155,0.000101538904709653,,
30.6412095877353,0.105770031994036,0.000569678896560788,,
30.8351412939868,0.112489133133527,0.000983932028317813,,
31.0290730002383,0.119402900613355,0.00141116004350295,,
31.2230047064898,0.126146900935912,0.00181478939999158,,
31.4169364127413,0.133010268790925,0.00226210625338164,,
31.6108681189928,0.139677909260869,0.00269122728115434,,
31.8047998252443,0.146409742937156,0.00312744879030413,,
31.9987315314958,0.153085022929177,0.00354717212213584,,
32.1926632377472,0.159809995182857,0.00394477213248345,,
32.3865949439987,0.166382318467625,0.00441916378156293,,
32.5805266502502,0.172903322555477,0.00482749535437188,,
32.7744583565017,0.179226830850371,0.00523487705253745,,
32.9683900627532,0.185840994665774,0.00565398060800604,,
33.1623217690047,0.192321855894563,0.00606244017810775,,
33.3562534752562,0.198765898871119,0.00649264581451536,,
33.5501851815077,0.205207430708474,0.00688962604849985,,
33.7441168877592,0.211388688272838,0.00731320277250225,,
33.9380485940106,0.217728324447673,0.00769602920062873,,
34.1319803002621,0.223825830214451,0.00810600452813981,,
34.3259120065136,0.229863599162765,0.00851521860859661,,
34.5198437127651,0.235959619466917,0.00896323607874505,,
34.7137754190166,0.24188000149961,0.0093320838552029,,
34.9077071252681,0.247889758866974,0.00973463533975583,,
35.1016388315196,0.253980120265884,0.0101112774776504,,
35.2955705377711,0.2596523593037,0.0104829546679399,,
35.4895022440226,0.265648004776116,0.0108927615779613,,
35.6834339502741,0.271171343869743,0.0112632800559198,,
35.8773656565255,0.276992376747275,0.0116868500432226,,
36.071297362777,0.282332084365789,0.0120429317739399,,
36.2652290690285,0.287866529060954,0.0124036214071834,,
36.45916077528,0.293429268282331,0.0128051219665988,,
36.6530924815315,0.298775200696611,0.0131508763368307,,
36.847024187783,0.304321210779366,0.013528643503558,,
37.0409558940345,0.309500240857154,0.0139123928595297,,
37.234887600286,0.314688608128593,0.0142676594495956,,
37.4288193065375,0.319744274072099,0.0146200157854346,,
37.6227510127889,0.324640075942508,0.0150194683881719,,
37.8166827190404,0.32959897460637,0.0153217643092889,,
38.0106144252919,0.334617008830014,0.0156636113937529,,
38.2045461315434,0.33931842730535,0.0160453127930462,,
38.3984778377949,0.344307035221734,0.0163265834747142,,
38.5924095440464,0.348506508802073,0.0166982808751026,,
38.7863412502979,0.35325885742459,0.0170425396980232,,
38.9802729565494,0.357712981740835,0.0173376004037706,,
39.1742046628009,0.36204685432068,0.0176503988395629,,
39.3681363690523,0.366230765911604,0.0179692333581962,,
39.5620680753038,0.370710355301439,0.0183189758545907,,
39.7559997815553,0.374862859968268,0.0185795513950895,,
39.9499314878068,0.378582458384057,0.0188920264693011,,
40.1438631940583,0.382728738255119,0.0192187631365641,,
40.3377949003098,0.386132569758386,0.0194854758103982,,
40.5317266065613,0.390092954592237,0.0197978969910126,,
40.7256583128128,0.393889797064584,0.0200621372960934,,
40.9195900190643,0.397349651729751,0.0203547727899851,,
41.1135217253157,0.401106033029615,0.0206405233768865,,
41.3074534315672,0.404537876113832,0.0208923142611082,,
41.5013851378187,0.407487297526139,0.0211829354818196,,
41.6953168440702,0.410900749168318,0.0214254027737955,,
41.8892485503217,0.413674744518112,0.0216893668741931,,
42.0831802565732,0.417123564318056,0.0219334038171755,,
42.2771119628247,0.41979060635877,0.0222010933124515,,
42.4710436690762,0.422406435307042,0.022440225938126,,
42.6649753753277,0.425266728961782,0.0226476084985889,,
42.8589070815792,0.428127305561784,0.0228677301579943,,
43.0528387878306,0.430586665780105,0.023137844865126,,
43.2467704940821,0.432737615662718,0.0233578385272391,,
43.4407022003336,0.435400413524501,0.0235617180039105,,
43.6346339065851,0.437322460690061,0.023737411129459,,
43.8285656128366,0.439379472745651,0.023977857411555,,
44.0224973190881,0.441429128224427,0.0241611832177493,,
44.2164290253396,0.443379469916199,0.024348807038288,,
44.4103607315911,0.445171645206447,0.0245408636071631,,
44.6042924378426,0.44677990607632,0.0247190560482626,,
44.7982241440941,0.448444755998616,0.0249043961276372,,
44.9921558503455,0.449748284821189,0.0250707387141418,,
45.186087556597,0.451224410253653,0.0252366770986705,,
45.3800192628485,0.452672241159906,0.0253662844622604,,
45.5739509691,0.453683487526712,0.0255404214102013,,
45.7678826753515,0.454672947108335,0.0256908317021538,,
45.961814381603,0.455540174336723,0.0258343570871156,,
46.1557460878545,0.456329308672767,0.0259767978634424,,
46.349677794106,0.457360927098446,0.0261067690088104,,
46.5436095003575,0.457779969031641,0.0262398794561922,,
46.7375412066089,0.458433572587131,0.026317142663896,,
46.9314729128604,0.458881757882324,0.0264385582007729,,
47.1254046191119,0.458993238315599,0.0265795707967844,,
47.3193363253634,0.459314947078626,0.0266918581057047,,
47.5132680316149,0.459575256719773,0.0267414671615538,,
47.7071997378664,0.459436896486598,0.0268521915561668,,
47.9011314441179,0.459352295853225,0.0269231424763459,,
48.0950631503694,0.458867327673957,0.0270234923535764,,
48.2889948566209,0.458714254287151,0.0270856047238817,,
48.4829265628724,0.458287289886617,0.0271369653216262,,
48.6768582691238,0.457659717295241,0.0272162966961069,,
48.8707899753753,0.457161733633916,0.0272553156601858,,
49.0647216816268,0.456126153974567,0.0272866008931247,,
49.2586533878783,0.455324004156466,0.0273099368205365,,
49.4525850941298,0.454694733893518,0.0273749863918669,,
49.6465168003813,0.453583324903922,0.027401980347161,,
49.8404485066328,0.452071265423169,0.0274364991959075,,
50.0343802128843,0.450793201674187,0.0274116003541889,,
50.2283119191358,0.449437327978123,0.0274415449839074,,
50.4222436253872,0.447854249236578,0.0274289810391548,,
50.6161753316387,0.446910343842156,0.0274328344313255,,
50.8101070378902,0.444651025924152,0.0274182831601912,,
51.0040387441417,0.442842722753963,0.0274230325334086,,
51.1979704503932,0.440737610003813,0.0274057326888379,,
51.3919021566447,0.439030035346937,0.0273510845816887,,
51.5858338628962,0.436815988670872,0.0273489827314135,,
51.7797655691477,0.434440946140662,0.0272734710656057,,
51.9736972753992,0.432157577875378,0.0272482555990057,,
52.1676289816506,0.429610504625801,0.0271957093421316,,
52.3615606879021,0.427068241445681,0.0271312526003662,,
52.5554923941536,0.42444986599005,0.0270891347544717,,
52.7494241004051,0.421829509917585,0.0270149165349864,,
52.9433558066566,0.419054382786742,0.0269446999150635,,
53.1372875129081,0.4161029807576,0.0268294754051182,,
53.3312192191596,0.413097253238132,0.026754401624784,,
53.5251509254111,0.409933076371878,0.0266860106504527,,
53.7190826316626,0.406771163067721,0.0265429770445613,,
53.913014337914,0.403281033259508,0.0264627025321369,,
54.1069460441655,0.399736295015707,0.0263378378050647,,
54.300877750417,0.39628973877786,0.0262326846610201,,
54.4948094566685,0.392577213993624,0.0261098139970293,,
54.68874116292,0.388758018845569,0.0259815943935569,,
54.8826728691715,0.385327873432925,0.0258449000219887,,
55.076604575423,0.381270155428906,0.0256716523183949,,
55.2705362816745,0.377662320391653,0.0255240108099777,,
55.464467987926,0.373639404654874,0.0254163852971803,,
55.6583996941775,0.369548299109925,0.0252598243984936,,
55.8523314004289,0.364919597566954,0.0250817330078879,,
56.0462631066804,0.360776995984299,0.0249490739193794,,
56.2401948129319,0.35615791458024,0.0247454639106919,,
56.4341265191834,0.351785844390009,0.024554714261539,,
56.6280582254349,0.347306537945435,0.0243849696417371,,
56.8219899316864,0.342582483849131,0.024171476894737,,
57.0159216379379,0.33748607378788,0.0239798716847353,,
57.2098533441894,0.333172007376383,0.0238043402399772,,
57.4037850504409,0.328269980710207,0.0235723283057792,,
57.5977167566924,0.323201865175168,0.0233773480092783,,
57.7916484629438,0.318343129134096,0.0231658695354589,,
57.9855801691953,0.312988955939056,0.0229276059440324,,
58.1795118754468,0.307913483827203,0.022701657039474,,
58.3734435816983,0.3025508222743,0.0224546424752683,,
58.5673752879498,0.297241920321199,0.0221982100050231,,
58.7613069942013,0.291944619123846,0.0219857547097613,,
58.9552387004528,0.286448124461962,0.0217289584577376,,
59.1491704067043,0.280779033190187,0.0214717445303387,,
59.3431021129558,0.275238682012675,0.0212276132735618,,
59.5370338192072,0.269668338637378,0.0209437624359476,,
59.7309655254587,0.26378505780218,0.020678572256223,,
59.9248972317102,0.258111156460949,0.0203930102969108,,
60.1188289379617,0.252304836737047,0.020109907232952,,
60.3127606442132,0.246087715860709,0.0198325775205497,,
60.5066923504647,0.240177802802714,0.0195620316646439,,
60.7006240567162,0.234270188674974,0.0192311249803288,,
60.8945557629677,0.228043978182091,0.0189624923471095,,
61.0884874692192,0.222004228616942,0.0186566461853035,,
61.2824191754707,0.215748556448641,0.0183600158285495,,
61.4763508817221,0.209436648909494,0.0180144500859063,,
61.6702825879736,0.203162620667312,0.0177273588957849,,
61.8642142942251,0.196849263033697,0.0173983654341558,,
62.0581460004766,0.190363874680714,0.0170594083938198,,
62.2520777067281,0.184042028689235,0.0167400753594165,,
62.4460094129796,0.177519256193495,0.0164251548632506,,
62.6399411192311,0.170798492750589,0.0161250483695032,,
62.8338728254826,0.164381011260514,0.0157292268478497,,
63.0278045317341,0.157620034222229,0.015393422582926,,
63.2217362379855,0.151099242343324,0.0150383917773462,,
63.415667944237,0.1444562888475,0.0147056257639417,,
63.6095996504885,0.137607351200855,0.0143511675778276,,
63.80353135674,0.130923299905709,0.014005494047991,,
63.9974630629915,0.124081648099563,0.013603346765414,,
64.191394769243,0.117289617818761,0.0132551334998285,,
64.3853264754945,0.110432404023199,0.0128975696951992,,
64.579258181746,0.103498830375023,0.0125279000413903,,
64.7731898879975,0.0966849072045645,0.0121615044235863,,
64.967121594249,0.0897539154319053,0.0117929261151124,,
65.1610533005004,0.0828189270574188,0.0113716600790728,,
65.3549850067519,0.0758584382411839,0.0109805003535421,,
65.5489167130034,0.0688156477218309,0.0106090926312361,,
65.7428484192549,0.0618051836986746,0.010239732865609,,
65.9367801255064,0.0548526173497791,0.00986692390978661,,
66.1307118317579,0.0477965284031065,0.00945285940561824,,
66.3246435380094,0.0407452495258898,0.00907994266260248,,
66.5185752442609,0.0337370136966728,0.00865496470508331,,
66.7125069505123,0.0266707033524062,0.00824909202762791,,
66.9064386567638,0.0196465872203528,0.00784354271175314,,
67.1003703630153,0.0125536800214473,0.00743408611011098,,
67.2943020692668,0.00546399132489826,0.0070103477053185,,
67.4882337755183,-0.00158732292047611,0.00662215886431117,,
67.6821654817698,-0.00867764824386486,0.00623657038934899,,
