Time domain (s),Current (AC) (A),Potential (AC) (V),Frequency (Hz),Column 5
0,-0.20068021524314,-0.00565289923264833,15.849,0.3
0.000231062488169601,-0.195980941621588,-0.00554835651919028,,
0.000462124976339201,-0.191188665539857,-0.00545829395216701,,
0.000693187464508802,-0.186106784547742,-0.00537526982707393,,
0.000924249952678403,-0.181163402307722,-0.00528167027421445,,
0.001155312440848,-0.176037897863017,-0.00519257766915349,,
0.0013863749290176,-0.170829668734921,-0.00510841303933551,,
0.0016174374171872,-0.165751716137489,-0.00500556154160625,,
0.00184849990535681,-0.160380321593006,-0.00490187154196109,,
0.00207956239352641,-0.154788343119147,-0.0047847370878662,,
0.00231062488169601,-0.14923304488867,-0.00469041450475283,,
0.00254168736986561,-0.143730917023443,-0.00453735059885529,,
0.00277274985803521,-0.138146247190855,-0.00447210378027352,,
0.00300381234620481,-0.132135757646186,-0.00434064373412246,,
0.00323487483437441,-0.126338406352598,-0.00420878575485872,,
0.00346593732254401,-0.120469521732565,-0.00412021898998205,,
0.00369699981071361,-0.11455194329006,-0.00399816544307896,,
0.00392806229888321,-0.108507103131415,-0.00387646897008542,,
0.00415912478705281,-0.102486655563013,-0.00373594173372416,,
0.00439018727522241,-0.0962347981403528,-0.00361724574745903,,
0.00462124976339201,-0.0899617456580047,-0.00347745575324865,,
0.00485231225156161,-0.0838833771075266,-0.00336977221057966,,
0.00508337473973121,-0.0775970320338661,-0.00321923979881378,,
0.00531443722790081,-0.07130502276322,-0.00308110016112861,,
0.00554549971607042,-0.064899364120802,-0.00293296955993583,,
0.00577656220424002,-0.0585260462160104,-0.00280321494141056,,
0.00600762469240962,-0.0520450628894878,-0.0026583672883973,,
0.00623868718057922,-0.0456111289411505,-0.00250421084292674,,
0.00646974966874882,-0.0390853801868399,-0.00236511900815062,,
0.00670081215691842,-0.0326068635267465,-0.0022245082768948,,
0.00693187464508802,-0.0260970567462094,-0.00209047410092111,,
0.00716293713325762,-0.0195920005824987,-0.00192412384792684,,
0.00739399962142722,-0.0130202530671855,-0.00178929558221474,,
0.00762506210959682,-0.00650373147248018,-0.00164854095550337,,
0.00785612459776642,4.0288885009219E-05,-0.00148727856159203,,
0.00808718708593602,0.00662628825080187,-0.00133393397073123,,
0.00831824957410562,0.0131795814469045,-0.00118157888319015,,
0.00854931206227522,0.0197929882174653,-0.00104135187315046,,
0.00878037455044482,0.0262929054927819,-0.000904933651475037,,
0.00901143703861442,0.032800199927882,-0.000767133322827629,,
0.00924249952678403,0.039273075230494,-0.000594927768318154,,
0.00947356201495363,0.0457810776902172,-0.000412916004960628,,
0.00970462450312323,0.0522641850906093,-0.000288178186034216,,
0.00993568699129283,0.0586769696582671,-0.00012219744235864,,
0.0101667494794624,0.0651098529894216,2.44693334554569E-05,,
0.010397811967632,0.071367877078155,0.000172756265513829,,
0.0106288744558016,0.0777309400456626,0.000366308089139178,,
0.0108599369439712,0.0840403301788324,0.000487194484010356,,
0.0110909994321408,0.0902553931605918,0.000643170052281761,,
0.0113220619203104,0.0963787783734016,0.000804318751017608,,
0.01155312440848,0.102568991974838,0.000950687076997081,,
0.0117841868966496,0.108648890772082,0.00111082673105445,,
0.0120152493848192,0.114747769197128,0.00126798188676691,,
0.0122463118729888,0.120660985294374,0.00141463445068402,,
0.0124773743611584,0.126588293365572,0.00152417975184438,,
0.012708436849328,0.132380779844814,0.00170303647409442,,
0.0129394993374976,0.138101253368027,0.00184246939439614,,
0.0131705618256672,0.143903949105546,0.00199405348653103,,
0.0134016243138368,0.149372457220924,0.00215420735248539,,
0.0136326868020064,0.154972155447126,0.00228703529371099,,
0.013863749290176,0.160491641335373,0.00243482125640471,,
0.0140948117783456,0.165729013670539,0.00257318828443998,,
0.0143258742665152,0.171013161309844,0.00270884084017098,,
0.0145569367546848,0.176332938575347,0.00287660872987949,,
0.0147879992428544,0.181372064016023,0.00298460848725401,,
0.015019061731024,0.186229569721103,0.00309442381445502,,
0.0152501242191936,0.191307979108614,0.00323995719149295,,
0.0154811867073632,0.195900546567602,0.00339180775669412,,
0.0157122491955328,0.20069245721727,0.00354876394585046,,
0.0159433116837024,0.205096827163515,0.00366724853014899,,
0.016174374171872,0.20992930077224,0.00377865558980073,,
0.0164054366600416,0.214076589261761,0.00393657818794457,,
0.0166364991482112,0.218466159209432,0.00404723201706148,,
0.0168675616363808,0.222250756375853,0.00416700988397656,,
0.0170986241245504,0.226422346097601,0.00428249931100755,,
0.01732968661272,0.230357501274216,0.00439977233109667,,
0.0175607491008896,0.233886295996134,0.0045264998155865,,
0.0177918115890593,0.237862744995933,0.0046067828210683,,
0.0180228740772289,0.241378384163563,0.00474775062623323,,
0.0182539365653985,0.244590532002393,0.00481531398400659,,
0.0184849990535681,0.247916511929027,0.00489500008981913,,
0.0187160615417377,0.250960926450676,0.00502584902440439,,
0.0189471240299073,0.253928600238974,0.00514482036617148,,
0.0191781865180769,0.256774037002006,0.00524167089044258,,
0.0194092490062465,0.259663142896636,0.0053497807900178,,
0.0196403114944161,0.262202895738487,0.0054303906691282,,
0.0198713739825857,0.264569251066171,0.00549010905982295,,
0.0201024364707553,0.266766594064451,0.00558153419245988,,
0.0203334989589249,0.269254638269306,0.00567321513924046,,
0.0205645614470945,0.271239117090554,0.00575106435738126,,
0.0207956239352641,0.273179926780205,0.00582525401207556,,
0.0210266864234337,0.274693546387535,0.00590077603210215,,
0.0212577489116033,0.276101190696429,0.00596321244807552,,
0.0214888113997729,0.277815615222694,0.00600721248081992,,
0.0217198738879425,0.278974765728356,0.00609771384015945,,
0.0219509363761121,0.280181605118315,0.00614501103297993,,
0.0221819988642817,0.281225827239982,0.0062208990093513,,
0.0224130613524513,0.28192562964173,0.00625820879163852,,
0.0226441238406209,0.282590715997437,0.00633361356351614,,
0.0228751863287905,0.283353189998088,0.00638231773412823,,
0.0231062488169601,0.283957614631242,0.00640403351256236,,
0.0233373113051297,0.284212686211618,0.00649366794619244,,
0.0235683737932993,0.284037278821102,0.00649478713307161,,
0.0237994362814689,0.283985204752042,0.00653499258934875,,
0.0240304987696385,0.283829896125022,0.00658263442066875,,
0.0242615612578081,0.283502286280027,0.00657001425623793,,
0.0244926237459777,0.283123150514067,0.00660530239619428,,
0.0247236862341473,0.28238351601739,0.00662198716313256,,
0.0249547487223169,0.281618483992294,0.00663902722749343,,
0.0251858112104865,0.280869530977996,0.00665645101306955,,
0.0254168736986561,0.279697042202013,0.0066798864310269,,
0.0256479361868257,0.278431916397914,0.00667597815938459,,
0.0258789986749953,0.27715400047159,0.00668433120177614,,
0.0261100611631649,0.275618089508382,0.00665608150375085,,
0.0263411236513345,0.273987714356739,0.00667420167227428,,
0.0265721861395041,0.27197345282231,0.00665150171998086,,
0.0268032486276737,0.270295206070338,0.00663577270310745,,
0.0270343111158433,0.268272174166383,0.00661524717103701,,
0.0272653736040129,0.265986944756813,0.00661597553075177,,
0.0274964360921825,0.263449384507343,0.00658000521974556,,
0.0277274985803521,0.261248569904459,0.00658021839819867,,
0.0279585610685217,0.258360925738084,0.00654899486075067,,
0.0281896235566913,0.255613972916185,0.00647334493365204,,
0.0284206860448609,0.252705681838218,0.00645374672785293,,
0.0286517485330305,0.249648477194344,0.00642718469258208,,
0.0288828110212001,0.246281386160558,0.00635150634168946,,
0.0291138735093697,0.243108887700626,0.00632343784534939,,
0.0293449359975393,0.239667065809838,0.00629750113354088,,
0.0295759984857089,0.236016764926781,0.00623690160523971,,
0.0298070609738785,0.23228332824926,0.00616757597225304,,
0.0300381234620481,0.228555555768724,0.00610712211589481,,
0.0302691859502177,0.224695131449111,0.00607790245590678,,
0.0305002484383873,0.220520800986886,0.00597237912156379,,
0.0307313109265569,0.216592223587416,0.005902307363991,,
0.0309623734147265,0.212222386971178,0.00583369587882299,,
0.0311934359028961,0.207782935546828,0.00575074103672746,,
0.0314244983910657,0.203225814998008,0.00566158980759157,,
0.0316555608792353,0.198555593225511,0.00555987170863848,,
0.0318866233674049,0.193939089966359,0.00548277572103206,,
0.0321176858555745,0.189043602166172,0.00541201468646069,,
0.0323487483437441,0.183978896481045,0.00533717483748442,,
0.0325798108319137,0.178944681533722,0.00524473000124637,,
0.0328108733200833,0.173976632629411,0.0051770493953236,,
0.0330419358082529,0.168638035612634,0.00504623243750624,,
0.0332729982964225,0.163478865739072,0.00494175367758443,,
0.0335040607845921,0.157949330469077,0.00483535275860891,,
0.0337351232727617,0.15243295075337,0.00474259170766533,,
0.0339661857609313,0.146928264863698,0.00461077636409213,,
0.0341972482491009,0.141380457990524,0.00448588221430013,,
0.0344283107372705,0.135629470890002,0.00437821288352813,,
0.0346593732254401,0.129812911573572,0.00425300607200452,,
0.0348904357136097,0.12393219609048,0.00413317491047671,,
0.0351214982017793,0.118080509616939,0.00403173749648689,,
0.0353525606899489,0.112065863282546,0.00390559625274367,,
0.0355836231781185,0.105945629921285,0.00377318400950122,,
0.0358146856662881,0.0999077558113519,0.00367227954164484,,
0.0360457481544577,0.0937047292481866,0.00353600166245105,,
0.0362768106426273,0.0875404613232642,0.00339872895047533,,
0.0365078731307969,0.0812362100784884,0.0032498593306447,,
0.0367389356189665,0.0749019705649954,0.00313880401544075,,
0.0369699981071361,0.0686171100590931,0.00299850416942959,,
0.0372010605953057,0.0622558285728955,0.0028477905559785,,
0.0374321230834753,0.0558593057320669,0.0027248292241624,,
0.0376631855716449,0.0494251433886899,0.00257972575700549,,
0.0378942480598145,0.0428190452594006,0.00244951635777957,,
0.0381253105479841,0.0364056897041435,0.00229560506753046,,
0.0383563730361537,0.0299213032915288,0.00213016082296225,,
0.0385874355243233,0.0233954175001944,0.00198066587966883,,
0.0388184980124929,0.0168541835621897,0.00185004433543368,,
0.0390495605006625,0.0103675817176897,0.00169628582307579,,
0.0392806229888321,0.00382216815045788,0.00156317719688648,,
0.0395116854770017,-0.00271739850375669,0.00142627754720426,,
0.0397427479651713,-0.00933706329840625,0.00127791244971265,,
0.0399738104533409,-0.0158873873589923,0.00113783999405159,,
0.0402048729415105,-0.022453562035336,0.000945059165832429,,
0.0404359354296801,-0.0289914614057605,0.000808880769916698,,
0.0406669979178497,-0.0355051509019731,0.000649767925408717,,
0.0408980604060193,-0.0420386194086268,0.000498023949433879,,
0.0411291228941889,-0.0484653360737084,0.000344052258622884,,
0.0413601853823585,-0.0549252613775674,0.000185035344419049,,
0.0415912478705281,-0.0614065644571456,2.61569962098918E-05,,
0.0418223103586977,-0.067787008287177,-0.000122879613408955,,
0.0420533728468673,-0.0741382175521223,-0.000281001178109364,,
0.0422844353350369,-0.0804288107735219,-0.000440943642097569,,
0.0425154978232065,-0.0867337472034169,-0.000583686157884955,,
0.0427465603113761,-0.0929702108003995,-0.000716750371896779,,
0.0429776227995457,-0.0990538781157994,-0.000874847065777562,,
0.0432086852877153,-0.105195192339228,-0.00103454437454431,,
0.0434397477758849,-0.111291147307766,-0.00118180805002766,,
0.0436708102640545,-0.117326257837718,-0.00133094769589892,,
0.0439018727522241,-0.123214784431169,-0.00148523382492849,,
0.0441329352403937,-0.129007522144955,-0.00163059132974208,,
0.0443639977285633,-0.134841782076964,-0.00179148599082168,,
0.0445950602167329,-0.140691801266715,-0.00192504762122381,,
0.0448261227049025,-0.146243993324652,-0.00205488751113059,,
0.0450571851930721,-0.15179618538259,-0.00222948066431616,,
0.0452882476812417,-0.157225592267165,-0.00236132443168335,,
0.0455193101694113,-0.162608452242643,-0.00252322458446663,,
0.0457503726575809,-0.16785715297178,-0.00267469675791387,,
0.0459814351457505,-0.173315337631363,-0.00279490275822214,,
0.0462124976339201,-0.178279595178014,-0.00291291657343651,,
0.0464435601220897,-0.183587313185419,-0.00306502650575613,,
0.0466746226102593,-0.18845212753177,-0.00320126174925939,,
0.0469056850984289,-0.193329549284315,-0.0033281455646148,,
0.0471367475865985,-0.198059336483175,-0.00346183510208897,,
0.0473678100747681,-0.20284686194808,-0.00360047393265228,,
0.0475988725629377,-0.20728740966862,-0.00373042751773411,,
0.0478299350511073,-0.211834663551724,-0.00384594181558429,,
0.0480609975392769,-0.216015754507125,-0.0039752132296158,,
0.0482920600274465,-0.220235763977297,-0.00410720089243899,,
0.0485231225156161,-0.224499853690138,-0.00423794856725879,,
0.0487541850037857,-0.228170024941652,-0.00434624322149357,,
0.0489852474919553,-0.232116508512237,-0.00445831824029863,,
0.0492163099801249,-0.235885620494965,-0.00459492476960799,,
0.0494473724682945,-0.239340004112938,-0.00466993338485988,,
0.0496784349564641,-0.243132640784758,-0.00477684948509705,,
0.0499094974446337,-0.24622949480753,-0.00488214542908993,,
0.0501405599328033,-0.249575573497661,-0.00497658348386576,,
0.0503716224209729,-0.252763237388231,-0.00509248327941902,,
0.0506026849091425,-0.255488995150442,-0.00518393505936254,,
0.0508337473973121,-0.258557893620351,-0.00528632999990419,,
0.0510648098854817,-0.261098971153432,-0.00536687059601748,,
0.0512958723736513,-0.263706283248037,-0.00543215827380239,,
0.0515269348618209,-0.266084332401756,-0.00553785392739492,,
0.0517579973499905,-0.268209685283512,-0.00564032170390849,,
0.0519890598381601,-0.270645838135339,-0.00570349358554534,,
0.0522201223263297,-0.272401373768757,-0.00578849316430485,,
0.0524511848144993,-0.27399502299801,-0.00587217281314123,,
0.0526822473026689,-0.27582126973573,-0.00594086246374248,,
0.0529133097908385,-0.277342380700363,-0.00599138398066801,,
0.0531443722790081,-0.278690642298926,-0.00605772511530933,,
0.0533754347671778,-0.279931055759725,-0.00612959467783769,,
0.0536064972553474,-0.281252686496655,-0.00620342548213548,,
0.053837559743517,-0.282158592582259,-0.00621677045330715,,
0.0540686222316865,-0.282774939436487,-0.00629084285985204,,
0.0542996847198561,-0.283486572701293,-0.00635910260057226,,
0.0545307472080258,-0.28395743191521,-0.00637285971675317,,
0.0547618096961954,-0.284311901016879,-0.00644833910108922,,
0.054992872184365,-0.284885492319669,-0.00646393132845535,,
0.0552239346725346,-0.28468299727744,-0.00650213113078468,,
0.0554549971607042,-0.284505945442637,-0.00654705493682606,,
0.0556860596488738,-0.284466341742747,-0.00658093609899124,,
0.0559171221370434,-0.284008226972047,-0.00657451232160078,,
0.056148184625213,-0.283320529507406,-0.00660179916361248,,
0.0563792471133826,-0.282397950583901,-0.00662023199386752,,
0.0566103096015522,-0.28172560126593,-0.00662084310543332,,
0.0568413720897218,-0.280790780368295,-0.00664425009959668,,
0.0570724345778914,-0.279714034792969,-0.00663960280931652,,
0.057303497066061,-0.27822686333124,-0.00665864675113736,,
0.0575345595542306,-0.276850691858822,-0.00665351625636346,,
0.0577656220424002,-0.275067017956509,-0.00664108084659221,,
0.0579966845305698,-0.273513018106154,-0.00663697360839377,,
0.0582277470187394,-0.271692846676491,-0.00663882115498815,,
0.058458809506909,-0.26972737032255,-0.00662018935817699,,
0.0586898719950786,-0.267411947088726,-0.00661053948019452,,
0.0589209344832482,-0.265092367065179,-0.00658751620724685,,
0.0591519969714178,-0.262701710505267,-0.00655576682961456,,
0.0593830594595874,-0.260098737916418,-0.00652956186825282,,
0.059614121947757,-0.257280160410059,-0.00648408379823273,,
0.0598451844359266,-0.254500684134502,-0.006466203455469,,
0.0600762469240962,-0.251534106642395,-0.00642463365709167,,
0.0603073094122658,-0.248502116810907,-0.006384241669668,,
0.0605383719004354,-0.244975103570299,-0.00632514860243605,,
0.060769434388605,-0.241667623641883,-0.00630461418792994,,
0.0610004968767746,-0.238218310393792,-0.00624100173748943,,
0.0612315593649442,-0.234559056425177,-0.00621860378800454,,
0.0614626218531138,-0.230673965441272,-0.00613691380473158,,
0.0616936843412834,-0.227036637396472,-0.00606170444643617,,
0.061924746829453,-0.22281283656864,-0.00602327547726933,,
0.0621558093176226,-0.21851202093341,-0.00597887751141268,,
0.0623868718057922,-0.214428317622952,-0.00588259191004248,,
0.0626179342939618,-0.210228635311317,-0.00581600917315406,,
0.0628489967821314,-0.205516525888532,-0.00574340059198786,,
0.063080059270301,-0.200732106596168,-0.00564300775241922,,
0.0633111217584706,-0.196237292214187,-0.00557309943166029,,
0.0635421842466402,-0.191426561813245,-0.00545309239790859,,
0.0637732467348098,-0.186617658572621,-0.00536144165140851,,
0.0640043092229794,-0.181561357824956,-0.00527270079079534,,
0.064235371711149,-0.176444029922674,-0.00519610044309271,,
0.0644664341993186,-0.171293447702606,-0.00509619258450478,,
0.0646974966874882,-0.165981892658534,-0.00500589019172182,,
0.0649285591756578,-0.160606935151431,-0.0049015855275365,,
0.0651596216638274,-0.155157109750303,-0.00478406912871288,,
0.065390684151997,-0.149646851021661,-0.00468823830804288,,
0.0656217466401666,-0.14409342563051,-0.00457750098403142,,
0.0658528091283362,-0.138373682971423,-0.00445381306898751,,
0.0660838716165058,-0.132522567485481,-0.00432866310505142,,
0.0663149341046754,-0.126683328541605,-0.00422717594942279,,
0.066545996592845,-0.120922474775367,-0.00410073270287059,,
0.0667770590810146,-0.11490837658907,-0.00397549746755343,,
0.0670081215691842,-0.108807853719738,-0.003848642075992,,
0.0672391840573538,-0.102813717259914,-0.00372919108270553,,
0.0674702465455234,-0.096754807966821,-0.00360806486207377,,
0.067701309033693,-0.0905543851071086,-0.0034738743552345,,
0.0679323715218626,-0.0843065474371473,-0.00335359907192867,,
0.0681634340100322,-0.0780060875500311,-0.00321010154911949,,
0.0683944964982018,-0.0717172301309334,-0.00309303815450868,,
0.0686255589863714,-0.0653263258080822,-0.00295570859494587,,
0.068856621474541,-0.0589369745715012,-0.00280925499758489,,
0.0690876839627106,-0.0525387616073785,-0.00267081513357814,,
0.0693187464508802,-0.0460417906280745,-0.00255525997652395,,
0.0695498089390498,-0.0395637764370684,-0.00238849757852,,
0.0697808714272194,-0.033043920274783,-0.00222487600972654,,
0.070011933915389,-0.0265797925021928,-0.00207772602941869,,
0.0702429964035586,-0.0200604844880027,-0.00197252956870386,,
0.0704740588917282,-0.0134850826520538,-0.00179102943363407,,
0.0707051213798978,-0.00692959686356968,-0.00165018953554164,,
0.0709361838680674,-0.000430204896844467,-0.0014984633244377,,
0.071167246356237,0.00617641854103624,-0.00135118543705781,,
0.0713983088444066,0.0127688358074454,-0.00118709309918019,,
0.0716293713325762,0.0193012993759243,-0.00105721235006984,,
0.0718604338207458,0.0258728413357017,-0.000923963381398885,,
0.0720914963089154,0.0323842925605249,-0.000758478277627095,,
0.072322558797085,0.0388541073696045,-0.000617766286606258,,
0.0725536212852546,0.0453688474829999,-0.000448090449741478,,
0.0727846837734242,0.0518084913073305,-0.000277149754054573,,
0.0730157462615938,0.0582749943883339,-0.000133979104873116,,
0.0732468087497634,0.0646720653772579,2.58905231436124E-05,,
0.073477871237933,0.07099330921299,0.000181283403642762,,
0.0737089337261026,0.077300849346338,0.000310153331587237,,
0.0739399962142722,0.0836268437988965,0.00046433109490307,,
0.0741710587024418,0.0898669617165148,0.000644424252181697,,
0.0744021211906114,0.0960617660582497,0.000797141743092755,,
0.074633183678781,0.102207214231898,0.000964159955240795,,
0.0748642461669506,0.108317809322483,0.00109253601976844,,
0.0750953086551202,0.114261927268605,0.00123474025996195,,
0.0753263711432898,0.120272919282361,0.00141216158062685,,
0.0755574336314594,0.126039619961617,0.00152497561806975,,
0.075788496119629,0.132025374323482,0.0016833529969138,,
0.0760195586077986,0.137779102164482,0.00181900555264525,,
