Time domain (s),Current (AC) (A),Potential (AC) (V),Frequency (Hz),Column 5
0,0.454612361454084,0.0209272945737773,0.31623,0.5
0.00772034990355121,0.455735371199426,0.0210107488084126,,
0.0154406998071024,0.456506679983957,0.0211062213151334,,
0.0231610497106536,0.457465015586747,0.0212155714230282,,
0.0308813996142049,0.457909239648271,0.0212622971714485,,
0.0386017495177561,0.45848248674932,0.0213318401214115,,
0.0463220994213073,0.458978772739073,0.0213956029831186,,
0.0540424493248585,0.459073559401882,0.021478653015778,,
0.0617627992284097,0.45938876042388,0.021485524449369,,
0.0694831491319609,0.459410830154325,0.0215445918314554,,
0.0772034990355121,0.459572674844256,0.0215932846961588,,
0.0849238489390633,0.459202865386669,0.0216286321589561,,
0.0926441988426145,0.459057714467203,0.0216723466026556,,
0.100364548746166,0.458779862219805,0.0216890536176617,,
0.108084898649717,0.458212274023998,0.0217475820637798,,
0.115805248553268,0.45813106873377,0.0217563869301562,,
0.123525598456819,0.457118124695392,0.0217538876146048,,
0.131245948360371,0.456259385824867,0.0218030116280827,,
0.138966298263922,0.455477608065638,0.0217575523791869,,
0.146686648167473,0.454316683655172,0.0217403872686077,,
0.154406998071024,0.453738909429929,0.0217859543046974,,
0.162127347974575,0.452542899806961,0.0217868368123448,,
0.169847697878127,0.451175991245674,0.021736803344421,,
0.177568047781678,0.449599986135682,0.0217121200770896,,
0.185288397685229,0.448229399285988,0.0217233299452224,,
0.19300874758878,0.446380917888578,0.0216824516520542,,
0.200729097492332,0.444677021520109,0.021641896720467,,
0.208449447395883,0.442985857688436,0.021601415892575,,
0.216169797299434,0.441094651556447,0.021562935864464,,
0.223890147202985,0.439111205269007,0.0215279117632479,,
0.231610497106536,0.436876786534069,0.0214588201721577,,
0.239330847010088,0.43468622431476,0.0214197203676836,,
0.247051196913639,0.432277228353096,0.0213468831716166,,
0.25477154681719,0.430012817420374,0.0212871151727723,,
0.262491896720741,0.427449333345594,0.0212028794809833,,
0.270212246624292,0.424812566447926,0.0210944186174351,,
0.277932596527844,0.422117795771525,0.0210409831162139,,
0.285652946431395,0.419275044723036,0.0209359983896595,,
0.293373296334946,0.416449836280798,0.0208793899029271,,
0.301093646238497,0.413292733046097,0.020751796812517,,
0.308813996142049,0.410275970661406,0.020685669369251,,
0.3165343460456,0.40699663507347,0.020567393134387,,
0.324254695949151,0.403337869889036,0.0204350304606611,,
0.331975045852702,0.400263952561397,0.0203342561713558,,
0.339695395756253,0.396681582597735,0.0202210661446891,,
0.347415745659805,0.393100061469858,0.0200843178795242,,
0.355136095563356,0.389279451595493,0.0199293737887416,,
0.362856445466907,0.385673880120337,0.0198198889468544,,
0.370576795370458,0.38180234009879,0.019677906266101,,
0.378297145274009,0.377997575159104,0.0195182464855987,,
0.386017495177561,0.373723969920089,0.0193794165802572,,
0.393737845081112,0.369803197422935,0.0191923788525838,,
0.401458194984663,0.365585049455295,0.0190687806250365,,
0.409178544888214,0.361147335964253,0.0188932424435788,,
0.416898894791766,0.356812614548621,0.0187364996540031,,
0.424619244695317,0.352128172789013,0.018570588216273,,
0.432339594598868,0.347789773084973,0.0184076543997653,,
0.440059944502419,0.343147207224158,0.0182129974648455,,
0.44778029440597,0.338365432294382,0.0180429631669603,,
0.455500644309522,0.333679009917939,0.017839110637087,,
0.463220994213073,0.328684743096312,0.0176831425679653,,
0.470941344116624,0.323534290489998,0.0174468460928221,,
0.478661694020175,0.318820422423129,0.0172934649163463,,
0.486382043923726,0.313539249105716,0.0170834415696404,,
0.494102393827278,0.308346637655346,0.0168684330652309,,
0.501822743730829,0.303227309027864,0.0166365289182262,,
0.50954309363438,0.297857573843408,0.0164498145521335,,
0.517263443537931,0.292592846719356,0.0162430248212351,,
0.524983793441482,0.286961634744546,0.0160112823550209,,
0.532704143345034,0.281290845801198,0.0157583327584683,,
0.540424493248585,0.275735816838214,0.0155599773754682,,
0.548144843152136,0.270105418331033,0.0153398018224657,,
0.555865193055687,0.264423064000096,0.0150721055904905,,
0.563585542959239,0.258637682225591,0.0148585993700916,,
0.57130589286279,0.252771661051382,0.0145938268657426,,
0.579026242766341,0.247083046556521,0.014343383321441,,
0.586746592669892,0.240725832407277,0.0140998920511257,,
0.594466942573443,0.234637699202307,0.0138472658161541,,
0.602187292476995,0.228562616847551,0.0135977182528992,,
0.609907642380546,0.222420405729359,0.0133484536310271,,
0.617627992284097,0.216462993235486,0.0130788172295673,,
0.625348342187648,0.210248100553087,0.0128149339695653,,
0.633068692091199,0.20389173523963,0.0125141538058582,,
0.640789041994751,0.197332462805077,0.0122515572554796,,
0.648509391898302,0.191137694604446,0.0119873506338966,,
0.656229741801853,0.184614992845022,0.011716771094493,,
0.663950091705404,0.178210208523585,0.0114443389626993,,
0.671670441608956,0.171511479442966,0.0111559004326578,,
0.679390791512507,0.165062591028796,0.0108380629455653,,
0.687111141416058,0.158284354329522,0.0105988831629937,,
0.694831491319609,0.151744074595689,0.0103045432841036,,
0.70255184122316,0.144967252622726,0.00999271493305365,,
0.710272191126712,0.138356519518625,0.00970222844633373,,
0.717992541030263,0.131639964886493,0.00941015209850882,,
0.725712890933814,0.124783918240137,0.00912734544933258,,
0.733433240837365,0.118032561340764,0.0088038221877782,,
0.741153590740916,0.111135770576664,0.00849509271854387,,
0.748873940644468,0.104221437206312,0.00821476517482012,,
0.756594290548019,0.0973690688483633,0.00787299219405169,,
0.76431464045157,0.0904756734274079,0.0075985996826744,,
0.772034990355121,0.0834705146279164,0.00728378023700271,,
0.779755340258672,0.0765066658366939,0.00696311333607857,,
0.787475690162224,0.0695295539863097,0.00664921008155206,,
0.795196040065775,0.0625583132501144,0.00632918990378917,,
0.802916389969326,0.0555059025918493,0.00602767543982585,,
0.810636739872877,0.0485083833144349,0.00566476269571448,,
0.818357089776429,0.0415012438981086,0.0053823871953127,,
0.82607743967998,0.0344423254988148,0.00503682145266948,,
0.833797789583531,0.0273576590806684,0.00471723242368149,,
0.841518139487082,0.0203247716454894,0.00441383842052945,,
0.849238489390633,0.0132607248633198,0.00407363509076752,,
0.856958839294185,0.00616336127653584,0.00374151580052473,,
0.864679189197736,-0.000881692804914194,0.00342850179034526,,
0.872399539101287,-0.0080200480865473,0.00311606039963186,,
0.880119889004838,-0.0150793201674187,0.00278730945918859,,
0.887840238908389,-0.0221147541099568,0.00243214391961688,,
0.895560588811941,-0.0292104553933257,0.00211180038027337,,
0.903280938715492,-0.0362761644789103,0.00177499234710954,,
0.911001288619043,-0.0433763928864732,0.00143198655031407,,
0.918721638522594,-0.0503665555870725,0.00112829613237997,,
0.926441988426146,-0.0573485128750705,0.00076976897970793,,
0.934162338329697,-0.064421295592208,0.000457098541208012,,
0.941882688233248,-0.0714171171980497,0.000108730331532136,,
0.949603038136799,-0.0783834417603156,-0.000229768613231318,,
0.95732338804035,-0.085353020193096,-0.000539010071635371,,
0.965043737943902,-0.0922710318518555,-0.000902603222405762,,
0.972764087847453,-0.0992263922852145,-0.00122429410166891,,
0.980484437751004,-0.106044595002762,-0.00156716516447242,,
0.988204787654555,-0.112976966133574,-0.00186331047885524,,
0.995925137558106,-0.119804718253718,-0.00222674194883554,,
1.00364548746166,-0.126605307628699,-0.00254800504767427,,
1.01136583736521,-0.13336034281648,-0.00289992686638918,,
1.01908618726876,-0.140177625961925,-0.00322202531597826,,
1.02680653717231,-0.14687437442571,-0.00353401197946868,,
1.03452688707586,-0.153483409858237,-0.00389210461501621,,
1.04224723697941,-0.16027749149219,-0.00420444832358591,,
1.04996758688297,-0.166795418550316,-0.00453077405217339,,
1.05768793678652,-0.173361446303002,-0.00486800986576164,,
1.06540828669007,-0.179845419929674,-0.0051674494262488,,
1.07312863659362,-0.186497180096781,-0.00549703234909238,,
1.08084898649717,-0.192753665732712,-0.00584305955565778,,
1.08856933640072,-0.19902995753699,-0.0061521898585184,,
1.09628968630427,-0.205427915803978,-0.00648932125326329,,
1.10401003620782,-0.211819578538885,-0.00681853028927915,,
1.11173038611137,-0.217948243652654,-0.00712055000571254,,
1.11945073601493,-0.224326112806032,-0.00745325875717029,,
1.12717108591848,-0.23021809420804,-0.00777002510902669,,
1.13489143582203,-0.236199061894983,-0.0080666251506325,,
1.14261178572558,-0.242420179373149,-0.0083768097469803,,
1.15033213562913,-0.248406452283757,-0.00866845831438079,,
1.15805248553268,-0.254219845639212,-0.00897028603487549,,
1.16577283543623,-0.260076529619771,-0.0092965275547181,,
1.17349318533978,-0.265938872505572,-0.00960978745443297,,
1.18121353524334,-0.271596999648441,-0.00991609171181151,,
1.18893388514689,-0.277288372859608,-0.0102175724922771,,
1.19665423505044,-0.282857018563331,-0.0104911094428046,,
1.20437458495399,-0.288459617698509,-0.0108085427279212,,
1.21209493485754,-0.294100414444073,-0.0110945560461069,,
1.21981528476109,-0.29934671475793,-0.0113922103812003,,
1.22753563466464,-0.304483656727979,-0.0116785470609666,,
1.23525598456819,-0.309975907210931,-0.0119608686677717,,
1.24297633447175,-0.315135131120371,-0.0122426243918108,,
1.2506966843753,-0.320451955540811,-0.0125268019593556,,
1.25841703427885,-0.325154293588248,-0.0128165069889215,,
1.2661373841824,-0.330018405589301,-0.0130751457282856,,
1.27385773408595,-0.334988834272594,-0.01338958791878,,
1.2815780839895,-0.339800247718577,-0.0136145667385965,,
1.28929843389305,-0.344457102315129,-0.0138753039598858,,
1.2970187837966,-0.34941394962584,-0.0141428048275727,,
1.30473913370016,-0.353789415159217,-0.0143984760507632,,
1.31245948360371,-0.358334364904601,-0.0146533388700023,,
1.32017983350726,-0.362542043897543,-0.0149223218116008,,
1.32790018341081,-0.366908172237269,-0.0151758069757717,,
1.33562053331436,-0.371286750168529,-0.0154061785236173,,
1.34334088321791,-0.375370994290872,-0.0156909556574263,,
1.35106123312146,-0.379315817135307,-0.0158967449884342,,
1.35878158302501,-0.383309660246403,-0.0161192682812468,,
1.36650193292856,-0.387026995100095,-0.0163436542714988,,
1.37422228283212,-0.390877031281721,-0.0165918915466814,,
1.38194263273567,-0.394508916666254,-0.0168115887940119,,
1.38966298263922,-0.398130898966613,-0.0170449480681301,,
1.39738333254277,-0.401631214804262,-0.0172327403061585,,
1.40510368244632,-0.405097577210457,-0.0174400420262266,,
1.41282403234987,-0.408039924991211,-0.0176961713449901,,
1.42054438225342,-0.411424516216654,-0.0178686039079325,,
1.42826473215697,-0.414485630271182,-0.0180575245431438,,
1.43598508206053,-0.417435759046644,-0.0182689828068647,,
1.44370543196408,-0.420503663787463,-0.0184372083009072,,
1.45142578186763,-0.423190511996525,-0.0186379888957631,,
1.45914613177118,-0.425982332897833,-0.0188495482099782,,
1.46686648167473,-0.428698890359418,-0.0190007972210307,,
1.47458683157828,-0.431073649944366,-0.0191953598421564,,
1.48230718148183,-0.433526219476396,-0.0193508159221087,,
1.49002753138538,-0.435760638211333,-0.0195146490880123,,
1.49774788128894,-0.438208963564431,-0.0196916895534809,,
1.50546823119249,-0.440252677192702,-0.0198323215259646,,
1.51318858109604,-0.44238155734487,-0.0199688104281952,,
1.52090893099959,-0.44409903508592,-0.0201309493141499,,
1.52862928090314,-0.44610653172064,-0.0202597280636891,,
1.53634963080669,-0.447682536830631,-0.0203928183009721,,
1.54406998071024,-0.449360331498669,-0.020515668754864,,
1.55179033061379,-0.450592841060451,-0.0206578131164079,,
1.55951068051734,-0.451855908710541,-0.0207791242344415,,
1.5672310304209,-0.453282306513188,-0.0208705850365507,,
1.57495138032445,-0.454401284288545,-0.0209772674114044,,
1.582671730228,-0.455648648476587,-0.0211084983195975,,
1.59039208013155,-0.456813534120723,-0.021202866007584,,
1.5981124300351,-0.457136940555323,-0.0212943773349399,,
1.60583277993865,-0.458125197619582,-0.0213917630643468,,
1.6135531298422,-0.458420875418494,-0.0214956699189655,,
1.62127347974575,-0.459115788982253,-0.0215600693987845,,
1.62899382964931,-0.45935063354981,-0.0216202449679548,,
1.63671417955286,-0.459794008775547,-0.0217225350146699,,
1.64443452945641,-0.459991221623243,-0.0217603952664174,,
1.65215487935996,-0.459867008653173,-0.0218495116970661,,
1.65987522926351,-0.460213121445058,-0.0218925726809047,,
1.66759557916706,-0.459972830181205,-0.021947513834486,,
1.67531592907061,-0.45994142325711,-0.0219907364991152,,
1.68303627897416,-0.459258110449098,-0.02202107859411,,
1.69075662887772,-0.459091526426026,-0.0220920564610876,,
1.69847697878127,-0.458229038530778,-0.022117197823992,,
1.70619732868482,-0.457476970024072,-0.0221012992129377,,
1.71391767858837,-0.457252877376475,-0.0221529831722633,,
1.72163802849192,-0.455745627965178,-0.022127572341375,,
1.72935837839547,-0.455054675635088,-0.0221371384548057,,
1.73707872829902,-0.453953664883876,-0.0221713878355683,,
1.74479907820257,-0.452856756838964,-0.0221637618916222,,
1.75251942810613,-0.451339321398231,-0.0221422044529045,,
1.76023977800968,-0.449856688224738,-0.0221194074614606,,
1.76796012791323,-0.448226074679158,-0.0221149881865235,,
1.77568047781678,-0.446901042016664,-0.0221043172543585,,
1.78340082772033,-0.444956076284872,-0.0220545465177189,,
1.79112117762388,-0.442905076816102,-0.0220087639072424,,
1.79884152752743,-0.441052280503445,-0.0219792302161994,,
1.80656187743098,-0.439222473493334,-0.0219019467983967,,
1.81428222733453,-0.436597095142466,-0.0218766976482989,,
1.82200257723809,-0.435028022191397,-0.0217904409466301,,
1.82972292714164,-0.43236529506593,-0.0217802853719844,,
1.83744327704519,-0.429886128679261,-0.0216780963757635,,
1.84516362694874,-0.427512500875362,-0.0216156067502808,,
1.85288397685229,-0.424695497845726,-0.0215321289371966,,
1.86060432675584,-0.421798704252172,-0.0214670490507181,,
1.86832467665939,-0.418916977493827,-0.0214006285610195,,
1.87604502656294,-0.416070477420614,-0.0212748409061021,,
1.8837653764665,-0.412923772424296,-0.0212147764924753,,
1.89148572637005,-0.409766174035387,-0.0210937853676727,,
1.8992060762736,-0.406401671923554,-0.0209926843484372,,
1.90692642617715,-0.403238626838348,-0.0208404618842923,,
1.9146467760807,-0.399606458508553,-0.0207319437587978,,
1.92236712598425,-0.396188409005865,-0.020615722217312,,
1.9300874758878,-0.392899241070071,-0.0204851649790783,,
1.93780782579135,-0.38890546869529,-0.0203554430915953,,
1.94552817569491,-0.385212537870455,-0.0202121939113171,,
1.95324852559846,-0.381204547496253,-0.0200521602439871,,
1.96096887550201,-0.377246355488183,-0.0199293872621404,,
1.96868922540556,-0.373168053216345,-0.0197451250547021,,
1.97640957530911,-0.369016963275827,-0.0196030076399563,,
1.98412992521266,-0.364628482260393,-0.0194113620097567,,
1.99185027511621,-0.360162403506824,-0.0192791071232246,,
1.99957062501976,-0.355908675172473,-0.0190667663518562,,
2.00729097492332,-0.351536887927504,-0.0189161337488168,,
2.01501132482687,-0.346542621105877,-0.0186894572807015,,
2.02273167473042,-0.342080220640715,-0.0185574752305029,,
2.03045202463397,-0.337317473779816,-0.0183705419216733,,
2.03817237453752,-0.332588397405109,-0.018167393376908,,
2.04589272444107,-0.32760113347872,-0.0179520581425678,,
2.05361307434462,-0.322538959794186,-0.0177733739223975,,
2.06133342424817,-0.317298247649255,-0.0175661530427247,,
2.06905377415173,-0.31231077151392,-0.0173483454396317,,
2.07677412405528,-0.307257652077773,-0.0171222314859327,,
2.08449447395883,-0.30193233929947,-0.0169100523953549,,
2.09221482386238,-0.296428488060771,-0.0167279998253846,,
2.09993517376593,-0.290879648525395,-0.0164424176559734,,
2.10765552366948,-0.285535095469268,-0.0162043426921361,,
2.11537587357303,-0.279978050521291,-0.0159790674575371,,
2.12309622347658,-0.274256897321287,-0.01577427178972,,
2.13081657338013,-0.268627984276732,-0.0154912731446051,,
2.13853692328369,-0.262872594700011,-0.0152578363984417,,
2.14625727318724,-0.25685519781057,-0.0149844341819061,,
2.15397762309079,-0.251126475824803,-0.0147518024713449,,
2.16169797299434,-0.245097053761722,-0.014476109776945,,
2.16941832289789,-0.239317401628774,-0.0141997703593839,,
2.17713867280144,-0.233229268423804,-0.0139287158826584,,
2.18485902270499,-0.227197724271257,-0.0136947031486794,,
2.19257937260854,-0.22097377734047,-0.0134015792440669,,
2.2002997225121,-0.214704276222483,-0.0131336505959552,,
2.20802007241565,-0.208333409964342,-0.0128475227538765,,
2.2157404223192,-0.202239405645182,-0.0125777078298772,,
2.22346077222275,-0.195880776769628,-0.0122733437419833,,
2.2311811221263,-0.189268911884479,-0.0119847738462995,,
2.23890147202985,-0.183062507559944,-0.0117023646623995,,
2.2466218219334,-0.176384787165037,-0.0114060610355762,,
2.25434217183695,-0.169806804975027,-0.0111154162364162,,
2.26206252174051,-0.163344122979329,-0.010803958403844,,
2.26978287164406,-0.156691655449066,-0.0105226641437275,,
2.27750322154761,-0.150041097799322,-0.0102194318213664,,
2.28522357145116,-0.143379151602779,-0.00992113076311174,,
2.29294392135471,-0.136588394575656,-0.00958922704725618,,
2.30066427125826,-0.129874740132461,-0.00926017969203041,,
2.30838462116181,-0.123037721554982,-0.00896389964365563,,
2.31610497106536,-0.116171701088137,-0.00864463397624782,,
2.32382532096891,-0.109347980937978,-0.00830723311351944,,
2.33154567087247,-0.102381868584658,-0.00800014739898725,,
2.33926602077602,-0.0955738518965467,-0.00768799568635625,,
2.34698637067957,-0.0886235844779059,-0.00737527809095928,,
2.35470672058312,-0.0817381115242898,-0.00704111084403847,,
2.36242707048667,-0.0746837202491899,-0.00673022899928188,,
2.37014742039022,-0.0677555225609942,-0.00638131848528811,,
2.37786777029377,-0.0606864181322642,-0.00606054379717014,,
2.38558812019732,-0.0537115344758191,-0.00570082761701896,,
2.39330847010088,-0.0467026973879201,-0.00540716477643866,,
2.40102882000443,-0.0396332392776125,-0.00506696144667673,,
2.40874916990798,-0.032601625096113,-0.00473152433188107,,
2.41646951981153,-0.0255190807674324,-0.00436804233665367,,
2.42418986971508,-0.0184514618013286,-0.00403724343953238,,
2.43191021961863,-0.0113730909152643,-0.00369612391862484,,
2.43963056952218,-0.00431070643650956,-0.00337322043343358,,
2.44735091942573,0.00280395217942125,-0.00301868140692463,,
2.45507126932929,0.00992200613849746,-0.00269879596315414,,
2.46279161923284,0.0169846381943565,-0.0023766200415194,,
2.47051196913639,0.0240517266380939,-0.00199243953677364,,
2.47823231903994,0.0310958965155998,-0.00166331470950265,,
2.48595266894349,0.0380965635590553,-0.00133555743225022,,
2.49367301884704,0.0451042688659059,-0.000978242885506297,,
2.50139336875059,0.0521957259703431,-0.000661564110744806,,
2.50911371865414,0.059211353744533,-0.000326935399901362,,
2.5168340685577,0.0661893497988613,2.0082101505281E-05,,
2.52455441846125,0.0731724388679077,0.000397445066256719,,
2.5322747683648,0.0801710899263706,0.000755972218928758,,
2.53999511826835,0.0870956093261588,0.00106416275219523,,
2.5477154681719,0.0940628534605266,0.00139997375381862,,
2.55543581807545,0.100947194633094,0.00173877585006377,,
2.563156167979,0.107818520323605,0.00205596661399454,,
2.57087651788255,0.114689280123591,0.00239931598246956,,
2.5785968677861,0.121499206692221,0.00276264640195567,,
2.58631721768966,0.128224850940899,0.00308167628487732,,
2.59403756759321,0.135052284747623,0.00342518733414243,,
2.60175791749676,0.141876924469884,0.00375919290027316,,
2.60947826740031,0.148535475323283,0.00410370098107915,,
2.61719861730386,0.155162336307324,0.00441747623831334,,
2.62491896720741,0.161845503398526,0.00474566129599019,,
2.63263931711096,0.168469251984684,0.00507881130127164,,
2.64035966701451,0.174933136497746,0.00543148426199203,,
2.64808001691807,0.181433520949621,0.00575333682204571,,
