Time domain (s),Current (AC) (A),Potential (AC) (V),Frequency (Hz),Column 5
0,-0.173599552418809,-0.0102343870999584,0.15849,0.3
0.0154041658779734,-0.169980313261155,-0.0100823664846721,,
0.0308083317559467,-0.166383913607475,-0.00994577697330223,,
0.0462124976339201,-0.16301590899353,-0.00979083063408837,,
0.0616166635118935,-0.159331942681615,-0.00958842278335803,,
0.0770208293898669,-0.155638383778032,-0.00942167114809545,,
0.0924249952678402,-0.152053175481299,-0.00925338350777105,,
0.107829161145814,-0.14826341658698,-0.00907583595121553,,
0.123233327023787,-0.144467308310556,-0.00889253307773341,,
0.13863749290176,-0.140864879027826,-0.00871891226064925,,
0.154041658779734,-0.136938494220738,-0.00855757948406133,,
0.169445824657707,-0.133183451372458,-0.00837687005586085,,
0.18484999053568,-0.129302973968356,-0.0081650476434918,,
0.200254156413654,-0.125336939782369,-0.0079717513329931,,
0.215658322291627,-0.121369809300191,-0.00779314633621775,,
0.231062488169601,-0.117497691154543,-0.00762980734893715,,
0.246466654047574,-0.113470218702868,-0.00743413493264899,,
0.261870819925547,-0.109529262292244,-0.00720870372440974,,
0.277274985803521,-0.105411756515905,-0.00703728973908824,,
0.292679151681494,-0.101386659372643,-0.00681734426321379,,
0.308083317559468,-0.0972207795268879,-0.00663962534282803,,
0.323487483437441,-0.0931415070802006,-0.0064467616215107,,
0.338891649315414,-0.0889731605680166,-0.00622717977132403,,
0.354295815193388,-0.0848890461464869,-0.0060449656851036,,
0.369699981071361,-0.0806581193934157,-0.0058290827858829,,
0.385104146949334,-0.0764308012819722,-0.00562749204804947,,
0.400508312827308,-0.0721980016895752,-0.00542157123880305,,
0.415912478705281,-0.0680306144365581,-0.00521356062675116,,
0.431316644583254,-0.0637554247247863,-0.00501465946512836,,
0.446720810461228,-0.059495217727621,-0.00482594400237968,,
0.462124976339201,-0.0552123539425141,-0.0046120338770077,,
0.477529142217175,-0.0509263839848667,-0.00435458479998507,,
0.492933308095148,-0.046561480701487,-0.00414451991177511,,
0.508337473973121,-0.0422660551891947,-0.00394011838916786,,
0.523741639851095,-0.0379522210366997,-0.0037121982257875,,
0.539145805729068,-0.0336482078709133,-0.0034880835933162,,
0.554549971607041,-0.029278691007731,-0.00330740969176313,,
0.569954137485015,-0.0249427025363817,-0.00306627988484909,,
0.585358303362988,-0.0205681609823252,-0.00286788236570246,,
0.600762469240962,-0.0161591317772688,-0.00265948722993414,,
0.616166635118935,-0.0118103531836944,-0.00240324605893294,,
0.631570800996908,-0.0074514795293637,-0.00219157202256248,,
0.646974966874882,-0.00307597871614032,-0.00198431373952079,,
0.662379132752855,0.00127812148185991,-0.00175353263609956,,
0.677783298630828,0.00568434142792762,-0.00152611193558938,,
0.693187464508802,0.0100501582914662,-0.00129895872983843,,
0.708591630386775,0.0144092146618287,-0.00109520922570683,,
0.723995796264749,0.0188179697928375,-0.000862992427758336,,
0.739399962142722,0.0231119792558835,-0.000639448311452906,,
0.754804128020695,0.0275004529073638,-0.000410226200924679,,
0.770208293898669,0.0318112494058303,-0.000210037720773659,,
0.785612459776642,0.0361608273820438,3.78463288082109E-05,,
0.801016625654615,0.0404537405488991,0.000252678057217626,,
0.816420791532589,0.0448233944491052,0.000470886906960732,,
0.831824957410562,0.0490985841608771,0.000668966776081081,,
0.847229123288536,0.0533745047367761,0.000916871723690704,,
0.862633289166509,0.0577094654304465,0.00114194766545284,,
0.878037455044482,0.0619782372416018,0.00136824823165904,,
0.893441620922456,0.0662291257211459,0.00158389916276791,,
0.908845786800429,0.0704971895076781,0.0017966578067945,,
0.924249952678402,0.0746640286125997,0.00200675822165186,,
0.939654118556376,0.0788288578411717,0.0022471022627113,,
0.955058284434349,0.0830410333614807,0.00246004062977878,,
0.970462450312323,0.087278012583105,0.00267445439762737,,
0.985866616190296,0.0914139726786545,0.00291104515284779,,
1.00127078206827,0.0954012247638327,0.00310778336856687,,
1.01667494794624,0.0996608607733986,0.00331586085430846,,
1.03207911382422,0.103760277662591,0.00353650641412306,,
1.04748327970219,0.107719734071433,0.00374746364813072,,
1.06288744558016,0.111814765775862,0.0039257321866546,,
1.07829161145814,0.115871427113616,0.00419670437763209,,
1.09369577733611,0.119704809460525,0.00436604527857032,,
1.10909994321408,0.12363048624299,0.00461190639903641,,
1.12450410909206,0.127596840182033,0.00479610997752777,,
1.13990827497003,0.131482319437505,0.00500646116872217,,
1.155312440848,0.135401030171259,0.0052113328969603,,
1.17071660672598,0.139276071773415,0.00544572100002361,,
1.18612077260395,0.142922170187742,0.005617318887992,,
1.20152493848192,0.146730497598792,0.0058250620052851,,
1.2169291043599,0.150407315145962,0.00601398017890586,,
1.23233327023787,0.154104939481253,0.00623866323774047,,
1.24773743611584,0.157676855186673,0.00642930340887293,,
1.26314160199382,0.161375758534186,0.00661860192660413,,
1.27854576787179,0.164926844611983,0.0068122514137765,,
1.29394993374976,0.168434261558182,0.00701708552556424,,
1.30935409962774,0.172166967371576,0.00720001850395002,,
1.32475826550571,0.175338186819286,0.00737533206130658,,
1.34016243138368,0.178828245742465,0.00758129884621495,,
1.35556659726166,0.182321776270249,0.00774580812306658,,
1.37097076313963,0.185575217932263,0.00793798638906429,,
1.3863749290176,0.188912549092372,0.00811570321964705,,
1.40177909489558,0.192083380268514,0.00828999277362907,,
1.41718326077355,0.195301740452425,0.00849962507265811,,
1.43258742665152,0.198333730283912,0.00866542166803841,,
1.4479915925295,0.201471329981773,0.00884390754605402,,
1.46339575840747,0.204591023508519,0.00902707458235374,,
1.47879992428544,0.207549926927291,0.00915906652755139,,
1.49420409016342,0.210349867398408,0.00933990552352615,,
1.50960825604139,0.213350064640364,0.00951079287854029,,
1.52501242191936,0.216345876697558,0.00967591655741717,,
1.54041658779734,0.219119140628033,0.00983850321568802,,
1.55582075367531,0.221851293451357,0.00999023961779288,,
1.57122491955328,0.224735831445192,0.0101525420628823,,
1.58662908543126,0.227088665786524,0.01030177070162,,
1.60203325130923,0.229688166770769,0.0104512125002438,,
1.6174374171872,0.232166527025939,0.0105969344498744,,
1.63284158306518,0.234584773706651,0.0107609756108977,,
1.64824574894315,0.237253341350913,0.0108904096374616,,
1.66364991482112,0.239512442367938,0.01103499055476,,
1.6790540806991,0.241837503872438,0.011159037069691,,
1.69445824657707,0.244096787605495,0.0112884752758604,,
1.70986241245504,0.246329577513942,0.0114652349767588,,
1.72526657833302,0.24838568101965,0.0115703144414265,,
1.74067074421099,0.250373814161534,0.0116938301464451,,
1.75607491008896,0.252935858359263,0.0118197407654792,,
1.77147907596694,0.254565502646779,0.0119189269862354,,
1.78688324184491,0.256518006162464,0.0120521728131164,,
1.80228740772288,0.258004766513121,0.0121804699869541,,
1.81769157360086,0.260271358887449,0.0122831211007624,,
1.83309573947883,0.261781141458112,0.0123870929699432,,
1.8484999053568,0.263413343770073,0.0124918004497121,,
1.86390407123478,0.264914173255178,0.012632485974581,,
1.87930823711275,0.266616538523346,0.0126957150482654,,
1.89471240299073,0.267898108770306,0.0128101401110796,,
1.9101165688687,0.269538350587665,0.0129041436208786,,
1.92552073474667,0.270869436879239,0.0129581148681344,,
1.94092490062465,0.27236569846355,0.0131093455379601,,
1.95632906650262,0.273488123046823,0.0131714544773405,,
1.97173323238059,0.274435322955611,0.0132486434337658,,
1.98713739825857,0.27539896730726,0.0133390566623448,,
2.00254156413654,0.276543865962443,0.0134030547834616,,
2.01794573001451,0.277403179459941,0.0135220397959976,,
2.03334989589249,0.278555386756395,0.0135594221885831,,
2.04875406177046,0.279321149645618,0.0136485648170561,,
2.06415822764843,0.280194897709627,0.0137141637271223,,
2.07956239352641,0.280760951976106,0.013744708284928,,
2.09496655940438,0.281626477818685,0.0138230549921077,,
2.11037072528235,0.282217198749455,0.0138705018750045,,
2.12577489116033,0.282778502399107,0.0139440629337595,,
2.1411790570383,0.282856704860712,0.013964509564409,,
2.15658322291627,0.283252650501597,0.0140508936531787,,
2.17198738879425,0.283351499874794,0.0140659903886458,,
2.18739155467222,0.2838866751319,0.0141068334946772,,
2.20279572055019,0.283977302283667,0.0141646625179122,,
2.21819988642817,0.284238951641187,0.0141570556357,,
2.23360405230614,0.284199484978321,0.0142106548980565,,
2.24900821818411,0.284175183746093,0.014220924189043,,
2.26441238406209,0.284232922012138,0.0142559451044582,,
2.27981654994006,0.283713460333766,0.0142687514160502,,
2.29522071581803,0.283706699840589,0.0142772276562297,,
2.31062488169601,0.283437376409734,0.0143360765032337,,
2.32602904757398,0.283194181371424,0.0143010848450578,,
2.34143321345195,0.28250899625222,0.0143073542534742,,
2.35683737932993,0.282039781482589,0.0143197426045054,,
2.3722415452079,0.281774660520465,0.0143287705526256,,
2.38764571108587,0.28107613713094,0.014310647782696,,
2.40304987696385,0.280497840890331,0.0143038433847611,,
2.41845404284182,0.279719287878883,0.0142969052394464,,
2.43385820871979,0.278512813920988,0.0142817917855571,,
2.44926237459777,0.277974532491341,0.0142888135229833,,
2.46466654047574,0.276828537539968,0.0142606095443201,,
2.48007070635371,0.276157421555211,0.0142242135386588,,
2.49547487223169,0.274698799473449,0.0141890546962582,,
2.51087903810966,0.273667550190038,0.0141797090981117,,
2.52628320398763,0.272694221888705,0.0141534444564519,,
2.54168736986561,0.271370992386497,0.0140918036328999,,
2.55709153574358,0.26972691353247,0.014069467820514,,
2.57249570162155,0.268440775384715,0.0140297114119416,,
2.58789986749953,0.267118276746635,0.0139892862664714,,
2.6033040333775,0.265530474430399,0.0139311563116324,,
2.61870819925547,0.263969714086867,0.0138948606165057,,
2.63411236513345,0.262034568594202,0.013789099876123,,
2.64951653101142,0.260392316900493,0.0137560475549505,,
2.66492069688939,0.258702010890424,0.0136971109362287,,
2.68032486276737,0.256890016003184,0.0136397667472448,,
2.69572902864534,0.255311349488537,0.013570903565197,,
2.71113319452331,0.253010041068169,0.0135136471479309,,
2.72653736040129,0.251042006689782,0.0134481610872164,,
2.74194152627926,0.249190910571739,0.0133685813963815,,
2.75734569215723,0.246821631787547,0.0132872462711897,,
2.77274985803521,0.244630318418315,0.0131681818461473,,
2.78815402391318,0.242582254418005,0.0131047479717878,,
2.80355818979115,0.24027199291208,0.0130077309663434,,
2.81896235566913,0.237893212894234,0.0129328825890602,,
2.8343665215471,0.235425815600971,0.0128018812103923,,
2.84977068742507,0.232741534377976,0.0127290390438026,,
2.86517485330305,0.230300630909322,0.012613109322968,,
2.88057901918102,0.228091594085007,0.012519001323029,,
2.89598318505899,0.225295490650558,0.0124211818333073,,
2.91138735093697,0.222558769926439,0.0122849935640761,,
2.92679151681494,0.219667288723397,0.0121680147622332,,
2.94219568269291,0.217086607490425,0.0120643103878111,,
2.95759984857089,0.214114183085301,0.0119507922994142,,
2.97300401444886,0.211348958660224,0.0118377423268461,,
2.98840818032683,0.208414539189711,0.011689203323034,,
3.00381234620481,0.205424391329503,0.0115462691703461,,
3.01921651208278,0.202386189152935,0.0114666100670049,,
3.03462067796075,0.199174772178232,0.0112714726402348,,
3.05002484383873,0.196192663823422,0.0111701590002222,,
3.0654290097167,0.192832333282812,0.01105154179298,,
3.08083317559468,0.189673173093201,0.0108978158986046,,
3.09623734147265,0.186479479573581,0.0107490553756948,,
3.11164150735062,0.183239193465855,0.0105979082979815,,
3.12704567322859,0.179797188859036,0.0104683488832493,,
3.14244983910657,0.176479956462424,0.0103182174496994,,
3.15785400498454,0.172952646308264,0.010144333317462,,
3.17325817086251,0.169541863303376,0.0100075390054171,,
3.18866233674049,0.16587294822458,0.00987215740006864,,
3.20406650261846,0.162436790530778,0.00967660201273768,,
3.21947066849643,0.158919164326303,0.009496795379349,,
3.23487483437441,0.155159576416732,0.00936512108417764,,
3.25027900025238,0.151582156390854,0.00920090855932409,,
3.26568316613036,0.147739295649796,0.00903762390691609,,
3.28108733200833,0.143982105888143,0.00885352063895928,,
3.2964914978863,0.140374377840492,0.00866737772346449,,
3.31189566376428,0.136508472039925,0.00851218060791403,,
3.32729982964225,0.132619178587289,0.00832926852755644,,
3.34270399552022,0.128755442539599,0.00817453534822876,,
3.3581081613982,0.124733885519453,0.00795473824835335,,
3.37351232727617,0.120926448849058,0.00779601354566717,,
3.38891649315414,0.11695621219434,0.007620102304708,,
3.40432065903212,0.113033481707887,0.00741836110107252,,
3.41972482491009,0.108926208029328,0.007249722373877,,
3.43512899078806,0.104898598540629,0.00706571523684918,,
3.45053315666604,0.100686651415359,0.00685020223272526,,
3.46593732254401,0.0966416382246324,0.00666877391235943,,
3.48134148842198,0.0926491330535403,0.0064824303757951,,
3.49674565429996,0.0885171927106901,0.00630355997406351,,
3.51214982017793,0.0843044690422857,0.0061064497734451,,
3.5275539860559,0.0800810108070138,0.00591391624097115,,
3.54295815193388,0.0758484167701525,0.00570467264526364,,
3.55836231781185,0.0716649276668341,0.00549562549102012,,
3.57376648368982,0.0674032589414146,0.0052906450930359,,
3.5891706495678,0.0632252741585538,0.00507500670074368,,
3.60457481544577,0.058895817785341,0.00489272574083355,,
3.61997898132374,0.0546451120218287,0.0046776766729324,,
3.63538314720172,0.050343976633543,0.00445627460450204,,
3.65078731307969,0.0459785252020679,0.0042564560194478,,
3.66619147895766,0.0417210589453795,0.00407136636456684,,
3.68159564483564,0.0373641951673985,0.00383732516876911,,
3.69699981071361,0.0331242696497617,0.00363303858531649,,
3.71240397659158,0.0287135046424033,0.003431585774468,,
3.72780814246956,0.0243862408615719,0.00321153789825601,,
3.74321230834753,0.0199994116543776,0.00303203219647186,,
3.7586164742255,0.01562411639669,0.00281650247392529,,
3.77402064010348,0.0112964643442911,0.00257807269223553,,
3.78942480598145,0.00695531414504382,0.00235903210097588,,
3.80482897185942,0.00257924234422111,0.00213473774546324,,
3.8202331377374,-0.00183424056411017,0.00188831237823983,,
3.83563730361537,-0.00624555371956396,0.00169572869049794,,
3.85104146949334,-0.0106137458915158,0.00147616564853692,,
3.86644563537132,-0.0149837195447776,0.00127768453727795,,
3.88184980124929,-0.0193521857907772,0.00104449598102496,,
3.89725396712726,-0.0237208804318165,0.000824636187065408,,
3.91265813300524,-0.0280826318636478,0.000630681588683402,,
3.92806229888321,-0.0324185289769812,0.000385572797227507,,
3.94346646476118,-0.0367088841193914,0.000164321194599637,,
3.95887063063916,-0.0410688083909049,-3.44441298407716E-05,,
3.97427479651713,-0.0453955697026488,-0.000265275388529496,,
3.9896789623951,-0.0497073026207783,-0.000483918917256077,,
4.00508312827308,-0.0539512478911144,-0.000691960876350262,,
4.02048729415105,-0.0582775980917868,-0.000906460326113745,,
4.03589146002902,-0.0625933507626156,-0.00115763790491696,,
4.051295625907,-0.0668102540602471,-0.00136150443800576,,
4.06669979178497,-0.0710691820451899,-0.00156672098370647,,
4.08210395766294,-0.0752848063305989,-0.00180452382455432,,
4.09750812354092,-0.0795024861713655,-0.00202659462988208,,
4.11291228941889,-0.0836722030537879,-0.00225102273277455,,
4.12831645529686,-0.0878485433923625,-0.0024597020817243,,
4.14372062117484,-0.0920217775583967,-0.00268739027699372,,
4.15912478705281,-0.0962012240695118,-0.00291136698248007,,
4.17452895293078,-0.100236461952538,-0.00310321088002841,,
4.18993311880876,-0.104312719584701,-0.00331138867630498,,
4.20533728468673,-0.108390027834047,-0.00352687451299261,,
4.2207414505647,-0.112408684237188,-0.00373143904021811,,
4.23614561644268,-0.116456072736329,-0.00396740285459707,,
4.25154978232065,-0.120320425450626,-0.00417275523748062,,
4.26695394819862,-0.124241739887832,-0.00440823421760861,,
4.2823581140766,-0.12820887037001,-0.00459638334379697,,
4.29776227995457,-0.132097250242487,-0.00480789019594274,,
4.31316644583254,-0.135933007897809,-0.00503308525646462,,
4.32857061171052,-0.139827234683303,-0.00520784501607796,,
4.34397477758849,-0.143544409633995,-0.00545900378665598,,
4.35937894346646,-0.147206221627055,-0.00563113457433984,,
4.37478310934444,-0.150942581761085,-0.00582854988616788,,
4.39018727522241,-0.154588680175411,-0.00603236208438362,,
4.40559144110038,-0.158272052660222,-0.00623784612484357,,
4.42099560697836,-0.161897367125933,-0.00641275844006151,,
4.43639977285633,-0.16548403715092,-0.0066077245030014,,
4.45180393873431,-0.16893737015171,-0.00682854351644879,,
4.46720810461228,-0.172535962397772,-0.00701906665862406,,
4.48261227049025,-0.176013231198726,-0.0072028000314841,,
4.49801643636822,-0.179294445697572,-0.00740643250665851,,
4.5134206022462,-0.182833107085207,-0.00761257065539711,,
4.52882476812417,-0.186022963568159,-0.00778988624384125,,
4.54422893400215,-0.189516859528006,-0.00797078166449161,,
4.55963309988012,-0.192757511067795,-0.00813742880961366,,
4.57503726575809,-0.195703578685334,-0.00832803554390127,,
4.59044143163607,-0.19903842033951,-0.00852905994517439,,
4.60584559751404,-0.202213431144879,-0.00867995833635371,,
4.62124976339201,-0.205048087662036,-0.00886019755892331,,
4.63665392926999,-0.207906497263325,-0.00904555679836605,,
4.65205809514796,-0.21117126731931,-0.00920790939872251,,
4.66746226102593,-0.214080700372476,-0.00940362988047516,,
4.68286642690391,-0.216797093938058,-0.00956432944681307,,
4.69827059278188,-0.219618594900925,-0.00972195073361792,,
4.71367475865985,-0.222281361311178,-0.00987069453810463,,
4.72907892453783,-0.224941112906905,-0.0100305874405593,,
4.7444830904158,-0.227868954600274,-0.0102125695586683,,
4.75988725629377,-0.230152676602582,-0.0103439763590809,,
4.77529142217175,-0.232902233127933,-0.0105150894127983,,
4.79069558804972,-0.23541805016962,-0.010675421173842,,
4.80609975392769,-0.237768326486507,-0.010826971583497,,
4.82150391980567,-0.240253036123782,-0.0109714187534156,,
4.83690808568364,-0.242503229734257,-0.0111398234226971,,
4.85231225156161,-0.244579569040486,-0.0112574897696631,,
4.86771641743959,-0.246907051532407,-0.0114007645602081,,
4.88312058331756,-0.24895639454494,-0.0115125418428677,,
4.89852474919553,-0.251122310385753,-0.0116705831800368,,
4.91392891507351,-0.253199608951149,-0.0117915597746463,,
4.92933308095148,-0.254949663103613,-0.0119319924333756,,
4.94473724682945,-0.257113386352044,-0.0120359475841347,,
4.96014141270743,-0.258813239274775,-0.0121849923202255,,
4.9755455785854,-0.260860709447981,-0.0122859569631695,,
4.99094974446337,-0.262312936468631,-0.012410590712689,,
5.00635391034135,-0.264128768392538,-0.0125356277941502,,
5.02175807621932,-0.265621923804309,-0.0126469557692066,,
5.03716224209729,-0.267254308832301,-0.0127496382300567,,
5.05256640797527,-0.268471197604008,-0.0128203759652212,,
5.06797057385324,-0.269911913514655,-0.0129634355060775,,
5.08337473973121,-0.271318096095294,-0.0130554202663662,,
5.09877890560919,-0.272636392264644,-0.013165377330782,,
5.11418307148716,-0.273818747706343,-0.0132538177855124,,
5.12958723736513,-0.275017364874871,-0.01332953343096,,
5.14499140324311,-0.276162080814022,-0.0134450096645855,,
5.16039556912108,-0.277095211588362,-0.0134873762368626,,
5.17579973499905,-0.278177804076705,-0.0135974816772779,,
5.19120390087703,-0.279107645962474,-0.0136887956108658,,
5.206608066755,-0.27976852984945,-0.0137358600598492,,
5.22201223263297,-0.280853817399262,-0.013807897652359,,
5.23741639851095,-0.281366244510411,-0.0138923424041253,,
5.25282056438892,-0.282157587644084,-0.0139562443943131,,
5.26822473026689,-0.282428875272281,-0.0139914701104034,,
5.28362889614487,-0.283031655461149,-0.0140525257891699,,
5.29903306202284,-0.283414628263777,-0.0141092346781009,,
5.31443722790081,-0.283873793651659,-0.0141786809151316,,
