Time domain (s),Current (AC) (A),Potential (AC) (V),Frequency (Hz),Column 5
0,0.254468754507947,0.00544871800339086,7.9433,0.3
0.000307354153815165,0.256341411117741,0.00552476993265261,,
0.00061470830763033,0.258182092421971,0.00556856629143931,,
0.000922062461445495,0.259997924345879,0.00567682048499396,,
0.00122941661526066,0.261663746407689,0.00573080898569911,,
0.00153677076907582,0.263379632662208,0.00580895584789687,,
0.00184412492289099,0.265096980644982,0.00588644171344299,,
0.00215147907670615,0.266360279288763,0.00594358060947986,,
0.00245883323052132,0.268208451950297,0.00604202646562335,,
0.00276618738433648,0.269476866642968,0.00609047112344419,,
0.00307354153815165,0.270949557859178,0.00615499825624832,,
0.00338089569196681,0.272194036751685,0.00621098573876244,,
0.00368824984578198,0.273300930472256,0.00628939380125004,,
0.00399560399959714,0.274461359990141,0.00632963463772551,,
0.00430295815341231,0.275600411732306,0.0064012781457703,,
0.00461031230722747,0.276442184490753,0.00644875796170474,,
0.00491766646104264,0.277796110286301,0.00649426011830201,,
0.0052250206148578,0.27863916205697,0.00653983157293592,,
0.00553237476867297,0.279428495314293,0.0066049237512642,,
0.00583972892248813,0.280069463153805,0.00663667291301406,,
0.0061470830763033,0.280748070495865,0.00670774071429747,,
0.00645443723011846,0.281689058059572,0.00678303036516281,,
0.00676179138393363,0.282013013583932,0.0068118370256891,,
0.00706914553774879,0.282719759194887,0.00688030348531177,,
0.00737649969156396,0.282959299912561,0.00688028216283909,,
0.00768385384537912,0.283120455452598,0.00695629677777365,,
0.00799120799919429,0.283835606001016,0.00696832265233827,,
0.00829856215300945,0.283925502288655,0.00704205576270089,,
0.00860591630682462,0.283946331916279,0.00706180037235837,,
0.00891327046063978,0.284277047933815,0.00711568226070058,,
0.00922062461445495,0.284046643017731,0.00713519232315907,,
0.00952797876827011,0.284084465236311,0.00715338039231472,,
0.00983533292208528,0.28416102325363,0.00717370070873313,,
0.0101426870759004,0.283991097344067,0.00720841369417879,,
0.0104500412297156,0.283840904765938,0.0072316551893481,,
0.0107573953835308,0.283319798643279,0.00724425677067408,,
0.0110647495373459,0.283288188769779,0.0072951321903747,,
0.0113721036911611,0.282704411048217,0.00733227060708241,,
0.0116794578449763,0.28223154195795,0.00733425892765505,,
0.0119868119987914,0.281686134603064,0.00737316710959135,,
0.0122941661526066,0.280822435920802,0.00736559763180678,,
0.0126015203064218,0.280301877946239,0.00738602989120674,,
0.0129088744602369,0.279516564441615,0.00741072131451492,,
0.0132162286140521,0.278876875614326,0.00740780013576448,,
0.0135235827678673,0.277815660901702,0.00742781660694813,,
0.0138309369216824,0.276974436291351,0.00740969783582868,,
0.0141382910754976,0.275769972209805,0.00745650066325698,,
0.0144456452293128,0.274818752548318,0.00740195777826314,,
0.0147529993831279,0.273542115634216,0.00744790770678572,,
0.0150603535369431,0.272460802158096,0.00743814201432036,,
0.0153677076907582,0.271099202289213,0.00740391944574537,,
0.0156750618445734,0.26966195798317,0.00742353612056723,,
0.0159824159983886,0.268401400079865,0.00741946352829448,,
0.0162897701522037,0.266918111333811,0.00742779528447546,,
0.0165971243060189,0.265589583066682,0.0074140262977731,,
0.0169044784598341,0.264067193089826,0.00740302390189473,,
0.0172118326136492,0.262464225342951,0.00738364177427187,,
0.0175191867674644,0.260520126764729,0.00734978168773148,,
0.0178265409212796,0.258715075086697,0.00735536817556115,,
0.0181338950750947,0.256919159210254,0.0073402718649378,,
0.0184412492289099,0.25482066558517,0.00731374670898299,,
0.0187486033827251,0.253194310186227,0.00730272299063195,,
0.0190559575365402,0.251216957290219,0.00730182744678132,,
0.0193633116903554,0.248697303211865,0.00726508882643584,,
0.0196706658441706,0.24670186142871,0.00724662356513628,,
0.0199780199979857,0.244651970268082,0.00720953845461025,,
0.0202853741518009,0.242359614933272,0.00717199491092257,,
0.0205927283056161,0.24001189664083,0.00714674377270796,,
0.0209000824594312,0.237755719080313,0.0071117802482088,,
0.0212074366132464,0.235399413134378,0.00709983966353489,,
0.0215147907670615,0.232953210900802,0.00705192806752963,,
0.0218221449208767,0.230464983979915,0.00701452845053252,,
0.0221294990746919,0.228017685450149,0.0069700497726215,,
0.022436853228507,0.225246431396023,0.00691335331789178,,
0.0227442073823222,0.22252049091778,0.0068546738732076,,
0.0230515615361374,0.219794733155569,0.00684109145814071,,
0.0233589156899525,0.216896674175382,0.00680362787372557,,
0.0236662698437677,0.214257889244302,0.00676330707797757,,
0.0239736239975829,0.211463978402234,0.00671375365157978,,
0.024280978151398,0.208476571282503,0.00665616165299987,,
0.0245883323052132,0.205349751830518,0.00663419950618849,,
0.0248956864590284,0.20231977187538,0.00654713985043065,,
0.0252030406128435,0.199290340068338,0.00648848705883687,,
0.0255103947666587,0.1962051798716,0.00641010031882194,,
0.0258177489204739,0.193061915976754,0.00639702964309841,,
0.026125103074289,0.189810484191089,0.0063146609313196,,
0.0264324572281042,0.186521024631309,0.00626122681490271,,
0.0267398113819193,0.183067737309527,0.00621947208287033,,
0.0270471655357345,0.179709759237826,0.00614120261645512,,
0.0273545196895497,0.176359272523428,0.00606563577344588,,
0.0276618738433648,0.17307442654345,0.00599793159221962,,
0.02796922799718,0.16955878737582,0.00592571770803207,,
0.0282765821509952,0.165958733401505,0.00585181401788804,,
0.0285839363048103,0.16246410657753,0.00579068248885095,,
0.0288912904586255,0.158853820505435,0.00573833048792016,,
0.0291986446124407,0.155327218375898,0.00563065733174506,,
0.0295059987662558,0.151737579215394,0.00559453706310586,,
0.029813352920071,0.147843535145931,0.00550178430715453,,
0.0301207070738862,0.144086710816341,0.00544828622332005,,
0.0304280612277013,0.140360765496124,0.00533148704885811,,
0.0307354153815165,0.136581649810656,0.00525193290346637,,
0.0310427695353317,0.132629319327053,0.0051677304590414,,
0.0313501236891468,0.128858974011111,0.00510896039384834,,
0.031657477842962,0.12486388797607,0.00501087701973901,,
0.0319648319967772,0.12093640687279,0.00491413696140608,,
0.0322721861505923,0.116968362810454,0.00483362330474613,,
0.0325795403044075,0.112998126155736,0.00474995392213673,,
0.0328868944582226,0.108902911735275,0.0046764127140273,,
0.0331942486120378,0.104886447924515,0.00457813743766478,,
0.033501602765853,0.100904517443763,0.0044714397846124,,
0.0338089569196681,0.0967126234029819,0.00438766378963962,,
0.0341163110734833,0.0926163355258344,0.00431700111533573,,
0.0344236652272985,0.088472518640918,0.0042241417470219,,
0.0347310193811136,0.0843409437301313,0.00412443786499272,,
0.0350383735349288,0.0801593046266349,0.00401861976393647,,
0.035345727688744,0.0759166612080252,0.00391718343100589,,
0.0356530818425591,0.0717176412420049,0.00383788515528583,,
0.0359604359963743,0.0674961700435787,0.00373310652477032,,
0.0362677901501895,0.0631990544079923,0.00364800853649427,,
0.0365751443040046,0.058851874579696,0.00354585790073081,,
0.0368824984578198,0.0546497484411353,0.00345088227700785,,
0.037189852611635,0.0503497093490403,0.00332916827260421,,
0.0374972067654501,0.0460736288966135,0.00323533340116722,,
0.0378045609192653,0.0417282762286351,0.00312756962448324,,
0.0381119150730805,0.0373924247943097,0.00303213023698046,,
0.0384192692268956,0.0330946011341001,0.00293991054284515,,
0.0387266233807108,0.0287859515490071,0.00280837220917629,,
0.0390339775345259,0.0244307322153122,0.00270402002811299,,
0.0393413316883411,0.0201045647306715,0.0026133995194253,,
0.0396486858421563,0.015719768239331,0.00250407920223905,,
0.0399560399959714,0.0113767680402618,0.0023923494456457,,
0.0402633941497866,0.00695686723131402,0.00230979416223098,,
0.0405707483036018,0.00261167443986345,0.00217419922814344,,
0.0408781024574169,-0.00177385291560429,0.00207611052341639,,
0.0411854566112321,-0.00615099817311376,0.00194148576183339,,
0.0414928107650473,-0.0105376903432841,0.00185871192307463,,
0.0418001649188624,-0.0148998072071791,0.00171262633245206,,
0.0421075190726776,-0.0192685475272263,0.00160791699997231,,
0.0424148732264928,-0.023657569326802,0.00149465202534893,,
0.0427222273803079,-0.0280335726091128,0.00140539615490987,,
0.0430295815341231,-0.0323650845376832,0.00126138417475063,,
0.0433369356879383,-0.0366574495564431,0.00116033697694595,,
0.0436442898417534,-0.0409801454364798,0.00104732787199424,,
0.0439516439955686,-0.0453297005731893,0.000921162801428288,,
0.0442589981493837,-0.0496756013892631,0.000814870275355872,,
0.0445663523031989,-0.053942979990676,0.00069989950292193,,
0.0448737064570141,-0.058318846235963,0.000600856617544387,,
0.0451810606108293,-0.0624962371917204,0.000482511563816512,,
0.0454884147646444,-0.0667360256723333,0.000366309418588173,,
0.0457957689184596,-0.0710460684671687,0.000257010423874604,,
0.0461031230722747,-0.0752773606523035,0.00012988584203999,,
0.0464104772260899,-0.0794103059333286,4.58113324506293E-05,,
0.0467178313799051,-0.0836883734226011,-8.2933757303838E-05,,
0.0470251855337202,-0.0878199483333877,-0.00019630534429016,,
0.0473325396875354,-0.0919067578163863,-0.000311531986395774,,
0.0476398938413506,-0.0960017895208153,-0.000425415312725441,,
0.0479472479951657,-0.100197680474791,-0.000537166391791466,,
0.0482546021489809,-0.104142702317123,-0.000644972813420797,,
0.0485619563027961,-0.108295655003628,-0.000755828348636634,,
0.0488693104566112,-0.112246706475009,-0.000878752403362437,,
0.0491766646104264,-0.11628071102482,-0.000985170198961605,,
0.0494840187642416,-0.120109479791927,-0.00111769203168111,,
0.0497913729180567,-0.124189939892821,-0.00125042442381762,,
0.0500987270718719,-0.128106320997169,-0.00131383745742664,,
0.0504060812256871,-0.131981499636349,-0.00146281757370925,,
0.0507134353795022,-0.135835346178819,-0.00154930152270616,,
0.0510207895333174,-0.139790417402898,-0.00169079745109446,,
0.0513281436871325,-0.14343505408897,-0.00174427687776557,,
0.0516354978409477,-0.147031590779674,-0.00188683626447705,,
0.0519428519947629,-0.150864287941464,-0.00199025292205324,,
0.052250206148578,-0.154582056719259,-0.00211182833038492,,
0.0525575603023932,-0.158124874896617,-0.00223368892678799,,
0.0528649144562084,-0.161900016508393,-0.00232168677134181,,
0.0531722686100235,-0.165272543344125,-0.00241891458123655,,
0.0534796227638387,-0.169092952852777,-0.00255630060302536,,
0.0537869769176539,-0.172539890792455,-0.00263235519759597,,
0.054094331071469,-0.175798813935423,-0.00273670737865883,,
0.0544016852252842,-0.179233327184939,-0.00285479123209686,,
0.0547090393790994,-0.182747276229275,-0.00294890862629638,,
0.0550163935329145,-0.185928590737741,-0.00305852745809965,,
0.0553237476867297,-0.189314684238833,-0.00318386095223255,,
0.0556311018405449,-0.192539074051793,-0.00327723205989017,,
0.05593845599436,-0.195729250287801,-0.00338783172543433,,
0.0562458101481752,-0.198872970972726,-0.00348621361416024,,
0.0565531643019904,-0.201886278089963,-0.00356888084055562,,
0.0568605184558055,-0.204976371619559,-0.00365361634679706,,
0.0571678726096207,-0.20802786638744,-0.00376871238875776,,
0.0574752267634358,-0.210924509318381,-0.00384014533738508,,
0.057782580917251,-0.213852351011749,-0.00397741941619234,,
0.0580899350710662,-0.216660330988264,-0.00405383915810686,,
0.0583972892248813,-0.219392255416548,-0.00415347907271801,,
0.0587046433786965,-0.222290725507807,-0.00424847068829548,,
0.0590119975325117,-0.224936453648095,-0.00433582885867034,,
0.0593193516863268,-0.227778784238586,-0.00443440264964989,,
0.059626705840142,-0.230330779054567,-0.00452241915136753,,
0.0599340599939572,-0.2327583442529,-0.00461837560883138,,
0.0602414141477723,-0.235392378567154,-0.00471001959620532,,
0.0605487683015875,-0.23787238326661,-0.00479436863263016,,
0.0608561224554027,-0.240112847248392,-0.00488392301768625,,
0.0611634766092178,-0.242363360611923,-0.00495456436951702,,
0.061470830763033,-0.244600718421165,-0.00505435354143691,,
0.0617781849168482,-0.24680463919659,-0.00512650612351573,,
0.0620855390706633,-0.249065064904846,-0.00522013576615343,,
0.0623928932244785,-0.25090387336975,-0.00528738684483621,,
0.0627002473782936,-0.253274065734102,-0.00535103442564377,,
0.0630076015321088,-0.255214509991689,-0.00544930970200674,,
0.063314955685924,-0.256922904888905,-0.00551263744572461,,
0.0636223098397391,-0.258792683721198,-0.00561031569285397,,
0.0639296639935543,-0.260642318110987,-0.00566865397797622,,
0.0642370181473695,-0.262161921668358,-0.00573413529142996,,
0.0645443723011846,-0.264177599252034,-0.00581601358633854,,
0.0648517264549998,-0.265689254662022,-0.00590778550854809,,
0.065159080608815,-0.267182592789824,-0.00597168895902778,,
0.0654664347626301,-0.268493945749966,-0.0060087714042445,,
0.0657737889164453,-0.26982302216519,-0.00606938852862937,,
0.0660811430702605,-0.271412468925713,-0.00616843141400647,,
0.0663884972240756,-0.272809332988731,-0.00622361397317928,,
0.0666958513778908,-0.273493239095713,-0.0062757260962929,,
0.067003205531706,-0.274842596990466,-0.00637299921644185,,
0.0673105596855211,-0.276298843763815,-0.00640839452101183,,
0.0676179138393363,-0.277038478260492,-0.00646163673517464,,
0.0679252679931514,-0.278069179395807,-0.00651033459735784,,
0.0682326221469666,-0.279132769416844,-0.00656244672047146,,
0.0685399763007818,-0.279790364415249,-0.00661125386032735,,
0.068847330454597,-0.280796398886273,-0.00665968252629323,,
0.0691546846084121,-0.281246245756534,-0.00673682456696856,,
0.0694620387622273,-0.28179567286412,-0.00677251838615511,,
0.0697693929160425,-0.282849396219441,-0.0068096194885352,,
0.0700767470698576,-0.283048236941034,-0.00685324526754139,,
0.0703841012236728,-0.283224512232701,-0.00691028288183304,,
0.0706914553774879,-0.283846157851851,-0.00692041105633345,,
0.0709988095313031,-0.284175731894189,-0.00700126587255534,,
0.0713061636851183,-0.284315326942475,-0.00702685283971416,,
0.0716135178389334,-0.284214330655904,-0.00704996640004785,,
0.0719208719927486,-0.284509554084265,-0.00710728120648341,,
0.0722282261465638,-0.284411070143131,-0.00712007202475373,,
0.0725355803003789,-0.284428291129127,-0.00716453204550138,,
0.0728429344541941,-0.284499367665493,-0.00720272059398619,,
0.0731502886080093,-0.284160749179582,-0.00722101527550478,,
0.0734576427618244,-0.284012201045739,-0.00722679100027923,,
0.0737649969156396,-0.283904946735079,-0.00727255169185703,,
0.0740723510694548,-0.283270922104775,-0.00728227473937748,,
0.0743797052232699,-0.282754566598943,-0.00730898913227707,,
0.0746870593770851,-0.282280418496454,-0.00733756391091323,,
0.0749944135309003,-0.282035807408898,-0.00737076566611128,,
0.0753017676847154,-0.281263055631459,-0.00736690629856485,,
0.0756091218385306,-0.280637435938617,-0.00740057181754228,,
0.0759164759923457,-0.279691880474115,-0.0074140262977731,,
0.0762238301461609,-0.278772042291087,-0.00737901746301972,,
0.0765311842999761,-0.277974532491341,-0.00742084948901534,,
0.0768385384537912,-0.276794917790119,-0.00742364273293017,,
0.0771458926076064,-0.276025135148197,-0.00741886916436973,,
0.0774532467614216,-0.274615663678985,-0.00741984999811107,,
0.0777606009152367,-0.27355559094156,-0.0074590806824455,,
0.0780679550690519,-0.272513698449298,-0.00741780037542927,,
0.0783753092228671,-0.271201431908998,-0.00742771532520337,,
0.0786826633766822,-0.269860844383771,-0.0074268224466616,,
0.0789900175304974,-0.268326395148816,-0.0074291226083969,,
0.0792973716843126,-0.267241016240989,-0.00742195825759229,,
0.0796047258381277,-0.265353239879565,-0.00739106199474815,,
0.0799120799919429,-0.263708612877442,-0.00740730971889381,,
0.0802194341457581,-0.261959106873074,-0.00736788713230574,,
0.0805267882995732,-0.260553837872593,-0.00736820696939544,,
0.0808341424533884,-0.258671314597083,-0.00735458190938321,,
0.0811414966072035,-0.256698849354926,-0.0073364364851729,,
0.0814488507610187,-0.25494683100512,-0.00731022583568963,,
0.0817562049148339,-0.252709473195878,-0.00733596472546605,,
0.082063559068649,-0.250772135110831,-0.00727496113126458,,
0.0823709132224642,-0.248991932813123,-0.00725732744639762,,
0.0826782673762794,-0.246534265148552,-0.00721775293719196,,
0.0829856215300945,-0.24443462954827,-0.00720007660737965,,
0.0832929756839097,-0.242066081628204,-0.00716063003301004,,
0.0836003298377249,-0.239847543570237,-0.0071248296014601,,
0.08390768399154,-0.23743496108651,-0.00709828045772376,,
0.0842150381453552,-0.234859213186397,-0.00708587344396072,,
0.0845223922991704,-0.232614546735883,-0.00705704546096175,,
0.0848297464529855,-0.229765090220152,-0.00702041345297921,,
0.0851371006068007,-0.227240320092907,-0.00697764057287875,,
0.0854444547606159,-0.22481640921521,-0.00692205288672598,,
0.085751808914431,-0.222027294668977,-0.00689597550269649,,
0.0860591630682462,-0.219102330753109,-0.00684043046148908,,
0.0863665172220613,-0.216528227297282,-0.00680846807501334,,
0.0866738713758765,-0.213588920172919,-0.00672445753284157,,
0.0869812255296917,-0.210877916730275,-0.00669932100291692,,
0.0872885796835068,-0.20775086888325,-0.00664179297175505,,
0.087595933837322,-0.204628663011067,-0.00659511274854463,,
0.0879032879911372,-0.201683691689719,-0.00655270235047878,,
0.0882106421449523,-0.198353829047409,-0.00648280728518946,,
0.0885179962987675,-0.195373867605973,-0.00644476799401339,,
0.0888253504525827,-0.192053597555333,-0.00638287152127059,,
0.0891327046063978,-0.188879454651114,-0.00632698532050124,,
0.089440058760213,-0.185620348792115,-0.0062594783721468,,
0.0897474129140282,-0.182314650345009,-0.00616721603306658,,
0.0900547670678433,-0.178935500053125,-0.00612548795412504,,
0.0903621212216585,-0.175576448524737,-0.00606420716777967,,
0.0906694753754737,-0.172136636510299,-0.00599258764751642,,
0.0909768295292888,-0.168518493648836,-0.00595527065510071,,
0.091284183683104,-0.165049629785344,-0.00585454329438528,,
0.0915915378369192,-0.161417006678362,-0.00578686310094101,,
0.0918988919907343,-0.157793610730986,-0.00572396447198464,,
0.0922062461445495,-0.154116450591255,-0.00564070021635477,,
0.0925136002983647,-0.150415948478464,-0.00558368392453579,,
0.0928209544521798,-0.146793557469262,-0.00549788229466319,,
0.093128308605995,-0.143025404745702,-0.00541636648178967,,
0.0934356627598101,-0.139324674237871,-0.00534246279164563,,
0.0937430169136253,-0.135411033873999,-0.00525495536396248,,
0.0940503710674405,-0.131521420668308,-0.00519328810780051,,
0.0943577252212556,-0.127578043270262,-0.00508840286492163,,
0.0946650793750708,-0.123763983143715,-0.00502648506970615,,
0.094972433528886,-0.119799639081022,-0.00490025603172262,,
0.0952797876827011,-0.115699856759767,-0.00482064058422216,,
0.0955871418365163,-0.111879949720202,-0.00477149228480434,,
0.0958944959903315,-0.10784617356543,-0.00466897383638809,,
0.0962018501441466,-0.103790791239899,-0.00458701025158925,,
0.0965092042979618,-0.0996539175641907,-0.00449549153374162,,
0.096816558451777,-0.0956409253580344,-0.00436885736877812,,
0.0971239126055921,-0.0914490541567577,-0.00429311994598791,,
0.0974312667594073,-0.0872369014759527,-0.00419561227863996,,
0.0977386209132225,-0.0830801117527794,-0.00411793451083975,,
0.0980459750670376,-0.0789184343757557,-0.00401027734651915,,
0.0983533292208528,-0.0747347397169016,-0.00391364390054916,,
0.0986606833746679,-0.0705627845630899,-0.00381995295580229,,
0.0989680375284831,-0.06635652447431,-0.00370864698335227,,
0.0992753916822983,-0.0620640680975342,-0.00363470331357219,,
0.0995827458361134,-0.0577677290050829,-0.00352446613006263,,
0.0998900999899286,-0.0534536207785402,-0.00342747020205758,,
0.100197454143744,-0.0491402434161247,-0.00330949296098293,,
0.100504808297559,-0.044812431487198,-0.00319601476163323,,
0.100812162451374,-0.0404901010392248,-0.00311055429132256,,
0.101119516605189,-0.0361681360233153,-0.0029969908020826,,
0.101426870759004,-0.0318610166849885,-0.00290478976511066,,
