Time domain (s),Current (AC) (A),Potential (AC) (V),Frequency (Hz),Column 5
0,-0.20908671635657,-0.0128962728805266,0.19953,0.5
0.0122357853455621,-0.202803704602317,-0.0126158106028109,,
0.0244715706911241,-0.196390750236436,-0.0123579027953533,,
0.0367073560366862,-0.189941861822267,-0.0120444576363994,,
0.0489431413822483,-0.183363101532785,-0.0117191828329495,,
0.0611789267278103,-0.176924682093314,-0.0114063001884119,,
0.0734147120733724,-0.170525309100015,-0.0111062779034099,,
0.0856504974189345,-0.163881825081824,-0.0107844522901548,,
0.0978862827644966,-0.157299810921829,-0.0105025584637741,,
0.110122068110059,-0.150553900718752,-0.0101664813625164,,
0.122357853455621,-0.143944865286224,-0.00984252358383797,,
0.134593638801183,-0.137196550048419,-0.00954333664958629,,
0.146829424146745,-0.130460825874778,-0.00919834015805909,,
0.159065209492307,-0.123574008931167,-0.00885503457813197,,
0.171300994837869,-0.116895864118367,-0.00853835580337048,,
0.183536780183431,-0.110035856238342,-0.00819332899669556,,
0.195772565528993,-0.103202728158217,-0.00785603592116013,,
0.208008350874555,-0.0961803096977367,-0.00751020407888303,,
0.220244136220117,-0.0892427748158911,-0.00718955738805782,,
0.232479921565679,-0.0823037544714193,-0.00687536108709885,,
0.244715706911241,-0.0753249803176202,-0.00652955282327028,,
0.256951492256803,-0.0683795937047509,-0.00617385171607987,,
0.269187277602366,-0.0612877121824205,-0.00584747546224529,,
0.281423062947928,-0.0544054223630032,-0.00550627510094293,,
0.29365884829349,-0.0473408450584671,-0.00515475411585431,,
0.305894633639052,-0.0402657987792327,-0.00482883258924272,,
0.318130418984614,-0.0332422485377035,-0.00442471145368284,,
0.330366204330176,-0.0261516402690526,-0.0041278924693402,,
0.342601989675738,-0.0190531095330625,-0.00375311639723463,,
0.3548377750213,-0.0120624516782545,-0.00341576942810295,,
0.367073560366862,-0.00492876499344628,-0.00306645808048245,,
0.379309345712424,0.00215986265836977,-0.00271876354076639,,
0.391545131057986,0.00924905620071005,-0.00236904799116999,,
0.403780916403548,0.0163274978230899,-0.00201079030648232,,
0.41601670174911,0.0233428780201754,-0.00168785987449249,,
0.428252487094672,0.0304226990007081,-0.00131381473429393,,
0.440488272440234,0.0374768073305458,-0.00093933170862126,,
0.452724057785797,0.0445334975359004,-0.000615269511099026,,
0.464959843131359,0.0515375245543435,-0.000268976204899296,,
0.477195628476921,0.0585610394277149,6.48946272394646E-05,,
0.489431413822483,0.0655200781494814,0.000438485040215486,,
0.501667199168045,0.0724740592246875,0.000784347197640756,,
0.513902984513607,0.079473523750779,0.00112590460402195,,
0.526138769859169,0.0864710430281934,0.00149623445439184,,
0.538374555204731,0.0934122561984465,0.00184297911946452,,
0.550610340550293,0.100333097309827,0.00220142543174129,,
0.562846125895855,0.107260198585132,0.00252521142457995,,
0.575081911241417,0.114110232644668,0.00290902814754768,,
0.587317696586979,0.12091934574567,0.0032175622524937,,
0.599553481932541,0.127706389116228,0.003555825412771,,
0.611789267278103,0.134489966407324,0.00389586706174239,,
0.624025052623666,0.141300458866479,0.00424135196399034,,
0.636260837969228,0.147934959372597,0.00459597183089455,,
0.64849662331479,0.154539785994351,0.00493183672611464,,
0.660732408660352,0.161179910037554,0.0052720939494737,,
0.672968194005914,0.167824030682584,0.00561706686255192,,
0.685203979351476,0.174380438296358,0.00597950130099134,,
0.697439764697038,0.180946430680887,0.00628054419598278,,
0.7096755500426,0.187387997886399,0.006563761783835,,
0.721911335388162,0.19375285155772,0.00683851807699032,,
0.734147120733724,0.200249274775925,0.00725333035481368,,
0.746382906079286,0.206399372993299,0.00763376525458259,,
0.758618691424848,0.212792804136094,0.00794890806183535,,
0.77085447677041,0.219025840683426,0.00827022842262037,,
0.783090262115972,0.225129217564393,0.00856949282891772,,
0.795326047461534,0.231350335042559,0.00891807661298127,,
0.807561832807097,0.237395177622425,0.00924046810900281,,
0.819797618152659,0.24336221025521,0.00953540081745796,,
0.832033403498221,0.249334901793236,0.00986810620056611,,
0.844269188843783,0.255248457771481,0.0101622372417687,,
0.856504974189345,0.261075432499517,0.0104609694487978,,
0.868740759534907,0.266772818297504,0.0107761930964458,,
0.880976544880469,0.27262242864651,0.011098907954048,,
0.893212330226031,0.278273128476248,0.0113817684968214,,
0.905448115571593,0.283910529878666,0.0116537155862435,,
0.917683900917155,0.289441543862528,0.0119538288166905,,
0.929919686262717,0.294738314537515,0.012279177723836,,
0.942155471608279,0.300073212086573,0.0125492924309674,,
0.954391256953841,0.305294683953679,0.0128325302289185,,
0.966627042299403,0.31053143486494,0.0131070574742873,,
0.978862827644966,0.315979828832264,0.0133786879388285,,
0.991098612990528,0.32094466934663,0.0136571359433644,,
1.00333439833609,0.326151145114844,0.0139381304203483,,
1.01557018368165,0.330926695248854,0.014207921765899,,
1.02780596902721,0.335520594524585,0.0144685242531963,,
1.04004175437278,0.340407342146607,0.0147380124472649,,
1.05227753971834,0.345119512541902,0.0149956575234382,,
1.0645133250639,0.349852903831857,0.0152665267409247,,
1.07674911040946,0.354208280251623,0.0154972182820012,,
1.08898489575502,0.358764830752755,0.0157374287796119,,
1.10122068110059,0.363181040403876,0.0159571731838395,,
1.11345646644615,0.367615924442297,0.0162157277144588,,
1.12569225179171,0.371735324513458,0.0164623448133878,,
1.13792803713727,0.375526508080563,0.0166710747137708,,
1.15016382248283,0.37967618329477,0.0169020896164285,,
1.1623996078284,0.383491417209155,0.0170923138030123,,
1.17463539317396,0.387398608333728,0.0173367414745718,,
1.18687117851952,0.39085648238206,0.0175978020574417,,
1.19910696386508,0.394416499670015,0.0177913070167306,,
1.21134274921064,0.398462333973025,0.0179607754318494,,
1.22357853455621,0.401607270561455,0.0181702261590893,,
1.23581431990177,0.405067691117146,0.0183920319933946,,
1.24805010524733,0.408408425826961,0.0185928125882509,,
1.26028589059289,0.41144499438,0.0187717730131047,,
1.27252167593846,0.414451570735255,0.0189499654542042,,
1.28475746128402,0.417546143067028,0.0191447099662194,,
1.29699324662958,0.420403324323885,0.0193036152363666,,
1.30922903197514,0.423109129865509,0.0194976658683226,,
1.3214648173207,0.426084299296669,0.0196500163297597,,
1.33370060266627,0.428558089723357,0.0198201045212416,,
1.34593638801183,0.431081112625654,0.0199608476492688,,
1.35817217335739,0.433474263652639,0.0201181630583105,,
1.37040795870295,0.435601729078497,0.0202438900829311,,
1.38264374404851,0.438008744423326,0.0203976821980825,,
1.39487952939408,0.440033783664297,0.0205367815714079,,
1.40711531473964,0.442280369045505,0.0206690162478416,,
1.4193511000852,0.443938711226773,0.0208009477727931,,
1.43158688543076,0.445547255041908,0.0208935841289826,,
1.44382267077632,0.447192015850594,0.0210513306867983,,
1.45605845612189,0.448857714608676,0.0211980627407695,,
1.46829424146745,0.450506436651032,0.0212672284355548,,
1.48053002681301,0.45141242738033,0.0213496856386497,,
1.49276581215857,0.452806781632042,0.021462996925909,,
1.50500159750413,0.453989775772953,0.0215761734791764,,
1.5172373828497,0.455128630452974,0.0216537465750619,,
1.52947316819526,0.455793551818949,0.0217570336533175,,
1.54170895354082,0.456738871939682,0.0218141137090218,,
1.55394473888638,0.457380591794163,0.0218872742666698,,
1.56618052423194,0.45819688887537,0.0219584407612361,,
1.57841630957751,0.458412210219841,0.022042380038243,,
1.59065209492307,0.458852190102433,0.0220775186633526,,
1.60288788026863,0.459371960548942,0.0221542564084873,,
1.61512366561419,0.459315654441781,0.0222552866923773,,
1.62735945095976,0.459388654319407,0.0222513457231117,,
1.63959523630532,0.459575115247142,0.0222734218876988,,
1.65183102165088,0.459004697598714,0.0223433488295388,,
1.66406680699644,0.459059306034303,0.0223582504090523,,
1.676302592342,0.458883597026528,0.0223498766914503,,
1.68853837768757,0.458145392837665,0.0223765270750649,,
1.70077416303313,0.457846036750345,0.0224106349851358,,
1.71300994837869,0.456900433684351,0.0224077314676085,,
1.72524573372425,0.456439798797624,0.0224550972024908,,
1.73748151906981,0.455528149163083,0.0224257858225347,,
1.74971730441538,0.45405343845693,0.0224430048267106,,
1.76195308976094,0.453244215007275,0.0224215012815896,,
1.7741888751065,0.452109038615662,0.0224005097256383,,
1.78642466045206,0.450433436773405,0.0223729970444748,,
1.79866044579762,0.449078411913127,0.0223277196864684,,
1.81089623114319,0.44765661197099,0.0222930054734336,,
1.82313201648875,0.445913386211087,0.0222462595149144,,
1.83536780183431,0.444244575055121,0.0222163148851959,,
1.84760358717987,0.442237078420402,0.0221625897058919,,
1.85983937252543,0.440648623718877,0.0221127044453593,,
1.872075157871,0.438547472202396,0.0220748172468133,,
1.88431094321656,0.436256181469773,0.0220290144262378,,
1.89654672856212,0.433969417861344,0.0219644701073776,,
1.90878251390768,0.431643890752005,0.0218627257333299,,
1.92101829925325,0.42899948433226,0.0217998857994681,,
1.93325408459881,0.426876263085334,0.0217031467932229,,
1.94548986994437,0.423962492776054,0.0216301209695673,,
1.95772565528993,0.421333365400463,0.0215716464170459,,
1.96996144063549,0.418231719437137,0.0214386370201582,,
1.98219722598106,0.415146767244276,0.0213535390308204,,
1.99443301132662,0.412150942808982,0.0212164337205767,,
2.00666879667218,0.409037696089909,0.0211162185773381,,
2.01890458201774,0.405857391343714,0.0210188126378328,,
2.0311403673633,0.40268387728381,0.0208584993974696,,
2.04337615270887,0.399178751376706,0.0207751260032292,,
2.05561193805443,0.39537143992966,0.0206141525663051,,
2.06784772339999,0.391744364614583,0.0204951150843864,,
2.08008350874555,0.388319878107181,0.0203304229892836,,
2.09231929409111,0.384534919335843,0.0202177045315892,,
2.10455507943668,0.380611883276591,0.0200426042356052,,
2.11679086478224,0.376824377997893,0.019929777990717,,
2.1290266501278,0.372195676454922,0.0197561597686455,,
2.14126243547336,0.368404209942555,0.0195725173375698,,
2.15349822081892,0.363943860830543,0.019429510678477,,
2.16573400616449,0.359826441376217,0.0192474311617086,,
2.17796979151005,0.355420983645056,0.019098792621751,,
2.19020557685561,0.350913099729009,0.0188911136465055,,
2.20244136220117,0.346359095735237,0.0187081920422871,,
2.21467714754673,0.341703797337627,0.0185591829838514,,
2.2269129328923,0.336923437134161,0.0183540639544533,,
2.23914871823786,0.332173069128479,0.0181714993953137,,
2.25138450358342,0.326993473160166,0.0179372778236471,,
2.26362028892898,0.32224112453765,0.0177318354326683,,
2.27585607427454,0.317191966335173,0.0175207678975244,,
2.28809185962011,0.312057358663536,0.0173298161473836,,
2.30032764496567,0.306822871314373,0.0171054571039306,,
2.31256343031123,0.301651197813399,0.0168910346923861,,
2.32479921565679,0.296060234802126,0.0166592652793733,,
2.33703500100236,0.290850292954451,0.0164373920780725,,
2.34927078634792,0.28515407430567,0.0162053531970758,,
2.36150657169348,0.279573827846199,0.015965957840117,,
2.37374235703904,0.274255907012869,0.0157275931981968,,
2.3859781423846,0.268311474632896,0.0154947122297506,,
2.39821392773017,0.262592867940251,0.0152403411895823,,
2.41044971307573,0.256810315618366,0.0149828241107017,,
2.42268549842129,0.250816969076205,0.0147254619759116,,
2.43492128376685,0.245021967162788,0.0144533262589004,,
2.44715706911241,0.239039372540587,0.0141960449645056,,
2.45939285445798,0.233065549221511,0.0139420107593176,,
2.47162863980354,0.2266882105905,0.0136660755437323,,
2.4838644251491,0.220727190544535,0.0134022124938289,,
2.49610021049466,0.214433320765848,0.013050179519571,,
2.50833599584022,0.20802174575812,0.0128045055585853,,
2.52057178118579,0.201794155907084,0.0125622538409966,,
2.53280756653135,0.195343852766603,0.0123070946069754,,
2.54504335187691,0.189176777833502,0.0120316713805599,,
2.55727913722247,0.182546804451578,0.0117421010849856,,
2.56951492256803,0.175970873614718,0.0114463330257806,,
2.5817507079136,0.169462566695504,0.0111371656710721,,
2.59398649325916,0.162912383877496,0.0108301944804334,,
2.60622227860472,0.156174891295967,0.0105346689424133,,
2.61845806395028,0.149645646427356,0.0102520509208257,,
2.63069384929584,0.142887180528273,0.00993757504683357,,
2.64292963464141,0.136162491219855,0.0096200878681203,,
2.65516541998697,0.129400347032364,0.00935364466227018,,
2.66740120533253,0.122684641236018,0.0090006146564714,,
2.67963699067809,0.11576549779621,0.00872381714333725,,
2.69187277602366,0.10894400583999,0.00839760593864325,,
2.70410856136922,0.102092168004408,0.00807452729926261,,
2.71634434671478,0.095208675667627,0.00774556752113176,,
2.72858013206034,0.0882618389602893,0.00744349391110122,,
2.7408159174059,0.0813254004913345,0.00708718313259737,,
2.75305170275147,0.0742851564793404,0.00677922838381706,,
2.76528748809703,0.0673187258126011,0.00644463672482143,,
2.77752327344259,0.0603987335370068,0.00612757395818297,,
2.78975905878815,0.0533723892110142,0.00578602328850097,,
2.80199484413371,0.0463420482831943,0.00545729929485628,,
2.81423062947928,0.0393119903006364,0.00513277900176101,,
2.82646641482484,0.0323402190420747,0.00480368448963819,,
2.8387022001704,0.025223579809309,0.00444523144066178,,
2.85093798551596,0.0181304250332991,0.00412432201855228,,
2.86317377086152,0.0110463245056769,0.00377681610642444,,
2.87540955620709,0.00395370025203349,0.00343028027903936,,
2.88764534155265,-0.00306358982557132,0.0031022569021526,,
2.89988112689821,-0.0101771873967692,0.00275905574106927,,
2.91211691224377,-0.017261500133338,0.0023949573378288,,
2.92435269758933,-0.024357484361969,0.00211444116651593,,
2.9365884829349,-0.0314622398937258,0.00173295534160989,,
2.94882426828046,-0.0385035449504527,0.00141199202590325,,
2.96106005362602,-0.0454810458505724,0.00107221310821615,,
2.97329583897158,-0.0525232704794012,0.000697901868383255,,
2.98553162431715,-0.0594956076284872,0.000367291598850628,,
2.99776740966271,-0.06648555812014,2.11599734409873E-05,,
3.01000319500827,-0.0735789251050965,-0.000352080131155397,,
3.02223898035383,-0.0805531721347018,-0.000666468428053069,,
3.03447476569939,-0.0874466382919726,-0.00100769573615445,,
3.04671055104496,-0.0943462585086946,-0.00135428545713623,,
3.05894633639052,-0.101296808872598,-0.00169144379867969,,
3.07118212173608,-0.10826999485747,-0.00205783941648319,,
3.08341790708164,-0.115148111234271,-0.00237282054294585,,
3.0956536924272,-0.121981027105449,-0.0027463840091233,,
3.10788947777277,-0.128754736680529,-0.00306929086266416,,
3.12012526311833,-0.135451697353259,-0.0034290541997124,,
3.13236104846389,-0.142211542610495,-0.00375144569573393,,
3.14459683380945,-0.149016942054932,-0.00411382624057666,,
3.15683261915501,-0.15560525174701,-0.00442807980348237,,
3.16906840450058,-0.162338287940661,-0.00480064960646898,,
3.18130418984614,-0.168855366163001,-0.00513284636875744,,
3.1935399751917,-0.175335024874425,-0.00544354295427452,,
3.20577576053726,-0.181883934438753,-0.00577016846599454,,
3.21801154588282,-0.18837257666225,-0.00614647376890876,,
3.23024733122839,-0.194779659913942,-0.00643480788010642,,
3.24248311657395,-0.201070381926588,-0.00683989910040816,,
3.25471890191951,-0.207539925344893,-0.00711529538002553,,
3.26695468726507,-0.213650128280308,-0.00744127416858342,,
3.27919047261063,-0.219958392899206,-0.0077886958719664,,
3.2914262579562,-0.226047940830487,-0.00809087726918989,,
3.30366204330176,-0.232289784049102,-0.00846985704184533,,
3.31589782864732,-0.238487346334197,-0.00876745748334162,,
3.32813361399288,-0.244472982617965,-0.00908200746102983,,
3.34036939933844,-0.25024287313937,-0.00941062366748113,,
3.35260518468401,-0.255990340248751,-0.00970757401746614,,
3.36484097002957,-0.262103372636788,-0.0100236633310122,,
3.37707675537513,-0.267720897134543,-0.0103347371717071,,
3.38931254072069,-0.273514555057965,-0.0106457537504556,,
3.40154832606626,-0.279023499311382,-0.0109532470353133,,
3.41378411141182,-0.284566326259938,-0.0112577997507963,,
3.42601989675738,-0.290242066745373,-0.011577900768954,,
3.43825568210294,-0.295477049248745,-0.0118694112340125,,
3.4504914674485,-0.300675319604358,-0.0121708650676795,,
3.46272725279407,-0.306349574627167,-0.0124749327407914,,
3.47496303813963,-0.311375460581835,-0.0127623472924938,,
3.48719882348519,-0.316614404318876,-0.0130544236403187,,
3.49943460883075,-0.32185094302119,-0.0133596769725597,,
3.51167039417631,-0.326909438417317,-0.0136319204767643,,
3.52390617952188,-0.33171137319702,-0.0139144037643599,,
3.53614196486744,-0.336618422141599,-0.0141853268754435,,
3.548377750213,-0.341180277866395,-0.0144679179502325,,
3.56061353555856,-0.34612092656085,-0.0147423710919061,,
3.57284932090412,-0.350589693294409,-0.0150047790146957,,
3.58508510624969,-0.355072678027391,-0.0152494289973419,,
3.59732089159525,-0.359467596047538,-0.0155230467882652,,
3.60955667694081,-0.363768717713293,-0.0157721429926467,,
3.62179246228637,-0.368068636861684,-0.0160260357271431,,
3.63402824763193,-0.37241326136149,-0.0162599878308258,,
3.6462640329775,-0.376670102093724,-0.0165392644494125,,
3.65849981832306,-0.380453221720859,-0.0167612218594586,,
3.67073560366862,-0.384221486721733,-0.0170161722557922,,
3.68297138901418,-0.388108235051118,-0.0171985448189931,,
3.69520717435974,-0.391993073499983,-0.0174549974993372,,
3.70744295970531,-0.3957182600847,-0.0176757187250072,,
3.71967874505087,-0.399379359567546,-0.0178689508479621,,
3.73191453039643,-0.402682179612238,-0.0181217960256705,,
3.74415031574199,-0.40608544522498,-0.018352460619949,,
3.75638610108756,-0.409503989881877,-0.0185564445154642,,
3.76862188643312,-0.412431341563739,-0.0187299044250957,,
3.78085767177868,-0.415487362603549,-0.018976875200754,,
3.79309345712424,-0.41854953770281,-0.0191622658053752,,
3.8053292424698,-0.421534256536566,-0.0193476058847497,,
3.81756502781537,-0.424498956993028,-0.0195246732970165,,
3.82980081316093,-0.427236169458747,-0.0196896954903996,,
3.84203659850649,-0.429401549549728,-0.0198526697271046,,
3.85427238385205,-0.431988518081263,-0.0200496508233865,,
3.86650816919761,-0.434418451992324,-0.0202163706650689,,
3.87874395454318,-0.436378767504585,-0.0204116271662533,,
3.89097973988874,-0.43866355049618,-0.0205386274270984,,
3.9032155252343,-0.440767177783704,-0.0207131618403156,,
3.91545131057986,-0.442947553973577,-0.0208289522330274,,
3.92768709592542,-0.444573923340225,-0.0210003069240337,,
3.93992288127099,-0.44645381166173,-0.0211208096381155,,
3.95215866661655,-0.448037739239061,-0.0212629034744127,,
3.96439445196211,-0.449448221370714,-0.0213867475914955,,
3.97663023730767,-0.451230210631527,-0.021526982098703,,
3.98886602265323,-0.452769998747967,-0.0216307811661283,,
4.0011018079988,-0.454032995661742,-0.0217679134231705,,
4.01333759334436,-0.454609991787514,-0.0218603139948739,,
4.02557337868992,-0.455899444083296,-0.0219612028080722,,
4.03780916403548,-0.456570519508722,-0.0220652982902796,,
4.05004494938104,-0.457568255239262,-0.0221348985021894,,
4.06228073472661,-0.458265361628803,-0.022239482395118,,
4.07451652007217,-0.458777492553234,-0.0223036191436523,,
4.08675230541773,-0.459187763183304,-0.0224162264458037,,
4.09898809076329,-0.459585867167102,-0.0224494249014287,,
4.11122387610886,-0.459751390145441,-0.0225262805388069,,
4.12345966145442,-0.459937851073176,-0.0225939405812317,,
4.13569544679998,-0.459919813312716,-0.0226692568827516,,
4.14793123214554,-0.459809181715228,-0.0227021319767955,,
4.1601670174911,-0.459794114880021,-0.0227687444624332,,
4.17240280283667,-0.45952340700049,-0.0227986554086539,,
4.18463858818223,-0.459247464633611,-0.0228107006275371,,
4.19687437352779,-0.458792842333704,-0.0228298867479957,,
4.20911015887335,-0.457984962874045,-0.0228748575861708,,
4.22134594421891,-0.457391343714123,-0.0228761544008433,,
4.23358172956448,-0.456361776641595,-0.0229114277599449,,
