Time domain (s),Current (AC) (A),Potential (AC) (V),Frequency (Hz),Column 5
0,0.258939443347639,0.0150027782149147,0.25119,0.5
0.00971936084239022,0.253357499216595,0.0147116854252314,,
0.0194387216847804,0.247119440390861,0.0144773830131695,,
0.0291580825271707,0.241385519285903,0.0142205059207505,,
0.0388774433695609,0.235215331954918,0.0139621669645185,,
0.0485968042119511,0.229065552050964,0.013693298546813,,
0.0583161650543413,0.222927302166441,0.0134282969946775,,
0.0680355258967316,0.216731366816604,0.0131713592719622,,
0.0777548867391218,0.210457055629161,0.0128934771501927,,
0.087474247581512,0.20424329472781,0.0126174139373152,,
0.0971936084239022,0.197836565157696,0.0123503442184028,,
0.106912969266292,0.191507963848084,0.0120592379553202,,
0.116632330108683,0.185034706773214,0.0117609638438636,,
0.126351690951073,0.178553562599163,0.0114961643927161,,
0.136071051793463,0.17190632955625,0.0112014944155456,,
0.145790412635853,0.165342883679081,0.0108930546243942,,
0.155509773478244,0.158761541514083,0.0106078564468599,,
0.165229134320634,0.152128420366117,0.0102815846118691,,
0.174948495163024,0.145505838929165,0.0100318416843259,,
0.184667856005414,0.138856908214679,0.0097490619819478,,
0.194387216847804,0.131989225444419,0.00942712184479921,,
0.204106577690195,0.125156451045872,0.0091272309254391,,
0.213825938532585,0.118368877152948,0.00879633097782406,,
0.223545299374975,0.111573911315052,0.0084798677774498,,
0.233264660217365,0.104673159317281,0.00819444728882868,,
0.242984021059756,0.097736791584642,0.0078918684263285,,
0.252703381902146,0.0909002327932144,0.00758779401651744,,
0.262422742744536,0.0839477018124766,0.00724128513593048,,
0.272142103586926,0.0769473530824411,0.00693923847269851,,
0.281861464429316,0.0699685081923264,0.00660833852508302,,
0.291580825271707,0.0629435432244866,0.00629566808658311,,
0.301300186114097,0.0559751673090703,0.00597100632279668,,
0.311019546956487,0.0489674620022197,0.00566602919523929,,
0.320738907798877,0.0419300828110046,0.00532501746152558,,
0.330458268641268,0.0348779197298439,0.0049717988281377,,
0.340177629483658,0.027864838463013,0.00468980058291324,,
0.349896990326048,0.0207889433479923,0.00431989514461817,,
0.359616351168438,0.0137432880078602,0.0039964594601587,,
0.369335712010828,0.00663690554084633,0.00367996931298586,,
0.379055072853219,-0.000433083091827763,0.00332634647762253,,
0.388774433695609,-0.00750869526158643,0.00299533200611357,,
0.398493794537999,-0.0146406842748219,0.00265652990986842,,
0.408213155380389,-0.0216553924769099,0.0023239525240526,,
0.41793251622278,-0.0287488301981819,0.00198164734401596,,
0.42765187706517,-0.0358003920206607,0.00164680642713488,,
0.43737123790756,-0.0428323598837378,0.00130011565565891,,
0.44709059874995,-0.0498992714866864,0.00096445959812641,,
0.45680995959234,-0.0569423449513016,0.000636975157207509,,
0.466529320434731,-0.0639414911639732,0.000306014579295688,,
0.476248681277121,-0.0709136161041126,-5.11113398595775E-05,,
0.485968042119511,-0.0778978369542074,-0.000363478626877356,,
0.495687402961901,-0.0849160112357564,-0.000727179564841585,,
0.505406763804292,-0.0917191471180964,-0.00104488231794209,,
0.515126124646682,-0.0987905151089233,-0.00141162824412522,,
0.524845485489072,-0.105645712919493,-0.00174520266148148,,
0.534564846331462,-0.112423666673505,-0.0020927860456541,,
0.544284207173852,-0.119363111435869,-0.00243353504808397,,
0.554003568016243,-0.126230051474817,-0.00274552171157438,,
0.563722928858633,-0.132884004467706,-0.00308124850445246,,
0.573442289701023,-0.139680632609017,-0.00341606584288501,,
0.583161650543413,-0.146327299761406,-0.00375637695984077,,
0.592881011385804,-0.153037841806719,-0.00410938001884098,,
0.602600372228194,-0.159728224002105,-0.00444467903129508,,
0.612319733070584,-0.166447254405281,-0.00475213863265456,,
0.622039093912974,-0.172876619596364,-0.0050934501495008,,
0.631758454755364,-0.179501004809362,-0.00541441346520743,,
0.641477815597755,-0.185801559169867,-0.00575445174582923,,
0.651197176440145,-0.192320335063779,-0.00611953033886126,,
0.660916537282535,-0.19880607709834,-0.0064465836310057,,
0.670635898124925,-0.205088805907331,-0.00673273505153293,,
0.680355258967316,-0.211394806964132,-0.00707883636179396,,
0.690074619809706,-0.217641177306941,-0.00740745256824527,,
0.699793980652096,-0.223787526499592,-0.00770478354175763,,
0.709513341494486,-0.229766442833386,-0.00803984003302594,,
0.719232702336876,-0.236120827530008,-0.00836115365711176,,
0.728952063179267,-0.241996185897867,-0.00868941955518387,,
0.738671424021657,-0.248151023448381,-0.00899828375841016,,
0.748390784864047,-0.2539469449339,-0.00933096556306934,,
0.758110145706437,-0.259889078383619,-0.00962743760738283,,
0.767829506548828,-0.265308824143153,-0.00992339429417699,,
0.777548867391218,-0.271275432358045,-0.010241258728068,,
0.787268228233608,-0.276732526892179,-0.0105517127923997,,
0.796987589075998,-0.282775954745735,-0.0108433546231006,,
0.806706949918388,-0.288002873309137,-0.0111135030137297,,
0.816426310760779,-0.293523064636723,-0.0114125821607884,,
0.826145671603169,-0.299107555275125,-0.011732063402583,,
0.835865032445559,-0.304426006630822,-0.0120369394796467,,
0.845584393287949,-0.309355266778477,-0.0123141681415548,,
0.85530375413034,-0.314893920284417,-0.0126207688137159,,
0.86502311497273,-0.319925748089589,-0.0128962189869295,,
0.87474247581512,-0.324902047887071,-0.0131762265374227,,
0.88446183665751,-0.329900488151313,-0.013448412779681,,
0.8941811974999,-0.334764600152366,-0.0137269854131592,,
0.903900558342291,-0.33949261548234,-0.0140120320149522,,
0.913619919184681,-0.344309475624619,-0.0142999585558239,,
0.923339280027071,-0.348894886542487,-0.0145696690609793,,
0.933058640869461,-0.353517363289691,-0.014805372706558,,
0.942778001711851,-0.357732611068394,-0.0150613133977324,,
0.952497362554242,-0.362418821235891,-0.0153166343125442,,
0.962216723396632,-0.366674671659707,-0.0155704462066453,,
0.971936084239022,-0.370935473625611,-0.0157956675476472,,
0.981655445081412,-0.374841250023873,-0.0160476470594575,,
0.991374805923803,-0.378966804154485,-0.0162965512679008,,
1.00109416676619,-0.382861687160156,-0.0165198122293195,,
1.01081352760858,-0.387153047214369,-0.0167633809716801,,
1.02053288845097,-0.390678545180346,-0.0169922401304654,,
1.03025224929336,-0.394282984874454,-0.0172428723023561,,
1.03997161013575,-0.398062850631074,-0.0174510902135694,,
1.04969097097814,-0.401414620206111,-0.0176885723478422,,
1.05941033182053,-0.40469169223195,-0.0178915322650184,,
1.06912969266292,-0.408163713543387,-0.0180689533540139,,
1.07884905350531,-0.411302142390788,-0.0183050106763214,,
1.0885684143477,-0.414457477217601,-0.0184834490069568,,
1.0982877751901,-0.417673503803138,-0.0186870590156443,,
1.10800713603249,-0.420086531734787,-0.018860003567756,,
1.11772649687488,-0.422973634453113,-0.0190658804758588,,
1.12744585771727,-0.426230900310603,-0.0192533190371584,,
1.13716521855966,-0.4285320941274,-0.019424623202918,,
1.14688457940205,-0.4313275225808,-0.0196198224421558,,
1.15660394024444,-0.433066504161771,-0.0197572241671824,,
1.16632330108683,-0.435818429781121,-0.0199413550089789,,
1.17604266192922,-0.437873036801983,-0.0200871877135533,,
1.18576202277161,-0.440083971080165,-0.0202498116418792,,
1.195481383614,-0.442096772938549,-0.0203686470228099,,
1.20520074445639,-0.444017688323061,-0.0205766998848831,,
1.21492010529878,-0.445850324785793,-0.0207236407765419,,
1.22463946614117,-0.44761420554983,-0.0208017359666464,,
1.23435882698356,-0.449022707064648,-0.0209316229032694,,
1.24407818782595,-0.450175709007775,-0.0210726590777295,,
1.25379754866834,-0.451984578068488,-0.0212018150824465,,
1.26351690951073,-0.453383671653341,-0.0213113773963789,,
1.27323627035312,-0.454398596308555,-0.0214123234715236,,
1.28295563119551,-0.455489421030331,-0.0215477277651188,,
1.2926749920379,-0.456452920384155,-0.0216294068794096,,
1.30239435288029,-0.457066628657686,-0.0217268229239647,,
1.31211371372268,-0.457996033107425,-0.021847463740388,,
1.32183307456507,-0.458591703620497,-0.0219069858496974,,
1.33155243540746,-0.4588754977184,-0.0219874220429124,,
1.34127179624985,-0.459663995427605,-0.0220264679537894,,
1.35099115709224,-0.459612499389899,-0.0221489950461007,,
1.36071051793463,-0.460196498410909,-0.0221808731086042,,
1.37042987877702,-0.459924870959276,-0.0222610667806338,,
1.38014923961941,-0.459935339933975,-0.0222797948055193,,
1.3898686004618,-0.459935056988713,-0.0223577518932818,,
1.39958796130419,-0.45990534773619,-0.0223792251232546,,
1.40930732214658,-0.459534477233871,-0.0224575628345445,,
1.41902668298897,-0.458957198162836,-0.0224630330346192,,
1.42874604383136,-0.458419319219552,-0.0225008663395685,,
1.43846540467375,-0.457557185005882,-0.0224921894704848,,
1.44818476551614,-0.457077875731856,-0.0225062556992479,,
1.45790412635853,-0.456238164930208,-0.0225349809863391,,
1.46762348720092,-0.45515780918313,-0.0225302922434181,,
1.47734284804331,-0.454098179176502,-0.0225397202545072,,
1.4870622088857,-0.45234101836244,-0.022520776655234,,
1.49678156972809,-0.451446982070466,-0.0225274864080349,,
1.50650093057048,-0.449913701695054,-0.0224977135641562,,
1.51622029141287,-0.448469549077209,-0.0224818688466986,,
1.52593965225526,-0.446771311613983,-0.022427867462711,,
1.53565901309766,-0.445166163141994,-0.022430693508193,,
1.54537837394005,-0.443321642978253,-0.0223770458009342,,
1.55509773478244,-0.441371301286481,-0.0223328261047646,,
1.56481709562483,-0.439425557455219,-0.0222931873643226,,
1.57453645646722,-0.43714954576675,-0.0222097061828888,,
1.58425581730961,-0.435075486259117,-0.0221733010582548,,
1.593975178152,-0.432247165418996,-0.0220901432384015,,
1.60369453899439,-0.430284091190428,-0.0220055302914348,,
1.61341389983678,-0.427739493711895,-0.0219303251454588,,
1.62313326067917,-0.424856069281977,-0.0219035097127041,,
1.63285262152156,-0.42193671080377,-0.0217737069848258,,
1.64257198236395,-0.419177145662343,-0.0216768601913868,,
1.65229134320634,-0.416563509539853,-0.0216027295489969,,
1.66201070404873,-0.413007170540305,-0.0215051551920014,,
1.67173006489112,-0.410359651722677,-0.0213601005762305,,
1.68144942573351,-0.406804727449439,-0.0212634693571787,,
1.6911687865759,-0.40350282697685,-0.0211372236066887,,
1.70088814741829,-0.400239336323593,-0.0210067741556488,,
1.71060750826068,-0.396648407265751,-0.0208920650032227,,
1.72032686910307,-0.392751685115877,-0.0207416984998177,,
1.73004622994546,-0.389044819236882,-0.02060650641226,,
1.73976559078785,-0.385114143655554,-0.0204863506382078,,
1.74948495163024,-0.381443565506426,-0.020316316340323,,
1.75920431247263,-0.377333927046808,-0.0201522406532333,,
1.76892367331502,-0.373296651837977,-0.0200179883352698,,
1.77864303415741,-0.369073693800882,-0.0198352587269901,,
1.7883623949998,-0.365141603493242,-0.0196636379363495,,
1.79808175584219,-0.360585052992111,-0.0194822859831376,,
1.80780111668458,-0.356350494199268,-0.0193259676056368,,
1.81752047752697,-0.351715001970006,-0.0191307380512504,,
1.82723983836936,-0.347214474630774,-0.0189651499751013,,
1.83695919921175,-0.342504284852313,-0.0187510846086356,,
1.84667856005414,-0.337600489778249,-0.0185677385923424,,
1.85639792089653,-0.332903103272899,-0.0183290472204916,,
1.86611728173892,-0.327960898379502,-0.0181622667485128,,
1.87583664258131,-0.322781231674873,-0.0179617320431924,,
1.8855560034237,-0.317790147987446,-0.0177283458222761,,
1.89527536426609,-0.312834927611992,-0.0175235232076605,,
1.90499472510848,-0.307309926214949,-0.0172908948654493,,
1.91471408595087,-0.302220519048936,-0.0170520620229069,,
1.92443344679326,-0.296880776062265,-0.0168414727934345,,
1.93415280763565,-0.29157130821864,-0.0165796577002091,,
1.94387216847804,-0.285980026893947,-0.0163503370775011,,
1.95359152932043,-0.280329892954734,-0.0161199453195566,,
1.96331089016282,-0.274654576887192,-0.015855166078508,,
1.97303025100521,-0.26912356290333,-0.0155839229741934,,
1.98274961184761,-0.263273386663799,-0.0153026758709744,,
1.99246897269,-0.257474989407237,-0.0150878829409522,,
2.00218833353239,-0.251635635823983,-0.0148333199048456,,
2.01190769437478,-0.245721160273636,-0.014555980087394,,
2.02162705521717,-0.239548143490031,-0.0142825239772613,,
2.03134641605956,-0.233644561332276,-0.0140159696158682,,
2.04106577690195,-0.227498848766465,-0.0137247521972421,,
2.05078513774434,-0.221227791449536,-0.0134332147853851,,
2.06050449858673,-0.215210677505357,-0.013168300810344,,
2.07022385942912,-0.208844267635094,-0.0128788383019636,,
2.07994322027151,-0.202742340848595,-0.0126073998333611,,
2.0896625811139,-0.196153182320731,-0.0123091560370527,,
2.09938194195629,-0.189836004926077,-0.0120006421422056,,
2.10910130279868,-0.183492725830993,-0.0117115568890029,,
2.11882066364107,-0.176996656294365,-0.0114204775727185,,
2.12854002448346,-0.170317945591041,-0.0111084639624295,,
2.13825938532585,-0.163787639677697,-0.0107778503245473,,
2.14797874616824,-0.157201947229294,-0.0105038822252452,,
2.15769810701063,-0.150556199649006,-0.0101852902277972,,
2.16741746785302,-0.143802296242275,-0.0098741624935057,,
2.17713682869541,-0.137019249473545,-0.0095468666801759,,
2.1868561895378,-0.130276380932036,-0.00925823615419619,,
2.19657555038019,-0.123473881676536,-0.00889284093628273,,
2.20629491122258,-0.116669543276832,-0.0085981776958115,,
2.21601427206497,-0.109788880392671,-0.00825606114336352,,
2.22573363290736,-0.102919818264258,-0.00795051139634007,,
2.23545299374975,-0.0960134073612454,-0.00760510733448738,,
2.24517235459214,-0.0891533994812199,-0.00727144870838581,,
2.25489171543453,-0.0821830429489687,-0.00694722819842308,,
2.26461107627692,-0.0751764694231666,-0.00659344368226922,,
2.27433043711931,-0.0682466447997137,-0.00626921980395645,,
2.2840497979617,-0.0611573097847423,-0.00592998655893684,,
2.29376915880409,-0.0541510899405178,-0.00561899355863726,,
2.30348851964648,-0.0471513071010065,-0.00526159817149807,,
2.31320788048887,-0.0400853150701598,-0.00492126010774419,,
2.32292724133126,-0.0330147959151193,-0.00457868545972318,,
2.33264660217365,-0.0260313531644952,-0.00423452095059673,,
2.34236596301604,-0.0189331761100827,-0.00389561106715774,,
2.35208532385843,-0.0118879098196861,-0.00354425176285966,,
2.36180468470082,-0.00478732773054557,-0.00323112996548636,,
2.37152404554321,0.0023142800351701,-0.00285021002334673,,
2.3812434063856,0.00936729195211717,-0.00251787515871671,,
2.39096276722799,0.0164655397428452,-0.00218632175123989,,
2.40068212807038,0.0235287376892285,-0.00185010654764062,,
2.41040148891277,0.0305927137350826,-0.00146867461633127,,
2.42012084975517,0.0376734189195594,-0.00114994788489176,,
2.42984021059756,0.0446576397696543,-0.00078166935954993,,
2.43955957143995,0.0517009961795316,-0.000443402830923034,,
2.44927893228234,0.0586905929896067,-0.000133245181373365,,
2.45899829312473,0.065719236245854,0.00022759939596062,,
2.46871765396712,0.0726983994493885,0.000591623695505472,,
2.47843701480951,0.0796226005357568,0.000932500695227212,,
2.4881563756519,0.0866087666345288,0.00127725803391865,,
2.49787573649429,0.0935299260593294,0.00161614097055907,,
2.50759509733668,0.100445108265468,0.00194966149431863,,
2.51731445817907,0.107443511746826,0.00231999134468852,,
2.52703381902146,0.114227336615027,0.00266246494221534,,
2.53675317986385,0.121030224920262,0.00299356025411912,,
2.54647254070624,0.127904945953918,0.00333884979207832,,
2.55619190154863,0.13464445452044,0.00369675716838724,,
2.56591126239102,0.141412469822119,0.0040374185937222,,
2.57563062323341,0.148073567182877,0.00436064544049408,,
2.5853499840758,0.154686846794336,0.00470775388734523,,
2.59506934491819,0.16141666448563,0.00502973444469124,,
2.60478870576058,0.167991781854862,0.00533717046760263,,
2.61450806660297,0.174480848496252,0.00571086866777204,,
2.62422742744536,0.181128399852586,0.00603250565343849,,
2.63394678828775,0.187604415643761,0.00635783435048509,,
2.64366614913014,0.193917808645534,0.00671059488829995,,
2.65338550997253,0.200371471761002,0.00702428256843968,,
2.66310487081492,0.206601926432817,0.00736246488832171,,
2.67282423165731,0.212928865439014,0.00768655403264251,,
2.6825435924997,0.219229525903992,0.00799798491841575,,
2.69226295334209,0.225233588997956,0.00830229511271297,,
2.70198231418448,0.231689551043679,0.00862775180705233,,
2.71170167502687,0.237467894554789,0.00891791493219118,,
2.72142103586926,0.243516663000168,0.00925949254867131,,
2.73114039671165,0.249586970653625,0.00958255097795302,,
2.74085975755404,0.255327081186191,0.00988034678373806,,
2.75057911839643,0.261237524766552,0.0101715945175123,,
2.76029847923882,0.266975371737022,0.0104572777374177,,
2.77001784008121,0.27272368768219,0.0107731211614288,,
2.7797372009236,0.278468325338951,0.0110588313281323,,
2.78945656176599,0.283922944102041,0.0113791816041751,,
2.79917592260838,0.289489326243668,0.0116408417533096,,
2.80889528345077,0.294894146640626,0.011933531140798,,
2.81861464429316,0.300422897062392,0.0122174695555071,,
2.82833400513555,0.305679737087262,0.0125119441683896,,
2.83805336597794,0.310774732422202,0.0127823283435049,,
2.84777272682034,0.315924336192731,0.0130906738208618,,
2.85749208766273,0.320939258018492,0.013359986860741,,
2.86721144850512,0.326089710624807,0.0136271643668473,,
2.87693080934751,0.330939109472229,0.0138730539022198,,
2.8866501701899,0.335792752498584,0.0141234974465214,,
2.89636953103229,0.340467291174018,0.0143837698355385,,
2.90608889187468,0.345030066470916,0.014639878944203,,
2.91580825271707,0.349861922712087,0.0149122504457,,
2.92552761355946,0.354450163082575,0.015140550458419,,
2.93524697440185,0.358587671650512,0.0154091561448402,,
2.94496633524424,0.363147617494789,0.0156299312641068,,
2.95468569608663,0.367458854453665,0.0158833928498288,,
2.96440505692902,0.371684358998119,0.0160858441461853,,
2.97412441777141,0.375808286193474,0.016339999611966,,
2.9838437786138,0.379626632505742,0.0165547723318897,,
2.99356313945619,0.383713776817021,0.0167903210333775,,
3.00328250029858,0.387105158728755,0.0170109075250551,,
3.01300186114097,0.390936237577819,0.0172487871246041,,
3.02272122198336,0.394539545490878,0.0174174201889725,,
3.03244058282575,0.398565007735016,0.0176109790418582,,
3.04215994366814,0.401845475104,0.0178506438668009,,
3.05187930451053,0.404885439000185,0.0180297794458446,,
3.06159866535292,0.408457339989149,0.0182146681663458,,
3.07131802619531,0.411530974371526,0.0184318324146271,,
3.0810373870377,0.414621019579105,0.0186018936593104,,
3.09075674788009,0.417715591910878,0.0187744609562448,,
3.10047610872248,0.420674633462097,0.0189479983379215,,
3.11019546956487,0.423641880425918,0.0191233950486875,,
3.11991483040726,0.426003624528808,0.0192835937651576,,
3.12963419124965,0.428848922084656,0.0194532777546637,,
3.13935355209204,0.431074286571206,0.0196370481830312,,
3.14907291293443,0.433589952896688,0.0197874988951812,,
3.15879227377682,0.435624329331308,0.0198938579084542,,
3.16851163461921,0.437913922392359,0.0200343248317982,,
3.1782309954616,0.439985930546841,0.0201847216503515,,
3.18795035630399,0.442121318440038,0.0203483426102178,,
3.19766971714638,0.443973195180593,0.0204785225932738,,
3.20738907798877,0.445537599534838,0.020591786723636,,
3.21710843883116,0.447415507239508,0.0207154725282779,,
3.22682779967355,0.448702625236878,0.0208184025614551,,
3.23654716051594,0.450198273892429,0.0209544030529645,,
3.24626652135833,0.451673833434368,0.0210544834622111,,
3.25598588220072,0.452693285213776,0.0210949845002015,,
3.26570524304311,0.453873449902066,0.0212686835626688,,
3.2754246038855,0.455034374312531,0.0213142775455561,,
3.2851439647279,0.455747679318328,0.0214415203275871,,
3.29486332557029,0.456969436960149,0.0215022853579723,,
3.30458268641268,0.457687552035402,0.0216069130394478,,
3.31430204725507,0.457900609817776,0.0216495226644131,,
3.32402140809746,0.45881933308387,0.0217008563153596,,
3.33374076893985,0.458991363803237,0.0217860553551912,,
3.34346012978224,0.459493591643495,0.0218249193751792,,
