Time domain (s),Current (AC) (A),Potential (AC) (V),Frequency (Hz),Column 5
0,-0.0936239230831284,-0.000238022799362803,6.3096,0.3
0.000386935186065678,-0.0977465449083574,-0.000349270412915104,,
0.000773870372131355,-0.101821888960361,-0.000475379179315727,,
0.00116080555819703,-0.10592582807134,-0.000616526810408136,,
0.00154774074426271,-0.109903373367329,-0.000717089499415735,,
0.00193467593032839,-0.113924587794916,-0.000844953170263452,,
0.00232161111639407,-0.117863945440262,-0.000960868496434841,,
0.00270854630245974,-0.121869080857051,-0.00109374975009269,,
0.00309548148852542,-0.125753806408893,-0.00118336094679172,,
0.0034824166745911,-0.12968713442519,-0.00131282402422395,,
0.00386935186065678,-0.133582457506874,-0.00141671881028316,,
0.00425628704672246,-0.137501670709716,-0.001533364421058,,
0.00464322223278813,-0.141231681461641,-0.00164183528706774,,
0.00503015741885381,-0.14493844159852,-0.001794445332016,,
0.00541709260491949,-0.148708238766367,-0.00188783568212081,,
0.00580402779098517,-0.152518233461207,-0.00200932116386321,,
0.00619096297705084,-0.156134686199376,-0.00211525963611336,,
0.00657789816311652,-0.159757077208578,-0.00223048355214672,,
0.0069648333491822,-0.163273264524303,-0.00234199773346289,,
0.00735176853524788,-0.166866192573379,-0.00245280106740831,,
0.00773870372131355,-0.170314774957343,-0.00258519639024568,,
0.00812563890737923,-0.173863485726726,-0.00267963079742684,,
0.00851257409344491,-0.177317366875612,-0.00279749540037288,,
0.00889950927951059,-0.18077252703672,-0.00289274894807878,,
0.00928644446557626,-0.184001850182538,-0.00303722867622236,,
0.00967337965164194,-0.187198101726603,-0.00311611052041672,,
0.0100603148377076,-0.190583510042576,-0.00324950824911685,,
0.0104472500237733,-0.193876007256384,-0.00332998672314799,,
0.010834185209839,-0.197124698301572,-0.00347297811460878,,
0.0112211203959047,-0.200274357257531,-0.00359044564265654,,
0.0116080555819703,-0.203366643379508,-0.00367023826004464,,
0.011994990768036,-0.206323719637963,-0.00378346014109932,,
0.0123819259541017,-0.209326246509324,-0.00387507614952431,,
0.0127688611401674,-0.212114356117383,-0.00399354052994028,,
0.013155796326233,-0.214954174362438,-0.0040891050733709,,
0.0135427315122987,-0.217857623465562,-0.00420077475254921,,
0.0139296666983644,-0.220713475042406,-0.00430242592659402,,
0.0143166018844301,-0.223497930329829,-0.00438110784496493,,
0.0147035370704958,-0.226315228823966,-0.00452396317579584,,
0.0150904722565614,-0.228613568108817,-0.0045813668777468,,
0.0154774074426271,-0.231277796247323,-0.00469605765825198,,
0.0158643426286928,-0.233953307100793,-0.00476383528902247,,
0.0162512778147585,-0.236349490820666,-0.00487314750953738,,
0.0166382130008241,-0.238568165915658,-0.00495742735095428,,
0.0170251481868898,-0.240628289174066,-0.00506192191448251,,
0.0174120833729555,-0.243172609916712,-0.00515422100280283,,
0.0177990185590212,-0.245610635607865,-0.00525693844790354,,
0.0181859537450869,-0.247651528003927,-0.00534706056615075,,
0.0185728889311525,-0.249802278414102,-0.00541372472115675,,
0.0189598241172182,-0.252080930046528,-0.00549471967023063,,
0.0193467593032839,-0.253843226173121,-0.00558626070647206,,
0.0197336944893496,-0.255897502518512,-0.00566396520970791,,
0.0201206296754152,-0.25792491960723,-0.0057612624436052,,
0.0205075648614809,-0.259694387338071,-0.00583318853520476,,
0.0208945000475466,-0.261113862510023,-0.00592073660847969,,
0.0212814352336123,-0.263046998126338,-0.00598660106019322,,
0.021668370419678,-0.264609402914156,-0.0060858336871279,,
0.0220553056057436,-0.266124301533709,-0.00614125756808059,,
0.0224422407918093,-0.267839411245094,-0.00620096874723952,,
0.022829175977875,-0.269171228400795,-0.00629713029139234,,
0.0232161111639407,-0.270340473967214,-0.00637954415846043,,
0.0236030463500063,-0.271847150365336,-0.00643865556015033,,
0.023989981536072,-0.272969757664641,-0.0065141358886045,,
0.0243769167221377,-0.274431485918943,-0.00658517619773757,,
0.0247638519082034,-0.275556103094597,-0.00665341754534809,,
0.0251507870942691,-0.276659525210564,-0.00669840363228769,,
0.0255377222803347,-0.277469322663448,-0.00674729382627248,,
0.0259246574664004,-0.278534557128771,-0.00682189114900833,,
0.0263115926524661,-0.279487010123473,-0.00684379691037273,,
0.0266985278385318,-0.280279632269369,-0.00690486314233274,,
0.0270854630245974,-0.280866881595535,-0.00696534903405599,,
0.0274723982106631,-0.281599298808956,-0.00703339045584306,,
0.0278593333967288,-0.282298872815664,-0.00706186877864123,,
0.0282462685827945,-0.282727204873183,-0.00711802572094555,,
0.0286332037688602,-0.283429199867312,-0.00717302753627225,,
0.0290201389549258,-0.283565094915954,-0.00725113189115412,,
0.0294070741409915,-0.284009094873198,-0.00726181681569882,,
0.0297940093270572,-0.284156592389859,-0.00730009150382749,,
0.0301809445131229,-0.284329030644859,-0.00733740821405426,,
0.0305678796991885,-0.284549386179195,-0.00737639652630184,,
0.0309548148852542,-0.284449805941871,-0.00744125857215261,,
0.0313417500713199,-0.284716617027289,-0.00745121043534569,,
0.0317286852573856,-0.284306922005012,-0.00750114746315456,,
0.0321156204434513,-0.284548472599036,-0.00753978035171654,,
0.0325025556295169,-0.284076882520992,-0.00757636677733942,,
0.0328894908155826,-0.283937287472706,-0.00760177957085073,,
0.0332764260016483,-0.283674359102963,-0.00762297448484439,,
0.033663361187714,-0.283176275200309,-0.00765309386544022,,
0.0340502963737796,-0.282838798689597,-0.00765929156595568,,
0.0344372315598453,-0.282180655543097,-0.00771900274511461,,
0.034824166745911,-0.281558187701804,-0.00772393702549801,,
0.0352111019319767,-0.28089725813582,-0.00773692942725068,,
0.0355980371180424,-0.280344907571725,-0.00774003938449841,,
0.035984972304108,-0.279536389131064,-0.00775621116218739,,
0.0363719074901737,-0.278672873164834,-0.00779004305424813,,
0.0367588426762394,-0.277681593013377,-0.0077938638588666,,
0.0371457778623051,-0.27658351534134,-0.00780605933407452,,
0.0375327130483707,-0.2754296636006,-0.00783020593070605,,
0.0379196482344364,-0.274558473561036,-0.00782320852689855,,
0.0383065834205021,-0.273219530480095,-0.00782687383365488,,
0.0386935186065678,-0.271814078763583,-0.0078283177423768,,
0.0390804537926334,-0.270580197400919,-0.00781132404741536,,
0.0394673889786991,-0.269325669126664,-0.00782147583643189,,
0.0398543241647648,-0.267734577921855,-0.00784675534606061,,
0.0402412593508305,-0.266305373121211,-0.0078011278304384,,
0.0406281945368962,-0.264563358474146,-0.00778340107412578,,
0.0410151297229618,-0.263289462300521,-0.00780854729987279,,
0.0414020649090275,-0.261560237775681,-0.00779159803287177,,
0.0417890000950932,-0.259457587360874,-0.00778982091444469,,
0.0421759352811589,-0.25788531590734,-0.00776265321648628,,
0.0425628704672245,-0.256037462998862,-0.00773357511621908,,
0.0429498056532902,-0.254217428606223,-0.00769903237678715,,
0.0433367408393559,-0.251964174502215,-0.00770447480197101,,
0.0437236760254216,-0.250047483328761,-0.00767528840854936,,
0.0441106112114873,-0.247777236633797,-0.0076687102936206,,
0.0444975463975529,-0.245958892364452,-0.00764427769199205,,
0.0448844815836186,-0.243606332097168,-0.00760235713433932,,
0.0452714167696843,-0.241233810103411,-0.00755295601880679,,
0.04565835195575,-0.238653128870439,-0.00753596232384535,,
0.0460452871418156,-0.236555731541547,-0.00752007932790066,,
0.0464322223278813,-0.23380206390548,-0.00745696385625427,,
0.046819157513947,-0.231485361659434,-0.00741185003892753,,
0.0472060927000127,-0.22899019152934,-0.00742389001627286,,
0.0475930278860784,-0.226177826368061,-0.00737057646345241,,
0.047979963072144,-0.223526982178883,-0.00735416033197955,,
0.0483668982582097,-0.220957812055914,-0.0072798101397753,,
0.0487538334442754,-0.218183040718176,-0.00724817743176853,,
0.0491407686303411,-0.215275160751281,-0.00719293126265841,,
0.0495277038164067,-0.212378061030261,-0.00712484541291047,,
0.0499146390024724,-0.209424227981371,-0.0070834385535532,,
0.0503015741885381,-0.206691892442015,-0.00704505279552281,,
0.0506885093746038,-0.203500939662873,-0.00699853672068684,,
0.0510754445606695,-0.200367359717711,-0.00693749547945499,,
0.0514623797467351,-0.197346287169123,-0.00691136906182521,,
0.0518493149328008,-0.194119156615686,-0.00681265013318599,,
0.0522362501188665,-0.190833419895053,-0.00676195505329824,,
0.0526231853049322,-0.187567918974941,-0.00671966241147492,,
0.0530101204909978,-0.184337864964996,-0.00662447550570988,,
0.0533970556770635,-0.180903488752504,-0.00658302421839219,,
0.0537839908631292,-0.177458058220088,-0.00653337597232806,,
0.0541709260491949,-0.174038344969147,-0.0064470080167589,,
0.0545578612352606,-0.170557239131525,-0.00638467836466683,,
0.0549447964213262,-0.167189965381707,-0.00630537167809919,,
0.0553317316073919,-0.16342752253414,-0.00622444614771345,,
0.0557186667934576,-0.160045357427731,-0.00615444989565628,,
0.0561056019795233,-0.156406613333684,-0.00606872892226473,,
0.0564925371655889,-0.152841640837472,-0.00600206199051101,,
0.0568794723516546,-0.148987565899963,-0.00595034784427506,,
0.0572664075377203,-0.145310086007177,-0.00581697510630264,,
0.057653342723786,-0.141431755516448,-0.00575033316527707,,
0.0580402779098517,-0.137726320070799,-0.00569162161523362,,
0.0584272130959173,-0.133750373540088,-0.00558052949954391,,
0.058814148281983,-0.129988433161608,-0.0055223288710482,,
0.0592010834680487,-0.126044873047531,-0.00543265103240786,,
0.0595880186541144,-0.122257169708569,-0.00531142656493477,,
0.05997495384018,-0.118298444163854,-0.00523981146905994,,
0.0603618890262457,-0.11422643467943,-0.00514122582430288,,
0.0607488242123114,-0.110312474562502,-0.00505987822829113,,
0.0611357593983771,-0.106185467552511,-0.00498290678640645,,
0.0615226945844428,-0.102139769176664,-0.0048695488447219,,
0.0619096297705084,-0.0980203905609994,-0.00476007834959713,,
0.0622965649565741,-0.0939317995966909,-0.00468095215161934,,
0.0626835001426398,-0.0897726802441123,-0.00459107161040873,,
0.0630704353287055,-0.0856518399001932,-0.00450548114415117,,
0.0634573705147711,-0.0814515637614543,-0.00440994159144825,,
0.0638443057008368,-0.0773491777367459,-0.00430937890244065,,
0.0642312408869025,-0.073105826293513,-0.00420086360847094,,
0.0646181760729682,-0.0688061526334816,-0.00412029350177079,,
0.0650051112590339,-0.0646193518020871,-0.00399907458779269,,
0.0653920464450995,-0.0603878769009205,-0.00387278533280178,,
0.0657789816311652,-0.0560251662099223,-0.00377986425303156,,
0.0661659168172309,-0.0517079518108392,-0.00370540299092559,,
0.0665528520032966,-0.047483922587968,-0.00358142676663764,,
0.0669397871893622,-0.0431428180677286,-0.00350005695664546,,
0.0673267223754279,-0.0387538876261688,-0.00338838727746671,,
0.0677136575614936,-0.0344252077960911,-0.00328493677101482,,
0.0681005927475593,-0.0301668736382517,-0.00314800979618735,,
0.068487527933625,-0.0257991839353872,-0.00303067555202174,,
0.0688744631196906,-0.0214342806520075,-0.00293824317981928,,
0.0692613983057563,-0.0170547144070769,-0.00284772120992605,,
0.069648333491822,-0.0126639111261913,-0.00274644767354726,,
0.0700352686778877,-0.00830069796610563,-0.00258508532034396,,
0.0704222038639533,-0.003935749003718,-0.00246379698767729,,
0.070809139050019,0.000380003667110758,-0.00239422002449929,,
0.0711960742360847,0.00474837855509441,-0.00226884709619712,,
0.0715830094221504,0.00918764726341174,-0.00213731811859308,,
0.0719699446082161,0.0135399203010941,-0.00203724413715278,,
0.0723568797942817,0.0179242143233473,-0.00193663702018432,,
0.0727438149803474,0.0222618929179906,-0.00178558195385969,,
0.0731307501664131,0.0265997313891617,-0.00168355036540202,,
0.0735176853524788,0.0309973408422314,-0.00153691588116534,,
0.0739046205385444,0.0353207904258992,-0.00146103570106515,,
0.0742915557246101,0.0395800838429055,-0.00133481586476236,,
0.0746784909106758,0.0439541000883706,-0.00121503808275936,,
0.0750654260967415,0.0482665867101312,-0.0011017023550548,,
0.0754523612828071,0.0525556628403189,-0.000967910328203203,,
0.0758392964688728,0.0568284544041735,-0.000860455751794831,,
0.0762262316549385,0.0610934348576692,-0.000696697065461827,,
0.0766131668410042,0.0653702690137272,-0.000618659352520812,,
0.0770001020270699,0.0696414618123037,-0.000492195162434594,,
0.0773870372131355,0.0738309120261591,-0.000386900895614328,,
0.0777739723992012,0.0779974085385211,-0.000276519627295357,,
0.0781609075852669,0.0822969223220248,-0.000153520818142461,,
0.0785478427713326,0.0864984317939782,-2.93224540515169E-06,,
0.0789347779573983,0.0905501826383775,0.000113668937409717,,
0.0793217131434639,0.0946609279215403,0.00022232306875658,,
0.0797086483295296,0.0987893738202825,0.000328589197217344,,
0.0800955835155953,0.102807687630865,0.000469697953843884,,
0.080482518701661,0.107059306974536,0.000605908527805177,,
0.0808694538877266,0.11103998128257,0.000713624118482858,,
0.0812563890737923,0.115060076574462,0.000824538522329554,,
0.081643324259858,0.118950831755352,0.000970862010841511,,
0.0820302594459237,0.122931323347354,0.00108306482554843,,
0.0824171946319893,0.126756277917297,0.00120270932366973,,
0.082804129818055,0.130787907158695,0.00131748340660121,,
0.0831910650041207,0.134616698765306,0.00143922157236975,,
0.0835780001901864,0.138355639763284,0.00155455100480939,,
0.0839649353762521,0.142228306057027,0.0016514539405561,,
0.0843518705623177,0.145962839030739,0.00177316433884922,,
0.0847388057483834,0.149616794234432,0.00190022830640446,,
0.0851257409344491,0.153470823492933,0.00199714790263616,,
0.0855126761205148,0.157031410804383,0.00213765132829868,,
0.0858996113065805,0.160689751192839,0.00224494485334992,,
0.0862865464926461,0.164210323693327,0.0023435749260674,,
0.0866734816787118,0.167643009782525,0.00248887101798889,,
0.0870604168647775,0.171266999557005,0.0025820197910571,,
0.0874473520508432,0.174730381939543,0.00269779905659906,,
0.0878342872369088,0.178249309995745,0.00279084786675599,,
0.0882212224229745,0.181371196114872,0.00292009435788021,,
0.0886081576090402,0.184860341457893,0.00303047562619918,,
0.0889950927951059,0.188122005341338,0.00315630116435051,,
0.0893820279811716,0.191444148231304,0.0032489723368414,,
0.0897689631672372,0.194692839276492,0.00335513294889545,,
0.0901558983533029,0.197807416754348,0.00347245053257605,,
0.0905428335393686,0.200903905345056,0.00359488843872535,,
0.0909297687254343,0.203834487778901,0.00367003833422164,,
0.0913167039114999,0.206804171443549,0.00376129336546605,,
0.0917036390975656,0.209916008180928,0.00387336289629081,,
0.0920905742836313,0.212932101717649,0.00401574895678714,,
0.092477509469697,0.215684536020501,0.00408643939573006,,
0.0928644446557627,0.218371923416037,0.00421463627628293,,
0.0932513798418283,0.221317123132425,0.00430740185819056,,
0.093638315027894,0.224008164848596,0.00440989716348827,,
0.0940252502139597,0.226556505343941,0.00453111885421364,,
0.0944121854000254,0.229232564345506,0.004599026992119,,
0.094799120586091,0.231718233241948,0.00472218129913404,,
0.0951860557721567,0.234243368801256,0.0047894674455895,,
0.0955729909582224,0.236638227829899,0.00490200347000158,,
0.0959599261442881,0.238907926376768,0.00499179237854364,,
0.0963468613303538,0.241443476749887,0.00507309554659452,,
0.0967337965164194,0.243696365421831,0.00516259567339228,,
0.0971207317024851,0.245757402260398,0.00524301028222984,,
0.0975076668885508,0.247922769953116,0.00532966701954329,,
0.0978946020746165,0.250191189487762,0.0054103037681843,,
0.0982815372606821,0.25193448314705,0.00550451325881429,,
0.0986684724467478,0.25409911997564,0.00560509816180232,,
0.0990554076328135,0.255986028435913,0.00566312107845501,,
0.0994423428188792,0.257735717156314,0.00576447791726009,,
0.0998292780049448,0.259769346590112,0.00583199175701399,,
0.100216213191011,0.261344906932219,0.00592974993100359,,
0.100603148377076,0.263078151209758,0.00599490908884137,,
0.100990083563142,0.26468385969711,0.00607039774753826,,
0.101377018749208,0.266177563256975,0.00614519221934939,,
0.101763953935273,0.267823103839257,0.00622705073690888,,
0.102150889121339,0.269220150618307,0.00630684335429699,,
0.102537824307405,0.270532599874639,0.00637185812126262,,
0.10292475949347,0.271942619491945,0.00642572702359168,,
0.103311694679536,0.273145804561268,0.00652071955702871,,
0.103698629865602,0.273950851397325,0.00657367213266857,,
0.104085565051667,0.275338031510659,0.00663089534602923,,
0.104472500237733,0.276284135123256,0.00670111373788984,,
0.104859435423799,0.277342609095403,0.00677295375031539,,
0.105246370609864,0.27824577444053,0.00683695222768055,,
0.10563330579593,0.279175068178203,0.00686554162038044,,
0.106020240981996,0.280026707602366,0.00693416060565655,,
0.106407176168061,0.28060043594218,0.00697789993294951,,
0.106794111354127,0.281219660573909,0.00704287582544927,,
0.107181046540193,0.281988164203609,0.00709605609438801,,
0.107567981726258,0.282375522190999,0.00714750367285966,,
0.107954916912324,0.282968801146214,0.0071760264236187,,
0.10834185209839,0.283228257911353,0.00724630590392517,,
0.108728787284455,0.283555685040317,0.00728714075328885,,
0.109115722470521,0.283766722057032,0.0073245268822042,,
0.109502657656587,0.283941398583421,0.00735973048755101,,
0.109889592842652,0.284204509669195,0.00741283300755802,,
0.110276528028718,0.284069847953768,0.00745288481411466,,
0.110663463214784,0.284376262739076,0.00749388626833047,,
0.11105039840085,0.284138366465688,0.00755010985257565,,
0.111437333586915,0.28404353684519,0.00755077627198597,,
0.111824268772981,0.283559704793016,0.00760080770921112,,
0.112211203959047,0.28335469740535,0.00758374737230838,,
0.112598139145112,0.283056687557504,0.00763392320040568,,
0.112985074331178,0.282817512271894,0.00764778472413896,,
0.113372009517244,0.28233167034337,0.00767975064185089,,
0.113758944703309,0.281719571636881,0.00769816603155427,,
0.114145879889375,0.2813035272325,0.0077084566579475,,
0.114532815075441,0.280360164360379,0.00773215342147759,,
0.114919750261506,0.279533739748603,0.00773801791228745,,
0.115306685447572,0.278718826246829,0.00779572983321586,,
0.115693620633638,0.277944110272049,0.00779357507712275,,
0.116080555819703,0.27705611035756,0.00780870835123038,,
0.116467491005769,0.276308253639452,0.00781483385630999,,
0.116854426191835,0.274972782163115,0.00784693305790407,,
0.1172413613779,0.273817651410152,0.00782936179945359,,
0.117628296563966,0.272642056461629,0.00782572426017225,,
0.118015231750032,0.271450747934372,0.00782947286935531,,
0.118402166936097,0.270063750537071,0.00782296972661012,,
0.118789102122163,0.268918486449825,0.00784146841873978,,
0.119176037308229,0.267289207594373,0.00784873239031159,,
0.119562972494294,0.265714743548457,0.00781428406029638,,
0.11994990768036,0.26421683751986,0.00780844178346651,,
0.120336842866426,0.262708882109515,0.00783042807050993,,
0.120723778052491,0.260910773640691,0.00777875835223485,,
0.121110713238557,0.259049445424868,0.00774756992383452,,
0.121497648424623,0.257318211023678,0.00777311600122799,,
0.121884583610688,0.255444275401662,0.00773601865405693,,
0.122271518796754,0.253416310164849,0.0077256502787324,,
0.12265845398282,0.251612902931103,0.00770671841398585,,
0.123045389168886,0.249318537719943,0.00766746631072168,,
0.123432324354951,0.247240691006452,0.00763532823466218,,
0.123819259541017,0.245234834409485,0.00764754037035509,,
0.124206194727083,0.24305137782962,0.00759436010141679,,
0.124593129913148,0.240520212641263,0.00755741825210832,,
0.124980065099214,0.238285412856466,0.00752574111614068,,
0.12536700028528,0.235962543944348,0.00750959710592713,,
0.125753935471345,0.233280272597702,0.00745843830919979,,
0.126140870657411,0.230933285169387,0.00744453235750608,,
0.126527805843477,0.228302539743706,0.00740389743396541,,
0.126914741029542,0.225881186890454,0.00734662979264433,,
0.127301676215608,0.223000485933287,0.00732092266389373,,
0.127688611401674,0.220368096063319,0.00727531736225195,,
0.128075546587739,0.217540200039339,0.00723711486955869,,
