Time domain (s),Current (AC) (A),Potential (AC) (V),Frequency (Hz),Column 5
0,0.207164488931227,0.00301928000783924,7943.3,0.4
3.93413316883411E-06,0.20133117038391,0.00274336666026676,,
7.86826633766822E-06,0.187826112449947,0.00236323655785986,,
1.18023995065023E-05,0.167108905651075,0.0018995666175079,,
1.57365326753364E-05,0.139885401125437,0.00134580905014747,,
1.96706658441706E-05,0.107271541649624,0.000773601584158623,,
2.36047990130047E-05,0.0705867588812747,0.000139166430381366,,
2.75389321818388E-05,0.0316143345475884,-0.000471180204063337,,
3.14730653506729E-05,-0.00763607668972149,-0.00100458809591464,,
3.5407198519507E-05,-0.0472889417555894,-0.00163182393932804,,
3.93413316883411E-05,-0.0859609945274505,-0.00211680751056686,,
4.32754648571752E-05,-0.121506539199062,-0.00255893430684662,,
4.72095980260093E-05,-0.152233095852281,-0.002871004125101,,
5.11437311948435E-05,-0.177127949648737,-0.00307451568749562,,
5.50778643636776E-05,-0.194908124784893,-0.00321496591098391,,
5.90119975325117E-05,-0.205271340246452,-0.00315754319278216,,
6.29461307013458E-05,-0.207539064753705,-0.00300429057575169,,
6.68802638701799E-05,-0.201763235413869,-0.00273416096044565,,
7.0814397039014E-05,-0.18815682961797,-0.0023628337992383,,
7.47485302078481E-05,-0.167176470892365,-0.00190229412258613,,
7.86826633766822E-05,-0.139822653579612,-0.00135286472967877,,
8.26167965455164E-05,-0.107077306269009,-0.000771219089223507,,
8.65509297143505E-05,-0.0702976677771259,-0.000132026349227043,,
9.04850628831846E-05,-0.0310033097567851,0.000493619189922523,,
9.44191960520187E-05,0.00839647941616111,0.00105265704127255,,
9.83533292208528E-05,0.0477730907737254,0.00161509464922371,,
0.000102287462389687,0.086248176179128,0.00214912592850069,,
0.000106221595558521,0.121503601579875,0.00257089416489009,,
0.000110155728727355,0.152196140602915,0.00287743789793726,,
0.000114089861896189,0.176870526079419,0.00310725907500453,,
0.000118023995065023,0.194455173282518,0.00318214552550344,,
0.000121958128233857,0.204849703764606,0.00316331359847677,,
0.000125892261402692,0.207241865820601,0.00302425822286212,,
0.000129826394571526,0.201393271653514,0.00273696102130483,,
0.00013376052774036,0.187819590935353,0.0023572662535849,,
0.000137694660909194,0.167147740976721,0.00190230300696737,,
0.000141628794078028,0.139834492184934,0.0013491466160791,,
0.000145562927246862,0.107197073003244,0.000768013308281912,,
0.000149497060415696,0.0706328501263118,0.000125727322841662,,
0.00015343119358453,0.0315629262118237,-0.000455554057977814,,
0.000157365326753364,-0.00769964676891853,-0.00101137576327481,,
0.000161299459922199,-0.0472751349454126,-0.00162308022733804,,
0.000165233593091033,-0.0860121678536802,-0.00210743004603975,,
0.000169167726259867,-0.121470230225916,-0.00255646444882807,,
0.000173101859428701,-0.15219449553617,-0.00287402333403408,,
0.000177035992597535,-0.177049632721224,-0.0031032625841223,,
0.000180970125766369,-0.195005653741886,-0.00318995933891086,,
0.000184904258935203,-0.205082098818454,-0.00313545958217709,,
0.000188838392104037,-0.207557042983126,-0.00301653029180748,,
0.000192772525272871,-0.201839672265103,-0.00274675457102624,,
0.000196706658441706,-0.188064470870744,-0.00236674736922815,,
0.00020064079161054,-0.167281520154476,-0.00190247625240403,,
0.000204574924779374,-0.139750094385704,-0.00136839462829919,,
0.000208509057948208,-0.107154213139313,-0.000789744505093282,,
0.000212443191117042,-0.0703456684746342,-0.000158365578504682,,
0.000216377324285876,-0.0309312205819471,0.000470336187833542,,
0.00022031145745471,0.0083950399827597,0.00104177367410419,,
0.000224245590623544,0.047796121708148,0.00160796345245062,,
0.000228179723792378,0.0862039943865622,0.00212954771343998,,
0.000232113856961213,0.121434185638497,0.0025357623595248,,
0.000236047990130047,0.152084041054756,0.0028976232123914,,
0.000239982123298881,0.176792649794784,0.00311069436913103,,
0.000243916256467715,0.194702843956136,0.00317837854780612,,
0.000247850389636549,0.204808430215035,0.00316213789867659,,
0.000251784522805383,0.207095337375576,0.00298129039313588,,
0.000255718655974217,0.201474555576406,0.00273478730933174,,
0.000259652789143051,0.187870764261583,0.00235384576676045,,
0.000263586922311885,0.167120097980175,0.00188923112052386,,
0.00026752105548072,0.139913073498175,0.00135403894874875,,
0.000271455188649554,0.107229827457175,0.000744682922825923,,
0.000275389321818388,0.070640869826691,0.000152715111958468,,
0.000279323454987222,0.0316209148145663,-0.000443191441312774,,
0.000283257588156056,-0.0076472396426304,-0.001002106392054,,
0.00028719172132489,-0.0473236644143745,-0.00161064505489161,,
0.000291125854493724,-0.0859677510515795,-0.00213452740919307,,
0.000295059987662558,-0.12143644760527,-0.00257149237990184,,
0.000298994120831392,-0.152139679562149,-0.00287900006832675,,
0.000302928254000227,-0.17710421368571,-0.00310726203646494,,
0.000306862387169061,-0.194908829813498,-0.0031826223206366,,
0.000310796520337895,-0.205119289077356,-0.0031623244706851,,
0.000314730653506729,-0.207486657627417,-0.00300418100171473,,
0.000318664786675563,-0.201636389017393,-0.00273825814098361,,
0.000322598919844397,-0.188109298939531,-0.00236010925562047,,
0.000326533053013231,-0.167250440143483,-0.00186875262148467,,
0.000330467186182065,-0.139807319207459,-0.00137150120031571,,
0.000334401319350899,-0.107088939240987,-0.000772098642978225,,
0.000338335452519734,-0.0702899124624734,-0.000143373184956275,,
0.000342269585688568,-0.0310404412633032,0.000466277506281365,,
0.000346203718857402,0.00840767174526188,0.00100806040829671,,
0.000350137852026236,0.0477403363197953,0.00159475830028644,,
0.00035407198519507,0.0861996467101662,0.0021279100258087,,
0.000358006118363904,0.121460653587368,0.00254933769424559,,
0.000361940251532738,0.152134509352381,0.00287978337461681,,
0.000365874384701572,0.176830721339442,0.00310979112369258,,
0.000369808517870407,0.194538601667416,0.00317716731048012,,
0.000373742651039241,0.204821296987072,0.00315049935909251,,
0.000377676784208075,0.207142897430206,0.00300869278671634,,
0.000381610917376909,0.201400791958632,0.00274832118360635,,
0.000385545050545743,0.187794826805611,0.0023564992353271,,
0.000389479183714577,0.167011406070273,0.00190011448769178,,
0.000393413316883411,0.139863104595811,0.00135310905016617,,
0.000397347450052245,0.107403528879675,0.000776597101407983,,
0.000401281583221079,0.0706156356778785,0.000165701116048744,,
0.000405215716389913,0.0315867209272348,-0.000476108074258352,,
0.000409149849558748,-0.00766833174838986,-0.00103218742661504,,
0.000413083982727582,-0.0472659108211668,-0.0016169781380726,,
0.000417018115896416,-0.0861793183853952,-0.002138818565391,,
0.00042095224906525,-0.121488854731559,-0.00254357469220245,,
0.000424886382234084,-0.152238677328736,-0.00289411388175331,,
0.000428820515402918,-0.177072428646111,-0.00309388511959474,,
0.000432754648571752,-0.19487563471669,-0.00319865418680365,,
0.000436688781740586,-0.205232798682725,-0.00318358923747475,,
0.000440622914909421,-0.207384310974957,-0.00299016737084656,,
0.000444557048078255,-0.201674225552516,-0.00273090779613705,,
0.000448491181247089,-0.188152951960643,-0.0023660884442771,,
0.000452425314415923,-0.16729291811692,-0.00190409024835159,,
0.000456359447584757,-0.139942273432889,-0.00136365036865227,,
0.000460293580753591,-0.10721196673252,-0.000761533632808842,,
0.000464227713922425,-0.0703211687306183,-0.000139484787380351,,
0.000468161847091259,-0.031005307337832,0.000481831096585505,,
0.000472095980260093,0.00839066293017173,0.00103314101688134,,
0.000476030113428928,0.0477745302071268,0.00158969420291033,,
0.000479964246597762,0.0861518516460009,0.00212037607041404,,
0.000483898379766596,0.121409245251603,0.00256006114254959,,
0.00048783251293543,0.152204865331899,0.00287116552469602,,
0.000491766646104264,0.17680692662403,0.00309919205672804,,
0.000495700779273098,0.194564070825764,0.00321695749313955,,
0.000499634912441932,0.204771328084709,0.00317493140783753,,
0.000503569045610766,0.207236049334612,0.00299892292867865,,
0.0005075031787796,0.201375293424092,0.00274395599089727,,
0.000511437311948435,0.18798456762887,0.00237519493517269,,
0.000515371445117269,0.167083935887989,0.00188095087709472,,
0.000519305578286103,0.139823064846298,0.00133886442538289,,
0.000523239711454937,0.107206532137025,0.000762866290012987,,
0.000527173844623771,0.0706641357706486,0.000150183063270415,,
0.000531107977792605,0.0315988239182834,-0.000433310528508368,,
0.000535042110961439,-0.00769747293072048,-0.00100431860301331,,
0.000538976244130273,-0.0473005747275681,-0.00161160901026935,,
0.000542910377299107,-0.085984025461873,-0.00213089517794618,,
0.000546844510467942,-0.121497608836735,-0.00255712485450932,,
0.000550778643636776,-0.152249781529261,-0.00288435735028791,,
0.00055471277680561,-0.177072663655646,-0.00310553846648087,,
0.000558646909974444,-0.194796495255804,-0.00318625455188304,,
0.000562581043143278,-0.205215055462838,-0.00317391710763193,,
0.000566515176312112,-0.207648285435061,-0.00302122568735719,,
0.000570449309480946,-0.20170671562072,-0.00271348256282611,,
0.00057438344264978,-0.18826769536607,-0.0023868749352034,,
0.000578317575818614,-0.167145625890906,-0.00188409890955699,,
0.000582251708987449,-0.139980286225163,-0.00134673894873005,,
0.000586185842156283,-0.107074192392671,-0.000764958561823903,,
0.000590119975325117,-0.0703022504630569,-0.000124995842109676,,
0.000594054108493951,-0.0310273394817311,0.000508010406998327,,
0.000597988241662785,0.00839818323528931,0.00104338470859133,,
0.000601922374831619,0.0477546425252339,0.00161677972022201,,
0.000605856508000453,0.0862088708344119,0.00213258024894447,,
0.000609790641169287,0.121465530035217,0.00255611055430371,,
0.000613724774338121,0.152128222847321,0.00289855607243439,,
0.000617658907506956,0.176749966188003,0.00308548345628701,,
0.00062159304067579,0.194605079989608,0.00320228641805054,,
0.000625527173844624,0.204774471337238,0.0031527352617351,,
0.000629461307013458,0.207127357424709,0.00301025643783603,,
0.000633395440182292,0.201462893228236,0.00273439639655182,,
0.000637329573351126,0.187818357135295,0.00235768381950896,,
0.00064126370651996,0.166991489012188,0.00189588256070339,,
0.000645197839688794,0.139965950643532,0.00136358965871253,,
0.000649131972857628,0.107171603844897,0.000786600914821189,,
0.000653066106026463,0.0706670440136433,0.000150341501404583,,
0.000657000239195297,0.0315687426978131,-0.000467463571193427,,
0.000660934372364131,-0.00767849591077534,-0.00101171781195752,,
0.000664868505532965,-0.047298635898905,-0.00159620349298795,,
0.000668802638701799,-0.0859796190330932,-0.00211596497506772,,
0.000672736771870633,-0.12150824301819,-0.00256072006750063,,
0.000676670905039467,-0.152249781529261,-0.00290290645784141,,
0.000680605038208301,-0.177108796371641,-0.0031081415902201,,
0.000684539171377135,-0.194954950434727,-0.00319470359855822,,
0.000688473304545969,-0.205162237069864,-0.00315745731042894,,
0.000692407437714804,-0.20749805558986,-0.00301522132628707,,
0.000696341570883638,-0.201783622491024,-0.00274655911463606,,
0.000700275704052472,-0.18813573751221,-0.00236749217653243,,
0.000704209837221306,-0.167134697947532,-0.0018657082401381,,
0.00070814397039014,-0.139762726148207,-0.00137651495286395,,
0.000712078103558974,-0.107129713395297,-0.000774177588216851,,
0.000716012236727808,-0.070268585347179,-0.000150405172804291,,
0.000719946369896642,-0.0310685836551103,0.00046391722229977,,
0.000723880503065477,0.00837759052479157,0.00103448551992713,,
0.000727814636234311,0.0477352248624107,0.00160034657616315,,
0.000731748769403145,0.0862239114446471,0.00212457245987707,,
0.000735682902571979,0.121385949931454,0.00254993590925734,,
0.000739617035740813,0.152091590736065,0.00290493801971259,,
0.000743551168909647,0.176720854381864,0.00309409242182657,,
0.000747485302078481,0.194665477440083,0.00320379972434237,,
0.000751419435247315,0.20481133845803,0.00315829984592808,,
0.000755353568416149,0.207122980372121,0.00300942426744832,,
0.000759287701584984,0.201106736278058,0.00274171712679383,,
0.000763221834753818,0.187936508178978,0.00236955631446856,,
0.000767155967922652,0.167128822709159,0.0018886921347212,,
0.000771090101091486,0.139935634413527,0.00135103010492754,,
0.00077502423426032,0.107453732791574,0.000781085194725861,,
0.000778958367429154,0.0706750637140225,0.000164135984198843,,
0.000782892500597988,0.0315614867784223,-0.000477661360266612,,
0.000786826633766822,-0.00770035179752331,-0.00103531769031484,,
0.000790760766935656,-0.0473214905761764,-0.00162407083585947,,
0.000794694900104491,-0.0859971272434451,-0.0021149003300347,,
0.000798629033273325,-0.121424344614222,-0.00254273215670331,,
0.000802563166442159,-0.152249781529261,-0.00289336907444948,,
0.000806497299610993,-0.1770854716753,-0.00310134355774805,,
0.000810431432779827,-0.194950837767865,-0.00323528745261914,,
0.000814365565948661,-0.205313054438901,-0.00315629641793125,,
0.000818299699117495,-0.20754828887795,-0.00299179321263576,,
0.000822233832286329,-0.201657246113618,-0.00274570473329527,,
0.000826167965455163,-0.188223337316353,-0.00234429653752688,,
0.000830102098623998,-0.167314715251285,-0.00189252278381824,,
0.000834036231792832,-0.139921357584281,-0.00133809296493448,,
0.000837970364961666,-0.107202742608274,-0.000765349474603827,,
0.0008419044981305,-0.0702493733176989,-0.000131829412107098,,
0.000845838631299334,-0.0310268694626613,0.000496100893783158,,
0.000849772764468168,0.00841105000732642,0.00103837391750305,,
0.000853706897637002,0.0477437145818599,0.00158741091690029,,
0.000857641030805836,0.08616254457984,0.00211418957952558,,
0.00086157516397467,0.121394909669973,0.00254624296807116,,
0.000865509297143505,0.152124815209065,0.00288582475394294,,
0.000869443430312339,0.176760130350389,0.00310563619467574,,
0.000873377563481173,0.194563101411432,0.00319867639775717,,
0.000877311696650007,0.204692276752399,0.003165638344933,,
0.000881245829818841,0.207171509841083,0.0029943978171052,,
0.000885179962987675,0.20134691602275,0.0027460201288334,,
0.000889114096156509,0.187969732651978,0.00235374507710517,,
0.000893048229325343,0.167134374809422,0.00187990252009396,,
0.000896982362494177,0.139835931618336,0.00135491850250347,,
0.000900916495663012,0.107241460429153,0.000761398886357956,,
0.000904850628831846,0.0706226565877344,0.000160480061268675,,
0.00090878476200068,0.031575528598134,-0.000446272840915363,,
0.000912718895169514,-0.00766950679606448,-0.00100874598639189,,
0.000916653028338348,-0.0472925844033807,-0.00161456898999335,,
0.000920587161507182,-0.0859500665840765,-0.00213045392033884,,
0.000924521294676016,-0.121422875804629,-0.00255197635551019,,
0.00092845542784485,-0.152297370960083,-0.0028764221170019,,
0.000932389561013684,-0.176966615603012,-0.00310761593098929,,
0.000936323694182519,-0.194928511862048,-0.00320013343630077,,
0.000940257827351353,-0.205331267677858,-0.00316668966339417,,
0.000944191960520187,-0.207532778248645,-0.00301364434859508,,
0.000948126093689021,-0.20178215368143,-0.0027548393580652,,
0.000952060226857855,-0.188139380160002,-0.00237919586824642,,
0.000955994360026689,-0.167187810102425,-0.0019022689501722,,
0.000959928493195523,-0.139808553007517,-0.00133795969921424,,
0.000963862626364357,-0.10711197017541,-0.000765801097323049,,
0.000967796759533191,-0.0703078319395114,-0.000138665943564931,,
0.000971730892702026,-0.0310307471199875,0.0004719501837811,,
0.00097566502587086,0.00837662111046,0.00103515777145047,,
0.000979599159039694,0.0478167437948376,0.00162405602855742,,
0.000983533292208528,0.0862546976937222,0.00211347882901691,,
0.000987467425377362,0.121407042037213,0.00258159392150992,,
0.000991401558546196,0.152058836282135,0.00287097006830583,,
0.00099533569171503,0.17676424301725,0.00309675773623486,,
0.000999269824883864,0.194560428177972,0.00319926572838769,,
0.0010032039580527,0.20482567403966,0.00316782390274817,,
0.00100713809122153,0.207091694727784,0.00302672808088067,,
0.00101107222439037,0.201493209458241,0.00274714844526658,,
0.0010150063575592,0.18768302101937,0.00237459672016138,,
0.00101894049072803,0.167132200971224,0.00190385777370583,,
0.00102287462389687,0.139801943364347,0.00135697375605881,,
0.0010268087570657,0.107251154572469,0.000758952720023132,,
0.00103074289023454,0.0706185439208732,0.000135719290413228,,
0.00103467702340337,0.0315551708971712,-0.000459612739529991,,
0.00103861115657221,-0.007685781206358,-0.0010171846679552,,
0.00104254528974104,-0.0472952282606486,-0.00158918483171222,,
0.00104647942290987,-0.0859706886707661,-0.00211516982293603,,
0.00105041355607871,-0.121484742064697,-0.00255535093969739,,
0.00105434768924754,-0.152232097061758,-0.00289098361805351,,
0.00105828182241638,-0.177085765437218,-0.0031032625841223,,
0.00106221595558521,-0.194857891496803,-0.0031919524017967,,
0.00106615008875404,-0.205297308800061,-0.00314696633677114,,
0.00107008422192288,-0.207610860166624,-0.0030025906974509,,
0.00107401835509171,-0.201642910531988,-0.00274064211664937,,
0.00107795248826055,-0.188187204600359,-0.00238028420496317,,
0.00108188662142938,-0.167271003477789,-0.00188205698257393,,
0.00108582075459821,-0.139807319207459,-0.00134598081485349,,
0.00108975488776705,-0.107106153689421,-0.000769322273802775,,
0.00109368902093588,-0.0702123005635646,-0.000136391541936121,,
0.00109762315410472,-0.0310014296805057,0.00046442955495829,,
0.00110155728727355,0.00838581585851392,0.00103423971870953,,
0.00110549142044239,0.0477592545873567,0.00159917383782338,,
0.00110942555361122,0.0862110740488019,0.00214088122259692,,
0.00111335968678005,0.121490734807838,0.00253743854614186,,
0.00111729381994889,0.15202852005213,0.00289516520021449,,
0.00112122795311772,0.176804517776297,0.00308936889240252,,
0.00112516208628656,0.194375828188289,0.00318532317257025,,
0.00112909621945539,0.204809899024628,0.00312989647871431,,
0.00113303035262422,0.207001950461635,0.00299395655949741,,
0.00113696448579306,0.201345447213157,0.00276146414510059,,
0.00114089861896189,0.187749734351097,0.00235953177083204,,
0.00114483275213073,0.16709025176924,0.00189175132336983,,
0.00114876688529956,0.139830085756154,0.00134371825906676,,
0.00115270101846839,0.107227888628511,0.000726620975517456,,
0.00115663515163723,0.07061707511128,0.000158903083576689,,
0.00116056928480606,0.0316715887455344,-0.00044198168471743,,
0.0011645034179749,-0.00767967095844996,-0.00103848497227022,,
0.00116843755114373,-0.0472850640982631,-0.00160958040985859,,
0.00117237168431257,-0.0859185165540129,-0.00212246982295472,,
0.0011763058174814,-0.121396966003403,-0.00257113848537749,,
0.00118023995065023,-0.15222945320449,-0.00287989294865376,,
0.00118417408381907,-0.17713476492525,-0.00310600193504218,,
0.0011881082169879,-0.195115109432777,-0.00319615767564096,,
0.00119204235015674,-0.205357706250537,-0.00316598187434591,,
0.00119597648332557,-0.207486951389335,-0.00299169548444089,,
0.0011999106164944,-0.201789027710327,-0.00273820927688639,,
0.00120384474966324,-0.188216287030306,-0.00236465657814744,,
0.00120777888283207,-0.167167481777654,-0.00189276858503584,,
0.00121171301600091,-0.139805850397865,-0.00134799905015326,,
0.00121564714916974,-0.10713165222396,-0.000763771016181636,,
0.00121958128233857,-0.0702811583572975,-0.000157484544019315,,
0.00122351541550741,-0.0310055423473669,0.000460138398760357,,
0.00122744954867624,0.00840232527834235,0.0010166338363109,,
0.00123138368184508,0.0477294083764214,0.00161797911170591,,
0.00123531781501391,0.0861882487477223,0.00213852093861533,,
0.00123925194818275,0.121458714758705,0.00255132779567058,,
0.00124318608135158,0.152074846306702,0.00290828743148586,,
0.00124712021452041,0.176769589484169,0.0030964645516498,,
0.00125105434768925,0.194450766853738,0.00317603010966572,,
0.00125498848085808,0.204826408444457,0.00314208584994313,,
0.00125892261402692,0.207175152488874,0.00301459793886139,,
