Time domain (s),Current (AC) (A),Potential (AC) (V),Frequency (Hz),Column 5
0,-0.12383597326024,-0.00785357298433986,0.19953,0.3
0.0122357853455621,-0.119960931658083,-0.00768735842839874,,
0.0244715706911241,-0.115804004897886,-0.00752022435922317,,
0.0367073560366862,-0.111775984298115,-0.00732520396141023,,
0.0489431413822483,-0.107817624185463,-0.00710699511166712,,
0.0611789267278103,-0.103831673952012,-0.00694683262465068,,
0.0734147120733724,-0.099709600274878,-0.00674228063624183,,
0.0856504974189345,-0.0956014130161602,-0.00656933064585807,,
0.0978862827644966,-0.0915398183455484,-0.0063765170798078,,
0.110122068110059,-0.0873733446726903,-0.00616255470936578,,
0.122357853455621,-0.08322427470186,-0.00597641179387054,,
0.134593638801183,-0.079008650416451,-0.00576644512639257,,
0.146829424146745,-0.0747615076155585,-0.00555967167760141,,
0.159065209492307,-0.0705769907345614,-0.00537812632827883,,
0.171300994837869,-0.0663224479343816,-0.00511930634061564,,
0.183536780183431,-0.0620945816748427,-0.00495314402974456,,
0.195772565528993,-0.0578069672729093,-0.00472122607359671,,
0.208008350874555,-0.0535374417581229,-0.00452613880209407,,
0.220244136220117,-0.0491780199556968,-0.00429017498771511,,
0.232479921565679,-0.0449116462924588,-0.00407246769064562,,
0.244715706911241,-0.0405939751032962,-0.0038948511705974,,
0.256951492256803,-0.0362360607081324,-0.00367523797336888,,
0.269187277602366,-0.0319144611242865,-0.00348116843583224,,
0.281423062947928,-0.0275488269767796,-0.00325033926694651,,
0.29365884829349,-0.0232208323318211,-0.00304471938930417,,
0.305894633639052,-0.0188458796666931,-0.00282313341822737,,
0.318130418984614,-0.014489883789863,-0.00258842557533434,,
0.330366204330176,-0.0101257570496185,-0.00240577263052488,,
0.342601989675738,-0.00571700191860969,-0.00216798859790224,,
0.3548377750213,-0.0013416838214181,-0.00194585091888477,,
0.367073560366862,0.00307072563022642,-0.00174201991244383,,
0.379309345712424,0.00743195175346638,-0.00152439620748623,,
0.391545131057986,0.0117884729388878,-0.00129348135668517,,
0.403780916403548,0.0161499046176635,-0.00105805253182467,,
0.41601670174911,0.0205254054308869,-0.000861962154975249,,
0.428252487094672,0.0248457260025103,-0.000640392902320652,,
0.440488272440234,0.0291834045971536,-0.000416917749507917,,
0.452724057785797,0.0335358831903717,-0.000209205979256666,,
0.464959843131359,0.037897680301211,-4.05630724564787E-06,,
0.477195628476921,0.0421787169260001,0.000229600364836102,,
0.489431413822483,0.0464656004638064,0.000461430549265618,,
0.501667199168045,0.0508059969594225,0.000659481161146669,,
0.513902984513607,0.0551186434577109,0.000874133166514746,,
0.526138769859169,0.0593534757659616,0.00113552152182583,,
0.538374555204731,0.0636820185590155,0.00134206091270261,,
0.550610340550293,0.0678742551923557,0.00154058799962353,,
0.562846125895855,0.0721556572492083,0.00176115832653689,,
0.575081911241417,0.076384437088906,0.00199290909845962,,
0.587317696586979,0.080573384833674,0.00221176996667838,,
0.599553481932541,0.0847531967768527,0.00240849564358037,,
0.611789267278103,0.0888834926754167,0.00261354709485984,,
0.624025052623666,0.0930892502951092,0.00285479393073107,,
0.636260837969228,0.0971742326177899,0.00305269407681008,,
0.64849662331479,0.101238956300446,0.00326300765155363,,
0.660732408660352,0.105276775047422,0.00347065045831219,,
0.672968194005914,0.109320440707414,0.00368180413378383,,
0.685203979351476,0.113370364391496,0.00388015567726852,,
0.697439764697038,0.117348480675085,0.00414211663854847,,
0.7096755500426,0.121361084609673,0.00433815268052484,,
0.721911335388162,0.125330773116296,0.00450331397585213,,
0.734147120733724,0.129275612242595,0.00471610187711757,,
0.746382906079286,0.133039379781393,0.00495953046711817,,
0.758618691424848,0.136940389899567,0.00514513421348939,,
0.77085447677041,0.140629380902356,0.00532113322616601,,
0.783090262115972,0.144474662630835,0.00553489079593339,,
0.795326047461534,0.148224383874689,0.00575659379596738,,
0.807561832807097,0.152011150793988,0.00593728650574521,,
0.819797618152659,0.155642814641803,0.00613508216168412,,
0.832033403498221,0.159104918012119,0.00631055872365938,,
0.844269188843783,0.162873618883775,0.00654110576916667,,
0.856504974189345,0.16636422595505,0.00673256514299858,,
0.868740759534907,0.170040289798589,0.00689678602706367,,
0.880976544880469,0.173414324041584,0.00708435418807163,,
0.893212330226031,0.176834608280124,0.00730917099428607,,
0.905448115571593,0.180064274018502,0.00745722516384717,,
0.917683900917155,0.183478528627994,0.0076434349530321,,
0.929919686262717,0.187001453597391,0.00782969489748409,,
0.942155471608279,0.190171211316846,0.00799154594516738,,
0.954391256953841,0.193158618436578,0.00818549218433828,,
0.966627042299403,0.196364188498263,0.00836918167133938,,
0.978862827644966,0.199748272123006,0.00853477764565014,,
0.991098612990528,0.202799812569895,0.00872589011221692,,
1.00333439833609,0.205765659197875,0.00887772264525033,,
1.01557018368165,0.208732419406014,0.00902750299192867,,
1.02780596902721,0.211676705542243,0.00920929911758828,,
1.04004175437278,0.214451979349069,0.0093641451462676,,
1.05227753971834,0.21732190006036,0.00954818154053427,,
1.0645133250639,0.220064467697496,0.00972006364168454,,
1.07674911040946,0.222905153843701,0.00986872385405935,,
1.08898489575502,0.225597657288127,0.0100272270376478,,
1.10122068110059,0.228118773094735,0.010141367887281,,
1.11345646644615,0.230579592610854,0.010297534671333,,
1.12569225179171,0.233303888644811,0.0104447738178002,,
1.13792803713727,0.235644481012013,0.0105648622462176,,
1.15016382248283,0.238216026443395,0.0107255931595973,,
1.1623996078284,0.240355265743567,0.0108379618564509,,
1.17463539317396,0.242521912448507,0.0109844444943024,,
1.18687117851952,0.244740998654571,0.0111664412410311,,
1.19910696386508,0.247098766328761,0.0112793700050369,,
1.21134274921064,0.249179536498761,0.011414187363628,,
1.22357853455621,0.251426030109592,0.0115101051327966,,
1.23581431990177,0.253344731159396,0.0116604539058383,,
1.24805010524733,0.255140281603775,0.0117652784145639,,
1.26028589059289,0.25713974313963,0.0118814881689744,,
1.27252167593846,0.258919945437339,0.0119943542388956,,
1.28475746128402,0.260693021809808,0.0121209461336442,,
1.29699324662958,0.262280641410012,0.0122177123627516,,
1.30922903197514,0.264090443704871,0.0123164680841303,,
1.3214648173207,0.265477441102172,0.0123977697724769,,
1.33370060266627,0.267185470567325,0.0125508394687714,,
1.34593638801183,0.268771993871339,0.0126329352821841,,
1.35817217335739,0.269968235731454,0.0127131962487339,,
1.37040795870295,0.27130462078795,0.0127998352934457,,
1.38264374404851,0.272881642858311,0.0129067119885264,,
1.39487952939408,0.273486798355592,0.0129774476338884,,
1.40711531473964,0.274949988338149,0.0130686633467447,,
1.4193511000852,0.275826842574699,0.0131428137298908,,
1.43158688543076,0.277096718995625,0.0132297453469956,,
1.44382267077632,0.277713933751004,0.0133013127338741,,
1.45605845612189,0.278900126229371,0.0133805079009925,,
1.46829424146745,0.279645242207001,0.0134388593749288,,
1.48053002681301,0.280621311248812,0.0135055157252144,,
1.49276581215857,0.281155024777664,0.0135440516889487,,
1.50500159750413,0.281697691392074,0.0136596261433062,,
1.5172373828497,0.282200343195523,0.0136993449354281,,
1.52947316819526,0.282703725863098,0.0137226253386817,,
1.54170895354082,0.283084323357312,0.0137861051887027,,
1.55394473888638,0.283457612210255,0.0138162986596373,,
1.56618052423194,0.283624249231245,0.0138461744805451,,
1.57841630957751,0.283774076377311,0.0139062437723876,,
1.59065209492307,0.283846980073995,0.0139186446622359,,
1.60288788026863,0.284100589926116,0.0139619495559722,,
1.61512366561419,0.284371923233321,0.0139938106895454,,
1.62735945095976,0.284132199799615,0.0140447350043105,,
1.63959523630532,0.283857577603838,0.0140550001156914,,
1.65183102165088,0.283784673907155,0.014088019000019,,
1.66406680699644,0.283485567763118,0.0140671251515694,,
1.676302592342,0.28303097027603,0.0141236626766701,,
1.68853837768757,0.282769503634542,0.014083204094355,,
1.70077416303313,0.282603597477678,0.0141139325548076,,
1.71300994837869,0.281927365444031,0.0141218403686239,,
1.72524573372425,0.281326046983418,0.0141056276784584,,
1.73748151906981,0.280738066793124,0.014099755332575,,
1.74971730441538,0.280212210053639,0.0141086996885824,,
1.76195308976094,0.279257518787548,0.0140592465949925,,
1.7741888751065,0.278149163338723,0.0140965453954656,,
1.78642466045206,0.277382304153309,0.0140643289954152,,
1.79866044579762,0.276621109164881,0.0140592800318373,,
1.81089623114319,0.275422126564289,0.014027214097589,,
1.82313201648875,0.274396541477864,0.013986270681023,,
1.83536780183431,0.273335874913336,0.0139507440333286,,
1.84760358717987,0.271739850375669,0.0139345313431636,,
1.85983937252543,0.270544339379681,0.0138813792986072,,
1.872075157871,0.269409124674183,0.0138137031245527,,
1.88431094321656,0.267764314956029,0.0138163989701718,,
1.89654672856212,0.26647671508002,0.013771627034866,,
1.90878251390768,0.2649539596711,0.0137342070258302,,
1.92101829925325,0.263077283308607,0.013657080763489,,
1.93325408459881,0.261644424187327,0.0136041376992133,,
1.94548986994437,0.259875550283589,0.0135662203171099,,
1.95772565528993,0.258115994897472,0.0134640832947919,,
1.96996144063549,0.256139190149559,0.0134136814307277,,
1.98219722598106,0.254352592790738,0.0133475767883828,,
1.99443301132662,0.252347832489962,0.0132959168630302,,
2.00666879667218,0.250446672179209,0.0132327337650073,,
2.01890458201774,0.248458904469389,0.0131205740484344,,
2.0311403673633,0.246118494818219,0.0130378387553631,,
2.04337615270887,0.243833265408649,0.0129513836132977,,
2.05561193805443,0.241487008844461,0.0128822696549129,,
2.06784772339999,0.239175285610281,0.0127774785830321,,
2.08008350874555,0.236832135218634,0.0127104251702135,,
2.09231929409111,0.234556589758748,0.0126248770025659,,
2.10455507943668,0.231932239394179,0.0125312454776667,,
2.11679086478224,0.229648288996831,0.0124254053247772,,
2.1290266501278,0.226874659634292,0.0123147419070131,,
2.14126243547336,0.224289593216558,0.0122106070332131,,
2.15349822081892,0.22143849225654,0.0121102964985469,,
2.16573400616449,0.218666141906223,0.0120029642264545,,
2.17796979151005,0.215860537238121,0.0118732125498644,,
2.19020557685561,0.213250073291968,0.0117639576591908,,
2.20244136220117,0.210155046429514,0.0116676470070947,,
2.21467714754673,0.207147540546286,0.0115332810459097,,
2.2269129328923,0.204270493909755,0.0114008669605452,,
2.23914871823786,0.201254765805097,0.0112767493923189,,
2.25138450358342,0.198102183392629,0.0111247789323001,,
2.26362028892898,0.195128114543219,0.011010207583289,,
2.27585607427454,0.191600233401459,0.0108604272366106,,
2.28809185962011,0.188503173823151,0.0107200802597962,,
2.30032764496567,0.1853018290697,0.0105996532833244,,
2.31256343031123,0.18183458681099,0.0104459817238216,,
2.32479921565679,0.178408866770504,0.0103036494343423,,
2.33703500100236,0.175028597342925,0.0101564813411708,,
2.34927078634792,0.171760561237872,0.0099932593828469,,
2.36150657169348,0.168143149240536,0.0098768657257895,,
2.37374235703904,0.164590236002422,0.00968609180727764,,
2.3859781423846,0.161066740045425,0.00954149417155659,,
2.39821392773017,0.157487310143197,0.00937832654810578,,
2.41044971307573,0.153751703712799,0.00922449616359033,,
2.42268549842129,0.150029778145281,0.00905047410436755,,
2.43492128376685,0.146241503818719,0.00889607947309434,,
2.44715706911241,0.142687151691855,0.00875183292424486,,
2.45939285445798,0.138851211320501,0.00859277385310975,,
2.47162863980354,0.134877343184651,0.00839487788663629,,
2.4838644251491,0.131115197250635,0.00822038771158518,,
2.49610021049466,0.127208911207043,0.00802812585347557,,
2.50833599584022,0.123281452943267,0.00788655425221707,,
2.52057178118579,0.119319598386508,0.00768839079098482,,
2.53280756653135,0.115414933947698,0.00750860087601879,,
2.54504335187691,0.111415850999461,0.00733026964341077,,
2.55727913722247,0.107264177325178,0.00715167927525506,,
2.56951492256803,0.10327146659855,0.00696263989307155,,
2.5817507079136,0.0993049071039719,0.00678765234495282,,
2.59398649325916,0.0950905389912814,0.00656314064994801,,
2.60622227860472,0.090940692477316,0.00638823251433562,,
2.61845806395028,0.0868569663273539,0.00621024818899363,,
2.63069384929584,0.0826397204371627,0.00602233312071965,,
2.64292963464141,0.0784178838066729,0.0058079193528715,,
2.65516541998697,0.0742459286528612,0.00563187436453294,,
2.66740120533253,0.0699612377074364,0.00542700681590036,,
2.67963699067809,0.0657348331761519,0.00523579821840459,,
2.69187277602366,0.0615705520956752,0.0050349932464262,,
2.70410856136922,0.0572367105376995,0.00483962176174169,,
2.71634434671478,0.052901772683533,0.00460019305431114,,
2.72858013206034,0.0486150718617585,0.00441218185510817,,
2.7408159174059,0.04435082227239,0.00419368879218363,,
2.75305170275147,0.0400380158975738,0.0040089042485123,,
2.76528748809703,0.0357017990311848,0.00380088945685442,,
2.77752327344259,0.0313188068606581,0.00359204292368043,,
2.78975905878815,0.026981859130142,0.00338562056176039,,
2.80199484413371,0.0226714052242351,0.00317431642048671,,
2.81423062947928,0.01833354391356,0.00297591890134008,,
2.82646641482484,0.0139920054427452,0.00274307725235268,,
2.8387022001704,0.00961031512394496,0.00256429462233898,,
2.85093798551596,0.00520834332561632,0.00231963722828876,,
2.86317377086152,0.000823866587331365,0.00210672811846058,,
2.87540955620709,-0.00355455768240062,0.00189741346945782,,
2.88764534155265,-0.00795234985150211,0.00167422670943207,,
2.89988112689821,-0.0122891148659865,0.00146425586234811,,
2.91211691224377,-0.0166945354294151,0.00122529945035188,,
2.92435269758933,-0.0210328535301697,0.00103454225026223,,
2.9365884829349,-0.0254223777988328,0.000835513610668137,,
2.94882426828046,-0.0298095267590826,0.000617835570837943,,
2.96106005362602,-0.0340600954855711,0.000388157883298046,,
2.97329583897158,-0.0383672605029058,0.000159299398457602,,
2.98553162431715,-0.0428361292083727,-5.82741512324958E-05,,
2.99776740966271,-0.0470435769513593,-0.000252291443698649,,
3.01000319500827,-0.0514140987527164,-0.000468176432721901,,
3.02223898035383,-0.0556736205647625,-0.000684059331942599,,
3.03447476569939,-0.059962833731974,-0.000922198631041926,,
3.04671055104496,-0.064230166654379,-0.00114841351533324,,
3.05894633639052,-0.0685177810563124,-0.00130969822645621,,
3.07118212173608,-0.0727317608974354,-0.00155671291807069,,
3.08341790708164,-0.0769128061738285,-0.00177278180974128,,
3.0956536924272,-0.0811511329261872,-0.00197076345812963,,
3.10788947777277,-0.085277409072052,-0.00219769723458585,,
3.12012526311833,-0.0894680012611061,-0.00239721279823346,,
3.13236104846389,-0.0935509737074371,-0.00264712186673366,,
3.14459683380945,-0.097684923926637,-0.00284154040133844,,
3.15683261915501,-0.10175784699122,-0.00305948175632231,,
3.16906840450058,-0.105772483641662,-0.0032578458386241,,
3.18130418984614,-0.109853628927675,-0.00347959899392558,,
3.1935399751917,-0.113881101379351,-0.00369192295896825,,
3.20577576053726,-0.117950507160322,-0.00389304558097336,,
3.21801154588282,-0.121948516651871,-0.0041245643847847,,
3.23024733122839,-0.125819538501328,-0.00433381007029476,,
3.24248311657395,-0.129580748015681,-0.00450758135318097,,
3.25471890191951,-0.133586066148502,-0.00473147655635797,,
3.26695468726507,-0.137436075654304,-0.0049347036097882,,
3.27919047261063,-0.14117316665246,-0.00511156571102367,,
3.2914262579562,-0.14486859839537,-0.00533429062462965,,
3.30366204330176,-0.148709837531645,-0.00553131723313571,,
3.31589782864732,-0.152285087804646,-0.00573727147922742,,
3.32813361399288,-0.156087545463175,-0.00594753907830947,,
3.34036939933844,-0.159680427833243,-0.00612639276161842,,
3.35260518468401,-0.163176744780511,-0.00632888838406664,,
3.36484097002957,-0.166732581475134,-0.00653044359525268,,
3.37707675537513,-0.170265395949752,-0.00670981554965744,,
3.38931254072069,-0.173901262266298,-0.00689691141523197,,
3.40154832606626,-0.177203123676736,-0.00711522057550962,,
3.41378411141182,-0.180693913464043,-0.0072934201505408,,
3.42601989675738,-0.184082747705612,-0.00746162628855584,,
3.43825568210294,-0.187137759757105,-0.00767955092511707,,
3.4504914674485,-0.190744391508565,-0.00784922619450468,,
3.46272725279407,-0.193818406027363,-0.00803097216489679,,
3.47496303813963,-0.196893288447313,-0.00821188221416636,,
3.48719882348519,-0.200103837520865,-0.00836908554041038,,
3.49943460883075,-0.203381763131139,-0.00855380738999756,,
3.51167039417631,-0.206320385070383,-0.0087286988071873,,
3.52390617952188,-0.209079534187403,-0.00893933421156312,,
3.53614196486744,-0.212157294384853,-0.00909306010593847,,
3.548377750213,-0.215150502738594,-0.00925275447712659,,
3.56061353555856,-0.217952818518124,-0.00941388663264497,,
3.57284932090412,-0.220693193562878,-0.00957545346714683,,
3.58508510624969,-0.22341602786858,-0.00974870856873977,,
3.59732089159525,-0.225987025151867,-0.00989121222204936,,
3.60955667694081,-0.228700358223916,-0.0100672927370358,,
3.62179246228637,-0.231441464132797,-0.0102127430123011,,
3.63402824763193,-0.233727241690463,-0.0103402209834393,,
3.6462640329775,-0.236319114280382,-0.0105152294295863,,
3.65849981832306,-0.238645043686033,-0.0106345989658383,,
3.67073560366862,-0.240967181734024,-0.0108044414194501,,
3.68297138901418,-0.243314671631427,-0.0109292611614196,,
3.69520717435974,-0.24554956277424,-0.0110687429598721,,
3.70744295970531,-0.247552267519658,-0.0112098443554993,,
3.71967874505087,-0.249951877165128,-0.0113405009167047,,
3.73191453039643,-0.251678360949491,-0.0114733789382919,,
3.74415031574199,-0.253893792834919,-0.0116277380429173,,
3.75638610108756,-0.255985343250794,-0.0117441672266225,,
3.76862188643312,-0.257802088754861,-0.011875507153345,,
3.78085767177868,-0.259515645379975,-0.0119912989471942,,
3.79309345712424,-0.261282098296292,-0.0120805920414693,,
3.8053292424698,-0.263083861085752,-0.0122059634913789,,
3.81756502781537,-0.264633110319281,-0.0123177763006868,,
3.82980081316093,-0.266175050911538,-0.0124279862312422,,
3.84203659850649,-0.26769999891284,-0.0125305182262903,,
3.85427238385205,-0.269099969148398,-0.0126381012747196,,
3.86650816919761,-0.270531960368527,-0.0127618343192299,,
3.87874395454318,-0.271797999752785,-0.0128214354952436,,
3.89097973988874,-0.27323921813252,-0.0129293027568544,,
3.9032155252343,-0.274166501993843,-0.0130202844117964,,
3.91545131057986,-0.275648877159738,-0.0131036090292587,,
3.92768709592542,-0.276350689437835,-0.0132086675958987,,
3.93992288127099,-0.277506322659885,-0.0132936139003386,,
3.95215866661655,-0.278548215152147,-0.0133719710565319,,
3.96439445196211,-0.279516427404591,-0.0134384957492406,,
3.97663023730767,-0.280136748332511,-0.0135103849657514,,
3.98886602265323,-0.280972263066869,-0.0135838289955492,,
4.0011018079988,-0.281549554369302,-0.0136518896933198,,
4.01333759334436,-0.282278362941096,-0.0137145670590635,,
4.02557337868992,-0.282748125858822,-0.0137669291581592,,
4.03780916403548,-0.283274896178467,-0.0138408413037854,,
4.05004494938104,-0.283675455399154,-0.0138658687821844,,
4.06228073472661,-0.284004892404467,-0.0139445435884049,,
4.07451652007217,-0.28430541459775,-0.0139797379574529,,
4.08675230541773,-0.284418333105395,-0.0140096304967834,,
4.09898809076329,-0.284377084961219,-0.014068011227959,,
4.11122387610886,-0.284706339250501,-0.014100043725362,,
4.12345966145442,-0.284709262707009,-0.0141378942337758,,
4.13569544679998,-0.284661573822713,-0.0141511185059295,,
4.14793123214554,-0.284510239269384,-0.0141690740916345,,
4.1601670174911,-0.284416688661109,-0.0142237266146052,,
4.17240280283667,-0.283956289940012,-0.0142366499551545,,
4.18463858818223,-0.283422576411159,-0.0142527999512359,,
4.19687437352779,-0.283233282602227,-0.0142431367030631,,
4.20911015887335,-0.282751780179458,-0.0142651214285769,,
