Time domain (s),Current (AC) (A),Potential (AC) (V),Frequency (Hz),Column 5
0,0.046415902857693,0.000709029969482522,1995.3,0.4
1.56618052423195E-05,-0.0207071070247627,-0.000305069183740958,,
3.13236104846389E-05,-0.0886422263410507,-0.00130025594415439,,
4.69854157269584E-05,-0.153946400367462,-0.00225176344706757,,
6.26472209692778E-05,-0.212760433075062,-0.00312128385727872,,
7.83090262115972E-05,-0.263608842515242,-0.00387924652670879,,
9.39708314539167E-05,-0.303677163120833,-0.00446625639121345,,
0.000109632636696236,-0.332244547854991,-0.00487598483347185,,
0.000125294441938556,-0.347781407322963,-0.00513012233789345,,
0.000140956247180875,-0.349957006832295,-0.00518018363755335,,
0.000156618052423195,-0.338497237123892,-0.00497647918062549,,
0.000172279857665514,-0.313885493184687,-0.00463488076359608,,
0.000187941662907833,-0.27778973659043,-0.00410390019841245,,
0.000203603468150153,-0.23043594205397,-0.00343082737123979,,
0.000219265273392472,-0.174693151051359,-0.00260448090859811,,
0.000234927078634792,-0.112050430950584,-0.00168803122988104,,
0.000250588883877111,-0.0454736193407652,-0.000729119934772982,,
0.000266250689119431,0.0215939948230183,0.00027301873274288,,
0.00028191249436175,0.0890613248173054,0.00128558192186112,,
0.00029757429960407,0.153892585710528,0.00224901429392244,,
0.000313236104846389,0.212770622139596,0.00312920631561386,,
0.000328897910088708,0.262970679151511,0.00388002118686614,,
0.000344559715331028,0.303027522420041,0.00446386562969314,,
0.000360221520573347,0.331646203823921,0.00491607127058646,,
0.000375883325815667,0.346985957595221,0.00511864935383732,,
0.000391545131057986,0.349226263520127,0.00517013754189044,,
0.000407206936300306,0.337956455451653,0.00499620407618684,,
0.000422868741542625,0.313734121162734,0.0046613772574311,,
0.000438530546784945,0.277590874158495,0.00412539701778281,,
0.000454192352027264,0.230826142235125,0.00342088812525398,,
0.000469854157269584,0.175216716718006,0.00260743263092245,,
0.000485515962511903,0.112931140896492,0.0016879288322742,,
0.000501177767754222,0.0463721601496083,0.000723672827286581,,
0.000516839572996542,-0.0206923504485414,-0.000276518059660891,,
0.000532501378238861,-0.0887626212645074,-0.00126088851632389,,
0.000548163183481181,-0.153796609407247,-0.00226789107017344,,
0.0005638249887235,-0.212902201610903,-0.00312925751441728,,
0.00057948679396582,-0.263320210911294,-0.00387609891331042,,
0.000595148599208139,-0.303667969539616,-0.0044879780401117,,
0.000610810404450459,-0.332039771080999,-0.0048882859025241,,
0.000626472209692778,-0.347564567633488,-0.00511051097011395,,
0.000642134014935097,-0.34942395479522,-0.00515184398679214,,
0.000657795820177417,-0.338307919620227,-0.0049928895101683,,
0.000673457625419736,-0.313926659347717,-0.00465152705284222,,
0.000689119430662056,-0.277589644443809,-0.0041189548726801,,
0.000704781235904375,-0.230524130164245,-0.00340497420150143,,
0.000720443041146695,-0.174571819202428,-0.00259277196483865,,
0.000736104846389014,-0.112108520329995,-0.00169428861408427,,
0.000751766651631334,-0.0454637816232843,-0.000710240932487061,,
0.000767428456873653,0.0215361396749759,0.000250618143189385,,
0.000783090262115973,0.0891177452982152,0.00129108913229103,,
0.000798752067358292,0.153979163480144,0.00227147053434962,,
0.000814413872600611,0.212804937035095,0.00314182793369699,,
0.000830075677842931,0.263106826134505,0.00388893868281714,,
0.00084573748308525,0.303064648091963,0.0044755745734526,,
0.00086139928832757,0.331692288845691,0.00488471534248802,,
0.000877061093569889,0.346999367341073,0.0051227452581184,,
0.000892722898812209,0.349242718273771,0.00516152278669102,,
0.000908384704054528,0.33795010192578,0.0049811160113955,,
0.000924046509296848,0.313880867115157,0.00464627138436002,,
0.000939708314539167,0.277669868687552,0.00408615202187379,,
0.000955370119781486,0.230872695719633,0.00341924531147209,,
0.000971031925023806,0.175113947705036,0.00259254045720558,,
0.000986693730266125,0.112722557862761,0.00165408419711799,,
0.00100235553550844,0.0464128578499013,0.00072200997919003,,
0.00101801734075076,-0.0207160663746114,-0.000279950605531099,,
0.00103367914599308,-0.0887071084301509,-0.00129816347131495,,
0.0010493409512354,-0.154059944023388,-0.0022421447501122,,
0.00106500275647772,-0.212918187901809,-0.00310024114903573,,
0.00108066456172004,-0.263365124776221,-0.00387354342520441,,
0.00109632636696236,-0.303796152656078,-0.00448037835684278,,
0.00111198817220468,-0.331837980756956,-0.00490766576267099,,
0.001127649977447,-0.347470055276261,-0.00512963928831267,,
0.00114331178268932,-0.34984838203511,-0.00514229652295484,,
0.00115897358793164,-0.338661608986802,-0.00501951066195927,,
0.00117463539317396,-0.314210957671347,-0.00464689467414203,,
0.00119029719841628,-0.277684156801037,-0.00410188118472643,,
0.0012059590036586,-0.230394834448782,-0.00343980051806403,,
0.00122162080890092,-0.174655088453963,-0.00261440457233997,,
0.00123728261414324,-0.112048791331003,-0.00167038545094922,,
0.00125294441938556,-0.0454999703697319,-0.000710975524015556,,
0.00126860622462788,0.0215996163758645,0.000288091215289832,,
0.00128426802987019,0.0891097521527619,0.00128726480427233,,
0.00129992983511251,0.153864858572271,0.00226106604706189,,
0.00131559164035483,0.212668321589363,0.00313480256744114,,
0.00133125344559715,0.263120001648989,0.0038730848620081,,
0.00134691525083947,0.303087017187664,0.00445049161180178,,
0.00136257705608179,0.331561529184174,0.00489494174698102,,
0.00137823886132411,0.346822991120523,0.00510241710708925,,
0.00139390066656643,0.349352045765062,0.00516869061918257,,
0.00140956247180875,0.337945856482224,0.0049937020129196,,
0.00142522427705107,0.313896619174695,0.00463871176971997,,
0.00144088608229339,0.277495190644424,0.00408758558837219,,
0.00145654788753571,0.230796511966998,0.00343272617904011,,
0.00147220969277803,0.175084317436909,0.00258328015187459,,
0.00148787149802035,0.112787000768045,0.00167151405066157,,
0.00150353330326267,0.0463728921226351,0.000712088541483524,,
0.00151919510850499,-0.0206880757260645,-0.00028819361289667,,
0.00153485691374731,-0.0888404446367224,-0.00129093998795016,,
0.00155051871898963,-0.153855401480764,-0.00224387883132637,,
0.00156618052423195,-0.212901967379534,-0.00314717264357611,,
0.00158184232947426,-0.26330211653807,-0.00388838217408294,,
0.00159750413471658,-0.304123256762318,-0.00445265086568902,,
0.0016131659399589,-0.332223408473976,-0.00491217125737986,,
0.00162882774520122,-0.347645963034074,-0.00513130213640922,,
0.00164448955044354,-0.349867179102439,-0.00514916161469525,,
0.00166015135568586,-0.33864819924095,-0.00498332423805126,,
0.00167581316092818,-0.314048459659385,-0.00464698594157431,,
0.0016914749661705,-0.277644864488955,-0.00412049083678534,,
0.00170713677141282,-0.230454797679142,-0.00341564581298126,,
0.00172279857665514,-0.174618606918305,-0.00261551313773767,,
0.00173846038189746,-0.112080529681448,-0.00168243720408867,,
0.00175412218713978,-0.0454771328112941,-0.000711028948853887,,
0.0017697839923821,0.0215937605916497,0.000285159527280143,,
0.00178544579762442,0.0891212880476651,0.00130199225140393,,
0.00180110760286674,0.153907869307329,0.00226671572372794,,
0.00181676940810906,0.212733701420121,0.00312682891030303,,
0.00183243121335138,0.263018403792862,0.00386355298041519,,
0.0018480930185937,0.303177781842993,0.00446566871799048,,
0.00186375482383601,0.331486516588383,0.00490344965250378,,
0.00187941662907833,0.346954219244777,0.00513064768213845,,
0.00189507843432065,0.349211682617433,0.00514396382312121,,
0.00191074023956297,0.338210655044419,0.00500532191528213,,
0.00192640204480529,0.313871205071203,0.00463949533401697,,
0.00194206385004761,0.277708458305528,0.0041245555765772,,
0.00195772565528993,0.230813230230931,0.00341802989639728,,
0.00197338746053225,0.175108794614927,0.00260766859062578,,
0.00198904926577457,0.112714330485939,0.00168329867960892,,
0.00200471107101689,0.0463888784135416,0.000712052924924489,,
0.00202037287625921,-0.0206897153456447,-0.000265416823438613,,
0.00203603468150153,-0.0886904194451387,-0.00129158331204637,,
0.00205169648674385,-0.153794032862193,-0.00225492664271032,,
0.00206735829198617,-0.212838022215908,-0.00312802206502827,,
0.00208302009722849,-0.263407462096094,-0.00387263075088118,,
0.00209868190247081,-0.303710775322226,-0.00446668378992099,,
0.00211434370771313,-0.332075022901972,-0.00489268454755631,,
0.00213000551295545,-0.347583833163555,-0.00512315039647637,,
0.00214566731819776,-0.349940083615914,-0.00516172980793961,,
0.00216132912344008,-0.338493430864152,-0.0049833798889245,,
0.0021769909286824,-0.314217516149667,-0.00462823159724435,,
0.00219265273392472,-0.277703422331103,-0.0040892773749226,,
0.00220831453916704,-0.230639137766224,-0.00340813739714463,,
0.00222397634440936,-0.174562918410422,-0.00260348141891242,,
0.00223963814965168,-0.11210758340452,-0.0016940927230098,,
0.002255299954894,-0.0455018442206806,-0.000704306323349613,,
0.00227096176013632,0.0215490809580906,0.000277114637023956,,
0.00228662356537864,0.089010994351979,0.00128526137283025,,
0.00230228537062096,0.154035818192422,0.00224494064999092,,
0.00231794717586328,0.212745442267472,0.0031139401680278,,
0.0023336089811056,0.26313528524579,0.00385572178951277,,
0.00234927078634792,0.303448201958034,0.00447289442739063,,
0.00236493259159024,0.331665703585356,0.00489079241786161,,
0.00238059439683256,0.347077893407394,0.00511886305319109,,
0.00239625620207488,0.349145336582279,0.00515422584417324,,
0.0024119180073172,0.337816999950577,0.00500934658644514,,
0.00242757981255951,0.313804683362522,0.00464001622619215,,
0.00244324161780183,0.277746520902924,0.00413070833713824,,
0.00245890342304415,0.230840488906451,0.00344244949963723,,
0.00247456522828647,0.175067628451897,0.00263062791494839,,
0.00249022703352879,0.112668479695537,0.00169498981508909,,
0.00250588883877111,0.0463869752836718,0.000684877490434666,,
0.00252155064401343,-0.0207111475158709,-0.000258139915235489,,
0.00253721244925575,-0.0887886795042634,-0.00131425325182732,,
0.00255287425449807,-0.154036930791423,-0.00224459338854066,,
0.00256853605974039,-0.212859630059661,-0.00310740898152728,,
0.00258419786498271,-0.263478082853725,-0.00386855488091431,,
0.00259985967022503,-0.3035748625706,-0.00446405706869735,,
0.00261552147546735,-0.33221562028097,-0.00489213026485746,,
0.00263118328070967,-0.347690174204896,-0.0051262423590015,,
0.00264684508595199,-0.349640033232747,-0.00516137364235014,,
0.00266250689119431,-0.338368819776061,-0.00501212690407904,,
0.00267816869643663,-0.314185075105117,-0.00466416647920465,,
0.00269383050167895,-0.277715895151481,-0.00411877456385001,,
0.00270949230692126,-0.230560845931272,-0.00341359118273621,,
0.00272515411216358,-0.174681673714298,-0.00257326744673581,,
0.0027408159174059,-0.11203233657736,-0.00169293073277377,,
0.00275647772264822,-0.0454353225120003,-0.000697494656447528,,
0.00277213952789054,0.0215735288571875,0.000284890177052688,,
0.00278780133313286,0.0890965766382786,0.00127869902184097,,
0.00280346313837518,0.154038658247767,0.00224118310302002,,
0.0028191249436175,0.212711127371973,0.00314088409488411,,
0.00283478674885982,0.263054358307941,0.00386518243798761,,
0.00285044855410214,0.302971775354316,0.00448823180809477,,
0.00286611035934446,0.331448219759618,0.00489041844399241,,
0.00288177216458678,0.347228621293084,0.00509358420046624,,
0.0028974339698291,0.349161352152106,0.00513297166261095,,
0.00291309577507142,0.33798254297033,0.0050348569468035,,
0.00292875758031374,0.313754587128565,0.00464759364911194,,
0.00294441938555606,0.277705881760474,0.00410710791475477,,
0.00296008119079838,0.230954530304035,0.00341259391908544,,
0.0029757429960407,0.175125952062677,0.00260782886514122,,
0.00299140480128301,0.112719512854969,0.00168753259805587,,
0.00300706660652533,0.0463449014740883,0.000716467152201083,,
0.00302272841176765,-0.0206923504485414,-0.000304229968570269,,
0.00303839021700997,-0.0887080453556253,-0.00130241742407655,,
0.00305405202225229,-0.153939314868562,-0.0022505836485518,,
0.00306971382749461,-0.212963570229474,-0.00313018577098534,,
0.00308537563273693,-0.263301413843964,-0.0038787990936866,,
0.00310103743797925,-0.303610641412153,-0.00447515830491962,,
0.00311669924322157,-0.33213194112454,-0.00491281458147608,,
0.00313236104846389,-0.34770446231838,-0.00512683225825938,,
0.00314802285370621,-0.349728924037128,-0.00516172980793961,,
0.00316368465894853,-0.338473228408611,-0.00498947477257738,,
0.00317934646419085,-0.314171431127897,-0.00464930992204682,,
0.00319500826943317,-0.277768304420204,-0.00413323933885978,,
0.00321067007467549,-0.230269696340111,-0.0034116589844122,,
0.00322633187991781,-0.174565963418213,-0.00261300884843552,,
0.00324199368516013,-0.111958495138411,-0.00169514786356917,,
0.00325765549040245,-0.0454552907361728,-0.000695313142211162,,
0.00327331729564477,0.0215860016775651,0.000270374203239943,,
0.00328897910088708,0.0890338026314957,0.00130294054228663,,
0.0033046409061294,0.153900110393244,0.00225436122983691,,
0.00332030271137172,0.212735341039702,0.00313583989972077,,
0.00333596451661404,0.263158532709122,0.00388041296901509,,
0.00335162632185636,0.303044211405053,0.00448942941488983,,
0.00336728812709868,0.331379765642147,0.00489797805863246,,
0.003382949932341,0.346958903872149,0.00513168501441852,,
0.00339861173758332,0.348973469315574,0.00516888651025704,,
0.00341427354282564,0.338037089600291,0.00502600623190075,,
0.00342993534806796,0.31378799437751,0.00463232750152542,,
0.00344559715331028,0.27764990046338,0.00411854973432213,,
0.0034612589585526,0.230872227256895,0.00342720116033046,,
0.00347692076379492,0.175185915293036,0.00258394351028546,,
0.00349258256903724,0.112733830247374,0.00169608057220705,,
0.00350824437427956,0.0463505523058556,0.000707600855053947,,
0.00352390617952188,-0.0206833910986927,-0.000289355603132702,,
0.0035395679847642,-0.0887896164297377,-0.00130338352323855,,
0.00355522979000652,-0.153914427785649,-0.00228185276128778,,
0.00357089159524883,-0.212818288223104,-0.00313803699620197,,
0.00358655340049115,-0.263333854888514,-0.00388895426506153,,
0.00360221520573347,-0.30392240336375,-0.00447258500853431,,
0.00361787701097579,-0.332071275200075,-0.00487836223878269,,
0.00363353881621811,-0.347878086320349,-0.00511226285960786,,
0.00364920062146043,-0.349606421031353,-0.00514651708519187,,
0.00366486242670275,-0.338699671584198,-0.00501343136055121,,
0.00368052423194507,-0.314122535329703,-0.00462757046486884,,
0.00369618603718739,-0.277607738817033,-0.0040994481285419,,
0.00371184784242971,-0.23063820084075,-0.00340565314215668,,
0.00372750964767203,-0.174538441232404,-0.00259969048141739,,
0.00374317145291435,-0.112062669539592,-0.00169090949305239,,
0.00375883325815667,-0.0455122089587408,-0.000704377556467684,,
0.00377449506339899,0.0216026906625773,0.000290700128233734,,
0.00379015686864131,0.0890545028286951,0.00128613843059489,,
0.00380581867388363,0.153991841252969,0.00225455712091138,,
0.00382148047912595,0.212810353635493,0.00314771357006594,,
0.00383714228436827,0.263196653864361,0.00387431808536221,,
0.00385280408961058,0.303039029036023,0.00445308271646638,,
0.0038684658948529,0.331326858631766,0.00487278824730497,,
0.00388412770009522,0.346517787647247,0.00513822510505824,,
0.00389978950533754,0.349174966850406,0.00517418002133319,,
0.00391545131057986,0.337985617257043,0.00499046535812386,,
0.00393111311582218,0.31358081673199,0.00466867419994887,,
0.0039467749210645,0.277558433113944,0.00410185002023722,,
0.00396243672630682,0.23080992171285,0.00341631139742704,,
0.00397809853154914,0.175179093304426,0.00257956267353299,,
0.00399376033679146,0.112792622320891,0.00168565827664002,,
0.00400942214203378,0.046319487370596,0.000700789188151862,,
0.0040250839472761,-0.0206702155842093,-0.000301333897119616,,
0.00404074575251842,-0.0886506586703201,-0.00130517102929151,,
0.00405640755776074,-0.15394171574009,-0.00225065488166942,,
0.00407206936300306,-0.213001222921975,-0.00315344783605909,,
0.00408773116824538,-0.26327459435226,-0.00385593103679671,,
0.0041033929734877,-0.303661176829927,-0.00447068842676934,,
0.00411905477873002,-0.332082284074398,-0.00490426883335937,,
0.00413471658397234,-0.347730110653241,-0.00514204720704203,,
0.00415037838921465,-0.349703041470898,-0.00517411991838967,,
0.00416604019445697,-0.338436571199426,-0.00502596393723653,,
0.00418170199969929,-0.313963843577481,-0.00463473829736039,,
0.00419736380494161,-0.277594329071181,-0.00412426396600063,,
0.00421302561018393,-0.230577066453547,-0.0034027036458677,,
0.00422868741542625,-0.174684484490721,-0.00260498176645863,,
0.00424434922066857,-0.112082871995134,-0.00165540200979963,,
0.00426001102591089,-0.045489371400303,-0.000718984797712707,,
0.00427567283115321,0.021570952312133,0.000284925793611723,,
0.00429133463639553,0.0890472123773477,0.00130562514041843,,
0.00430699644163785,0.154045714467746,0.00225173450861327,,
0.00432265824688017,0.212649524522033,0.00313970429636878,,
0.00433832005212249,0.263205583935288,0.00387771501467338,,
0.00435398185736481,0.303253028670154,0.00447013859614076,,
0.00436964366260713,0.331571191228129,0.00488459068453162,,
0.00438530546784945,0.347000304266548,0.00512174354239736,,
0.00440096727309177,0.349172858768088,0.00513348810271586,,
0.00441662907833408,0.338002774704792,0.00499213043225533,,
0.0044322908835764,0.313860166917958,0.00462047609153027,,
0.00444795268881872,0.277597461915736,0.00411492129737745,,
0.00446361449406104,0.230635887805985,0.00341375590932147,,
0.00447927629930336,0.175188023375354,0.00261131483584975,,
0.00449493810454568,0.112788171924888,0.00170516279474331,,
0.004510599909788,0.0463463068622998,0.000703863342397693,,
0.00452626171503032,-0.0206614904657293,-0.000280380230273991,,
0.00454192352027264,-0.0887985757795864,-0.00127899731052228,,
0.00455758532551496,-0.153923094346287,-0.00227096522441927,,
0.00457324713075728,-0.212789126417715,-0.00312981179711613,,
0.0045889089359996,-0.263567442120843,-0.00388374979538275,,
0.00460457074124192,-0.303722076985761,-0.00446107195584888,,
0.00462023254648424,-0.332141778842021,-0.00489177187323309,,
0.00463589435172656,-0.347766357957531,-0.00512039679126142,,
0.00465155615696888,-0.350100707776926,-0.00515175494539477,,
0.0046672179622112,-0.338615055502294,-0.00498915422354695,,
0.00468287976745352,-0.314036221070376,-0.004622564112299,,
0.00469854157269583,-0.27763192320584,-0.00411888141352712,,
0.00471420337793815,-0.23066572302656,-0.00343459827442016,,
0.00472986518318047,-0.174745618877924,-0.00259109130846236,,
0.00474552698842279,-0.112051367876058,-0.00168835400494682,,
0.00476118879366511,-0.0454432863785324,-0.000696546365565265,,
0.00477685059890743,0.0215577767976496,0.00029597360499567,,
0.00479251240414975,0.0890220325052239,0.00129561243527965,,
0.00480817420939207,0.154075081225583,0.00223594746885247,,
0.00482383601463439,0.212751795793345,0.00313929025387072,,
0.00483949781987671,0.263135753708527,0.00388066228492789,,
0.00485515962511903,0.303174034141096,0.00447112250358206,,
0.00487082143036135,0.331436683864715,0.00490173560560336,,
0.00488648323560367,0.347068729105098,0.0051496491163463,,
0.00490214504084599,0.34928739790733,0.00516323683359099,,
0.00491780684608831,0.337995015790708,0.0050055534229152,,
0.00493346865133063,0.314019590643206,0.00465438750773428,,
0.00494913045657295,0.277593450703549,0.00407524445069107,,
0.00496479226181527,0.230871758794158,0.00342780664183318,,
0.00498045406705758,0.175203072740786,0.0025866948894655,,
0.0049961158722999,0.112807437454954,0.00167747092014814,,
0.00501177767754222,0.0464039277789737,0.00072249302877081,,
0.00502743948278454,-0.0206537608305657,-0.000298346558236684,,
0.00504310128802686,-0.0887494457500241,-0.00130962309916205,,
0.00505876309326918,-0.153983057576647,-0.00225433674345243,,
0.0050744248985115,-0.212845341946177,-0.0031260208596211,,
