Time domain (s),Current (AC) (A),Potential (AC) (V),Frequency (Hz),Column 5
0,0.0950097932983927,0.000553250131455574,251.19,0.5
0.000124407818782595,0.180998005680348,0.00219529662492102,,
0.00024881563756519,0.259798807858574,0.0036958023030822,,
0.000373223456347785,0.328022612416817,0.00505230075815577,,
0.000497631275130379,0.383940588202697,0.00623615066833194,,
0.000622039093912974,0.424971523728538,0.00713765176801395,,
0.000746446912695569,0.450155452520422,0.00781412221192612,,
0.000870854731478164,0.457608101603536,0.00814526973978502,,
0.000995262550260759,0.447783636394369,0.00818341512509724,,
0.00111967036904335,0.420557104347429,0.00791656207031544,,
0.00124407818782595,0.377724626984201,0.00733770520254495,,
0.00136848600660854,0.319957182357186,0.00648817622186604,,
0.00149289382539114,0.250066488019711,0.0053770014059813,,
0.00161730164417373,0.170494824204535,0.00405313765809545,,
0.00174170946295633,0.0843235335210522,0.00263327124700519,,
0.00186611728173892,-0.00474455941140504,0.00105492522264816,,
0.00199052510052152,-0.0947046865691633,-0.00056067518106806,,
0.00211493291930411,-0.180727096865253,-0.00214140852028955,,
0.00223934073808671,-0.259406690795155,-0.00364591888281796,,
0.0023637485568693,-0.327904363946255,-0.00498259729785033,,
0.0024881563756519,-0.384623405366241,-0.00613435646643046,,
0.00261256419443449,-0.425673525957572,-0.00707762185604022,,
0.00273697201321709,-0.450574100603773,-0.00772062953831965,,
0.00286137983199968,-0.458099496031865,-0.00806741325217697,,
0.00298578765078228,-0.44826504603025,-0.00814361363089322,,
0.00311019546956487,-0.42103452006633,-0.00788231645019088,,
0.00323460328834747,-0.377851148568505,-0.00729423799363049,,
0.00335901110713006,-0.320125069510202,-0.00645780292652853,,
0.00348341892591266,-0.249743123384291,-0.00536397205805361,,
0.00360782674469525,-0.170117256410112,-0.00404972536355652,,
0.00373223456347785,-0.083802719614975,-0.0025662892287972,,
0.00385664238226044,0.00533152256744959,-0.0010227457032852,,
0.00398105020104304,0.094953307901116,0.000595011193100792,,
0.00410545801982563,0.181000822818218,0.00215899781716455,,
0.00422986583860822,0.259611379040337,0.00365751487334265,,
0.00435427365739082,0.328097641000068,0.00503984281621905,,
0.00447868147617341,0.383890949520241,0.00619849598195055,,
0.00460308929495601,0.425276487817876,0.00713715138423554,,
0.0047274971137386,0.449764619216033,0.00780702967540492,,
0.0048519049325212,0.457317972062979,0.00813760902555449,,
0.00497631275130379,0.447684929589027,0.00817676486327068,,
0.00510072057008639,0.420851227804965,0.00790225432254088,,
0.00522512838886898,0.377480998048472,0.00733598775628685,,
0.00534953620765158,0.320191111780251,0.00647222850661189,,
0.00547394402643417,0.250170900420738,0.00538210209223688,,
0.00559835184521677,0.170632329060532,0.0040781729884185,,
0.00572275966399936,0.0843218218423468,0.00260995013465815,,
0.00584716748278196,-0.00481077998131845,0.00105872168279753,,
0.00597157530156455,-0.0946427808559863,-0.000575927201456494,,
0.00609598312034715,-0.18059494100521,-0.00215279951487979,,
0.00622039093912974,-0.259410114152566,-0.00365307275670546,,
0.00634479875791234,-0.327930039126836,-0.00501123700551753,,
0.00646920657669493,-0.384204828602836,-0.00616677003627064,,
0.00659361439547753,-0.425628950991287,-0.00708360063511959,,
0.00671802221426012,-0.450336747823297,-0.00775535455838661,,
0.00684243003304272,-0.45813287376662,-0.00808795804162576,,
0.00696683785182531,-0.44827046634615,-0.0081363806640864,,
0.00709124567060791,-0.421303182303125,-0.00789494710523808,,
0.0072156534893905,-0.377719634587977,-0.00730654582043311,,
0.0073400613081731,-0.319962460033194,-0.00645881015064997,,
0.00746446912695569,-0.24977478944034,-0.0053586018102143,,
0.00758887694573829,-0.170228800805744,-0.00401424008297457,,
0.00771328476452088,-0.0837091478457489,-0.00257331558552787,,
0.00783769258330348,0.00543907304610271,-0.00102521211106943,,
0.00796210040208607,0.0949801242008333,0.00057892143341931,,
0.00808650822086867,0.181070431085569,0.00214134234049945,,
0.00821091603965126,0.259638444959866,0.00369442059819791,,
0.00833532385843386,0.328184651334257,0.00503368002504123,,
0.00845973167721645,0.383927180052838,0.00618439484425215,,
0.00858413949599905,0.424707925207914,0.00711178999738626,,
0.00870854731478164,0.449797711671003,0.00780715880670257,,
0.00883295513356423,0.45736532850716,0.00811747745625802,,
0.00895736295234683,0.44764128178204,0.00818423833711934,,
0.00908177077112942,0.420485784401372,0.00790679974421682,,
0.00920617858991202,0.377689252290957,0.00736842876652721,,
0.00933058640869461,0.32013434110319,0.00649677636628665,,
0.00945499422747721,0.250260763552769,0.00537171993590935,,
0.0095794020462598,0.170481451714649,0.00404066034646444,,
0.0097038098650424,0.0843520258395017,0.00259998119848293,,
0.00982821768382499,-0.00476481427608507,0.00103336029594825,,
0.00995262550260759,-0.0947129596829058,-0.000578843954640806,,
0.0100770333213902,-0.180717112072805,-0.00216506698815211,,
0.0102014411401728,-0.259491775490801,-0.00365853662473548,,
0.0103258489589554,-0.328219312828041,-0.00504622997302695,,
0.010450256777738,-0.384158684597737,-0.00618230291723121,,
0.0105746645965206,-0.425425831784918,-0.00711370114059084,,
0.0106990724153032,-0.45054414622643,-0.00776400635532593,,
0.0108234802340858,-0.458218742981672,-0.00812468298266467,,
0.0109478880528683,-0.448273033864208,-0.00817154634470629,,
0.0110722958716509,-0.421075315075475,-0.00790131166406871,,
0.0111967036904335,-0.377671707584227,-0.00731782059685537,,
0.0113211115092161,-0.319808123669928,-0.00647584579708615,,
0.0114455193279987,-0.249802746859194,-0.00536358466416065,,
0.0115699271467813,-0.169997795500467,-0.00405709876064941,,
0.0116943349655639,-0.0837667743621625,-0.00258452256801878,,
0.0118187427843465,0.00538943436364742,-0.0010536742632028,,
0.0119431506031291,0.0949290947794299,0.000607110795686427,,
0.0120675584219117,0.18099625834167,0.00215512387823624,,
0.0121919662406943,0.259675816611599,0.00367126735653756,,
0.0123163740594769,0.328139006568781,0.00503597856213833,,
0.0124407818782595,0.383855289547213,0.00620700250618,,
0.0125651896970421,0.424752428854253,0.00712527130485618,,
0.0126895975158247,0.449776886246754,0.00778190395317369,,
0.0128140053346073,0.45772848967248,0.00813990756265204,,
0.0129384131533899,0.447705184453707,0.00819109520902206,,
0.0130628209721725,0.4207185727053,0.00791635223195675,,
0.0131872287909551,0.377772553987951,0.00733620727949269,,
0.0133116366097376,0.320009103277915,0.0064895095025137,,
0.0134360444285202,0.25009155698075,0.00537191363285583,,
0.0135604522473028,0.170592140270929,0.0040768041966639,,
0.0136848600660854,0.0842750002977608,0.00261423729373833,,
0.013809267884868,-0.00469948520549737,0.00104622177318969,,
0.0139336757036506,-0.0947103921648478,-0.000596199201039038,,
0.0140580835224332,-0.180594655725426,-0.00218770209048103,,
0.0141824913412158,-0.259287443845349,-0.0036689429931811,,
0.0143068991599984,-0.328305110723146,-0.00502231485671079,,
0.014431306978781,-0.384300753930282,-0.00617447756059608,,
0.0145557147975636,-0.425518191115061,-0.00711823364913711,,
0.0146801226163462,-0.450375260594168,-0.0077488334278577,,
0.0148045304351288,-0.4579614206163,-0.00810821712807863,,
0.0149289382539114,-0.448066847900159,-0.00817713611575144,,
0.015053346072694,-0.421002568730497,-0.00789534579811946,,
0.0151777538914766,-0.377643750165373,-0.00732241605690875,,
0.0153021617102592,-0.319907115755054,-0.00647362312462629,,
0.0154265695290418,-0.249894036390147,-0.00533267063151399,,
0.0155509773478244,-0.169913566644175,-0.00405888077255634,,
0.015675385166607,-0.0838118485680702,-0.00258693732328386,,
0.0157997929853895,0.00537089117767275,-0.00102534285650835,,
0.0159242008041721,0.0949995588861336,0.000591045248123034,,
0.0160486086229547,0.180882716987548,0.00216431479834345,,
0.0161730164417373,0.259740610782592,0.00367512515405366,,
0.0162974242605199,0.328220311307285,0.00503838363255626,,
0.0164218320793025,0.384080660576752,0.00618780391050899,,
0.0165462398980851,0.425048263990495,0.00712673048851897,,
0.0166706477168677,0.449863896580943,0.00778465444981258,,
0.0167950555356503,0.457458614996602,0.00813371248864936,,
0.0169194633544329,0.447779357197605,0.00817708769151437,,
0.0170438711732155,0.420669219302629,0.00789388661445622,,
0.0171682789919981,0.377563443906114,0.00733373118686131,,
0.0172926868107807,0.320389666510072,0.00645214858983456,,
0.0174170946295633,0.250243646765715,0.0053699766633919,,
0.0175415024483459,0.17061464171391,0.00404133505749416,,
0.0176659102671285,0.0842510724558588,0.00257220828465066,,
0.0177903180859111,-0.00473143654133066,0.00100762442833569,,
0.0179147259046937,-0.0947240855944906,-0.000585597521505665,,
0.0180391337234763,-0.180681166819993,-0.00217259534280245,,
0.0181635415422588,-0.259469167067901,-0.00367647134783144,,
0.0182879493610414,-0.328143428405436,-0.00500935168857275,,
0.018412357179824,-0.384345257576621,-0.00618600898547239,,
0.0185367649986066,-0.425779650037304,-0.00709723690014652,,
0.0186611728173892,-0.450492795865269,-0.00775890566907078,,
0.0187855806361718,-0.457909784975355,-0.00811359060420047,,
0.0189099884549544,-0.448076476092877,-0.00815019932707095,,
0.019034396273737,-0.420910708639976,-0.00789701159185841,,
0.0191588040925196,-0.377714499551861,-0.0073105101512696,,
0.0192832119113022,-0.319807267830575,-0.0064461052451068,,
0.0194076197300848,-0.249593636777357,-0.00537347773569818,,
0.0195320275488674,-0.170017408485633,-0.00403942068600749,,
0.01965643536765,-0.08373824638374,-0.0025851940507664,,
0.0197808431864326,0.00537827279208959,-0.0010322239405296,,
0.0199052510052152,0.0949114074328079,0.000579308827312275,,
0.0200296588239978,0.181014801527645,0.00218306789103773,,
0.0201540666427804,0.259601929147485,0.0036580701379223,,
0.020278474461563,0.328169246225909,0.00501074630658671,,
0.0204028822803456,0.384027598536886,0.00619980020805633,,
0.0205272900991282,0.424891074829387,0.00712184932546966,,
0.0206516979179107,0.449904406310303,0.00778755990400892,,
0.0207761057366933,0.45761038384181,0.00810015772096673,,
0.0209005135554759,0.447774507441274,0.00816095596416133,,
0.0210249213742585,0.420302064220331,0.00790155378525137,,
0.0211493291930411,0.377497544275957,0.00734288336757905,,
0.0212737370118237,0.320003682962014,0.00648645877560794,,
0.0213981448306063,0.250096727676839,0.00538636342505772,,
0.0215225526493889,0.170494824204535,0.00404996102817412,,
0.0216469604681715,0.0842835943512606,0.00257092665652214,,
0.0217713682869541,-0.00479334225450765,0.00100775355963334,,
0.0218957761057367,-0.0946738763524669,-0.000593539096308326,,
0.0220201839245193,-0.180717967912158,-0.0021731506073821,,
0.0221445917433019,-0.259457256636909,-0.00368850638476781,,
0.0222689995620845,-0.327984527565623,-0.00502944451847975,,
0.0223934073808671,-0.38424762057047,-0.00617461960502341,,
0.0225178151996497,-0.425482887741763,-0.0071126422639507,,
0.0226422230184323,-0.450485949150447,-0.00776784155486476,,
0.0227666308372149,-0.458128024010288,-0.00812953831945462,,
0.0228910386559975,-0.448291291770399,-0.00815456235078882,,
0.02301544647478,-0.421023394154746,-0.00790521142925638,,
0.0231398542935626,-0.377812921077419,-0.00733021720142535,,
0.0232642621123452,-0.319763620023588,-0.00647375225592395,,
0.0233886699311278,-0.249702328375147,-0.00536824630400412,,
0.0235130777499104,-0.170075605561615,-0.00404926049088505,,
0.023637485568693,-0.0838358120699452,-0.00259564238688359,,
0.0237618933874756,0.00539970443587955,-0.00103792024489513,,
0.0238863012062582,0.0950648522967483,0.00057506040762112,,
0.0240107090250408,0.181021362962682,0.00215079797976658,,
0.0241351168438234,0.259558602280256,0.00365760526525127,,
0.024259524662606,0.328050855115455,0.00502793368229781,,
0.0243839324813886,0.383810785900874,0.00621061818251301,,
0.0245083403001712,0.424818613764193,0.00712873202363218,,
0.0246327481189538,0.449949765795995,0.00776001619823008,,
0.0247571559377364,0.457738474464927,0.00814667404264613,,
0.024881563756519,0.447568535437063,0.00819437514398125,,
0.0250059715753016,0.420799592164021,0.00787893321019384,,
0.0251303793940842,0.377600530278063,0.00733858652365127,,
0.0252547872128668,0.319897558882282,0.00646940375947702,,
0.0253791950316494,0.250056788507047,0.00538508502521129,,
0.0255036028504319,0.170561864953828,0.00405516179118548,,
0.0256280106692145,0.0842381992055957,0.00257744778705105,,
0.0257524184879971,-0.00474284773269969,0.00101945285519633,,
0.0258768263067797,-0.0947879882661572,-0.000582214281508175,,
0.0260012341255623,-0.180846557774898,-0.00216355615197017,,
0.0261256419443449,-0.259467455389195,-0.00368465827209929,,
0.0262500497631275,-0.328049214756696,-0.00502320747680551,,
0.0263744575819101,-0.383939875003236,-0.00618203174150622,,
0.0264988654006927,-0.425527961947671,-0.00709839908182497,,
0.0266232732194753,-0.450373263635678,-0.0077625229595446,,
0.0267476810382579,-0.458295697203466,-0.00811479152526795,,
0.0268720888570405,-0.448288153692772,-0.00816252006700369,,
0.0269964966758231,-0.421334634399336,-0.00788650030423366,,
0.0271209044946057,-0.377778402223528,-0.00733142942148168,,
0.0272453123133883,-0.320088268418037,-0.00649830011559827,,
0.0273697201321709,-0.249717448203711,-0.0053848655020059,,
0.0274941279509535,-0.170107913497179,-0.00406062404507423,,
0.0276185357697361,-0.0838392354273559,-0.00261410654829985,,
0.0277429435885187,0.00533351952593917,-0.00104919179303486,,
0.0278673514073012,0.0948834143539807,0.000572167866554452,,
0.0279917592260838,0.180932070390219,0.00216510572754114,,
0.0281161670448664,0.259493808109263,0.00367073791821726,,
0.028240574863649,0.328164681749361,0.0050457925407561,,
0.0283649826824316,0.383942585161186,0.0062043843691213,,
0.0284893905012142,0.425159237826559,0.00713806498816627,,
0.0286137983199968,0.450317776717646,0.00778515806187352,,
0.0287382061387794,0.457523373507621,0.00813553323994531,,
0.028862613957562,0.447737706349108,0.00816163067519149,,
0.0289870217763446,0.420256419454855,0.00789715363628574,,
0.0291114295951272,0.377361751098666,0.0073447815976535,,
0.0292358374139098,0.320143755336069,0.00647127616329213,,
0.0293602452326924,0.250141801882747,0.00537533561224235,,
0.029484653051475,0.170453458635822,0.00403499471078206,,
0.0296090608702576,0.0842479343782324,0.0025562702542441,,
0.0297334686890402,-0.00482301135206713,0.00102612894328225,,
0.0298578765078228,-0.0947240855944906,-0.000580522661509875,,
0.0299822843266054,-0.18079641985282,-0.00216899257959913,,
0.030106692145388,-0.25920785078555,-0.00367550286309903,,
0.0302310999641706,-0.328262033475728,-0.0050064720606362,,
0.0303555077829531,-0.384357453287397,-0.00621382386697622,,
0.0304799156017357,-0.425793557426785,-0.00708560217023235,,
0.0306043234205183,-0.450657758900497,-0.00777409312380994,,
0.0307287312393009,-0.457912067213629,-0.00809969607657823,,
0.0308531390580835,-0.448109283268062,-0.00816587748074138,,
0.0309775468768661,-0.421208540734708,-0.00789412066493345,,
0.0311019546956487,-0.377760144317337,-0.00731275703584799,,
0.0312263625144313,-0.319855266154271,-0.00647221559348221,,
0.0313507703332139,-0.249780780315809,-0.00535410642691625,,
0.0314751781519965,-0.170214893416263,-0.00407813424902947,,
0.0315995859707791,-0.0837515832136525,-0.00259357467198074,,
0.0317239937895617,0.00534118642014024,-0.0010205908247567,,
0.0318484016083443,0.095012646096235,0.000572232432203279,,
0.0319728094271269,0.180961204588183,0.00215524009640422,,
0.0320972172459095,0.259806474752775,0.00366985659711139,,
0.0322216250646921,0.328283928699168,0.00501592447162036,,
0.0323460328834747,0.384095780405316,0.00621544769304361,,
0.0324704407022573,0.424997769468687,0.00714084453934705,,
0.0325948485210399,0.449869316896844,0.00777722617191801,,
0.0327192563398225,0.457385298092056,0.0081387615223858,,
0.032843664158605,0.447555412566988,0.00817297808796846,,
0.0329680719773876,0.4205106037426,0.00789984925212295,,
0.0330924797961702,0.377464451820987,0.00732481789904416,,
0.0332168876149528,0.320061309478428,0.0064659559538307,,
0.0333412954337354,0.250148363317784,0.00534764663375364,,
0.033465703252518,0.170415231144736,0.00403903329211452,,
0.0335901110713006,0.0842518926352385,0.00256607131973219,,
0.0337145188900832,-0.00482786110839897,0.00103568465930515,,
0.0338389267088658,-0.0947209475168641,-0.000589899207857236,,
0.0339633345276484,-0.180844846096192,-0.00219614727734418,,
0.034087742346431,-0.259468311228548,-0.00368829977469165,,
0.0342121501652136,-0.328303684324225,-0.00502362069695783,,
0.0343365579839962,-0.384163819633853,-0.00619898668088137,,
0.0344609658027788,-0.425708330091247,-0.00712941641950948,,
0.0345853736215614,-0.450496789782248,-0.00778017359378591,,
0.034709781440344,-0.458029031925161,-0.00812596138251065,,
0.0348341892591266,-0.44838693181806,-0.00814910171104133,,
0.0349585970779092,-0.421312097296382,-0.00788460207415875,,
0.0350830048966918,-0.378055979453579,-0.00734073978803895,,
0.0352074127154743,-0.319800135835969,-0.00648297223057259,,
0.0353318205342569,-0.249715950484844,-0.00534338852921534,,
0.0354562283530395,-0.170210542899554,-0.00403759993471153,,
0.0355806361718221,-0.0838475085410984,-0.00258439343672112,,
0.0357050439906047,0.00535177743212962,-0.00102278444267467,,
0.0358294518093873,0.094974703884933,0.000577927122427546,,
0.0359538596281699,0.181061016852689,0.00217468404154086,,
0.0360782674469525,0.25974118134216,0.00370170360338307,,
0.0362026752657351,0.327945586875076,0.0050452889286956,,
0.0363270830845177,0.384039295008039,0.00622214960738932,,
0.0364514909033003,0.42487709611996,0.00712184932546966,,
0.0365758987220829,0.450148891085385,0.00778360848630211,,
0.0367003065408655,0.457400132640836,0.00812736891365429,,
0.0368247143596481,0.447568535437063,0.00818073887895432,,
0.0369491221784307,0.420629280132838,0.00791496084222532,,
0.0370735299972133,0.377702089881247,0.00733883187311646,,
0.0371979378159959,0.320072150110229,0.00647309691458853,,
0.0373223456347785,0.250147471818458,0.00537413146289234,,
0.037446753453561,0.170533622255189,0.0040660507878556,,
0.0375711612723436,0.0842248267157101,0.00256138385362892,,
0.0376955690911262,-0.00480104480868175,0.00103117797701868,,
0.0378199769099088,-0.0946852875438359,-0.000582409592595923,,
0.0379443847286914,-0.180810897801869,-0.0021518955957962,,
0.038068792547474,-0.259436930452283,-0.0036540799808269,,
0.0381932003662566,-0.328017334740809,-0.00504495318732223,,
0.0383176081850392,-0.3843438311777,-0.00616807264823516,,
0.0384420160038218,-0.425471690510232,-0.00711366240120181,,
0.0385664238226044,-0.450466264845336,-0.00777995568472134,,
0.038690831641387,-0.458631542829446,-0.00810513089006593,,
0.0388152394601696,-0.448242294967458,-0.00816631491301223,,
0.0389396472789522,-0.421372291330854,-0.00790867214803193,,
0.0390640550977348,-0.377847225971472,-0.00733277400111776,,
0.0391884629165174,-0.319928583058817,-0.00646507463272483,,
0.0393128707353,-0.249787555710684,-0.00536417866812977,,
0.0394372785540826,-0.17001854960477,-0.00403202307679607,,
0.0395616863728652,-0.0837644921238887,-0.00261617426320271,,
0.0396860941916478,0.00536318862349865,-0.00104764221746345,,
0.0398105020104304,0.0949815862597274,0.0005692107598394,,
0.0399349098292129,0.181008240092608,0.00216054739273552,,
0.0400593176479955,0.259539203254928,0.00366417804829933,,
0.0401837254667781,0.328090794285247,0.00500157798445677,,
0.0403081332855607,0.384012478708322,0.00619707230939426,,
0.0404325411043433,0.425052257907474,0.00711798507138894,,
0.0405569489231259,0.450050469559827,0.00777344585318085,,
0.0406813567419085,0.457346785321186,0.00814037566360559,,
0.0408057645606911,0.447671521439168,0.00815761146355332,,
0.0409301723794737,0.420573365295129,0.00791121280631213,,
0.0410545801982563,0.377462740142282,0.00731579484962408,,
