Time domain (s),Current (AC) (A),Potential (AC) (V),Frequency (Hz),Column 5
0,0.195384619522124,0.00297177797360515,5011.9,0.3
6.23516031844211E-06,0.204072416950807,0.00298018272426948,,
1.24703206368842E-05,0.205243238785171,0.00289146234734439,,
1.87054809553263E-05,0.198219159416171,0.00268337169910726,,
2.49406412737684E-05,0.183755962020567,0.0023919713658489,,
3.11758015922105E-05,0.161732400357329,0.0020038843207475,,
3.74109619106526E-05,0.133909503240031,0.00152543373075797,,
4.36461222290948E-05,0.100730211649769,0.00100812809963502,,
4.98812825475369E-05,0.0639388130060238,0.000405892783839512,,
5.6116442865979E-05,0.0250372591267492,-0.000149920363739842,,
6.23516031844211E-05,-0.0139292657049741,-0.000709850342115459,,
6.85867635028632E-05,-0.0534094622269774,-0.00126094071843497,,
7.48219238213053E-05,-0.0915118890791875,-0.00176830714377862,,
8.10570841397474E-05,-0.126037753524545,-0.00222112823433918,,
8.72922444581895E-05,-0.155832325189142,-0.0025356451962808,,
9.35274047766316E-05,-0.179355619931358,-0.00283733938870778,,
9.97625650950737E-05,-0.19586133464097,-0.00296403975745019,,
0.000105997725413516,-0.204800790857182,-0.00298061935783878,,
0.000112232885731958,-0.205592858260231,-0.00291857283655306,,
0.0001184680460504,-0.198492086721766,-0.00272068159205885,,
0.000124703206368842,-0.183706410183429,-0.00237748226005907,,
0.000130938366687284,-0.161842911487555,-0.00198031323671666,,
0.000137173527005726,-0.133901367863785,-0.00149372344055987,,
0.000143408687324168,-0.10055237635909,-0.00101244988088212,,
0.000149643847642611,-0.0635385659415947,-0.000433365055148016,,
0.000155879007961053,-0.0243498086281604,0.000153443729317804,,
0.000162114168279495,0.0146162903849714,0.00070027291843644,,
0.000168349328597937,0.0538502965266202,0.00128455457473375,,
0.000174584488916379,0.091613973483604,0.00177077189572294,,
0.000180819649234821,0.125978833678396,0.0022125809094482,,
0.000187054809553263,0.155507604895928,0.00255517251880644,,
0.000193289969871705,0.178853400520037,0.00279823306049964,,
0.000199525130190147,0.19564963556652,0.00296573639074849,,
0.00020576029050859,0.204161681974471,0.00298837004923858,,
0.000211995450827032,0.205159509403195,0.00289102393159757,,
0.000218230611145474,0.198217792314378,0.00271232139584043,,
0.000224465771463916,0.183470170511211,0.00240219037354805,,
0.000230700931782358,0.161757501242718,0.00200991877489276,,
0.0002369360921008,0.133706701532992,0.00153241986786679,,
0.000243171252419242,0.100887876586118,0.000997884141446193,,
0.000249406412737684,0.0639784141350257,0.000421709612115073,,
0.000255641573056126,0.0250670888396533,-0.000144741354954459,,
0.000261876733374569,-0.0138913902618426,-0.000678890348785544,,
0.000268111893693011,-0.0534343389973182,-0.00126285834178397,,
0.000274347054011453,-0.0915924808504897,-0.00177186437073473,,
0.000280582214329895,-0.126129775163301,-0.00221044407822513,,
0.000286817374648337,-0.155669303903143,-0.00257576201932075,,
0.000293052534966779,-0.179435494534506,-0.00283022671697264,,
0.000299287695285221,-0.1958232799058,-0.00298344410970541,,
0.000305522855603663,-0.204662915279581,-0.00296988886510086,,
0.000311758015922105,-0.205562826843783,-0.00289768571234017,,
0.000317993176240548,-0.198676264468307,-0.00270045209146685,,
0.00032422833655899,-0.183851547088589,-0.00241040799553982,,
0.000330463496877432,-0.162016690295863,-0.00200282214275838,,
0.000336698657195874,-0.133735208967112,-0.00151562284178253,,
0.000342933817514316,-0.100482542110097,-0.000967186128257413,,
0.000349168977832758,-0.0635150338615426,-0.000429324857998736,,
0.0003554041381512,-0.0243294141587819,0.000157965114482295,,
0.000361639298469642,0.0146462769784092,0.000699353314673967,,
0.000367874458788084,0.0538297003536984,0.00126209556967138,,
0.000374109619106526,0.091567716137673,0.00177635724105407,,
0.000380344779424969,0.126085153857222,0.00222518447108921,,
0.000386579939743411,0.155592163503582,0.00255376816267328,,
0.000392815100061853,0.178998358133158,0.00281138196855801,,
0.000399050260380295,0.195418572951913,0.00296322708435826,,
0.000405285420698737,0.204356056955702,0.00298157282298028,,
0.000411520581017179,0.205028671038105,0.00290464333460383,,
0.000417755741335621,0.198245649814859,0.00270803347597237,,
0.000423990901654063,0.183565284937631,0.00238899156451033,,
0.000430226061972505,0.161892844320275,0.00200368115247418,,
0.000436461222290948,0.133700426311645,0.00154453867713711,,
0.00044269638260939,0.100874362448717,0.000984638995785048,,
0.000448931542927832,0.0639868408608349,0.000433534362042742,,
0.000455166703246274,0.0250476356534769,-0.000116103539342216,,
0.000461401863564716,-0.0138668720755788,-0.00070013390856527,,
0.000467637023883158,-0.0533897849257529,-0.00127074982523245,,
0.0004738721842016,-0.0915544261153197,-0.00176116239284241,,
0.000480107344520042,-0.12612762365884,-0.00222626090650069,,
0.000486342504838484,-0.155721522709354,-0.00257303350505733,,
0.000492577665156927,-0.179254230283591,-0.00281481444306575,,
0.000498812825475369,-0.195931572297049,-0.00298715460395549,,
0.000505047985793811,-0.204767263245984,-0.00298517460438186,,
0.000511283146112253,-0.205546959498377,-0.00289461501993227,,
0.000517518306430695,-0.198542288492544,-0.00269393110277294,,
0.000523753466749137,-0.183784491866193,-0.00240806977822183,,
0.000529988627067579,-0.16178759989368,-0.00200759303281961,,
0.000536223787386021,-0.133645338832818,-0.00152490264176341,,
0.000542458947704463,-0.100430950826021,-0.000978697214886637,,
0.000548694108022906,-0.0635291531095739,-0.000411340901477431,,
0.000554929268341348,-0.0243563079645558,0.000158293035203538,,
0.00056116442865979,0.0146100151636242,0.000702924799053317,,
0.000567399588978232,0.0538398975883876,0.001262391411192,,
0.000573634749296674,0.0915896794123883,0.0017883833770771,,
0.000579869909615116,0.126011778590469,0.00221321892911241,,
0.000586105069933558,0.155555094874623,0.00256928736725071,,
0.000592340230252,0.178986995500218,0.00281559503695705,,
0.000598575390570442,0.195565480365953,0.00294841005784763,,
0.000604810550888885,0.204392744589078,0.00299099341500986,,
0.000611045711207327,0.205211459271348,0.00288316452735016,,
0.000617280871525769,0.198213691008997,0.00271459545475672,,
0.000623516031844211,0.18342386834227,0.00237205374637739,,
0.000629751192162653,0.161663731506587,0.00202206966336416,,
0.000635986352481095,0.133785343503375,0.00154408600396749,,
0.000642221512799537,0.100775101893907,0.000994776023303778,,
0.000648456673117979,0.0640307898217703,0.000438478123353736,,
0.000654691833436421,0.0250470529543518,-0.000170759369150897,,
0.000660926993754863,-0.0139035372974504,-0.000698481829712883,,
0.000667162154073306,-0.0533731555891828,-0.00127000131054222,,
0.000673397314391748,-0.0916005489922219,-0.00177540377591301,,
0.00067963247471019,-0.126141742906871,-0.00223369971677911,,
0.000685867635028632,-0.155964911651607,-0.00256247231921369,,
0.000692102795347074,-0.179338183780615,-0.00284498136725952,,
0.000698337955665516,-0.195740536630036,-0.00296474193551699,,
0.000704573115983958,-0.204826474441696,-0.00299528311705588,,
0.0007108082763024,-0.205378828389281,-0.00290949442266708,,
0.000717043436620842,-0.198567210085894,-0.00271386476184432,,
0.000723278596939285,-0.183748543812475,-0.0023746592903704,,
0.000729513757257727,-0.16190763591345,-0.00199452254058574,,
0.000735748917576169,-0.133849373172622,-0.00153271749156492,,
0.000741984077894611,-0.100467436755854,-0.000990129885690472,,
0.000748219238213053,-0.0634987182860398,-0.000408423476363495,,
0.000754454398531495,-0.0243710099117121,0.000167528280738516,,
0.000760689558849937,0.014647845783746,0.000691381633223465,,
0.000766924719168379,0.0537424299539623,0.00124549992968248,,
0.000773159879486821,0.0915512212701317,0.0017771200131671,,
0.000779395039805264,0.126078071821701,0.00223727476551394,,
0.000785630200123706,0.155546264741728,0.00259215627321474,,
0.000791865360442148,0.178871464192915,0.00283003780612257,,
0.00079810052076059,0.195411715031441,0.00296276015376584,,
0.000804335681079032,0.204150319341532,0.00298182232787703,,
0.000810570841397474,0.205134767101883,0.00288896729837695,,
0.000816806001715916,0.19813130631731,0.00269917248778251,,
0.000823041162034358,0.183487427369916,0.00239702918654139,,
0.0008292763223528,0.162019155561393,0.00198447640413679,,
0.000835511482671243,0.133868333305692,0.00153383848142274,,
0.000841746642989685,0.100787271341019,0.000980942758957326,,
0.000847981803308127,0.0640390372555409,0.00043423475793114,,
0.000854216963626569,0.025045484149015,-0.000142574226708714,,
0.000860452123945011,-0.0139092298196726,-0.00068500500093327,,
0.000866687284263453,-0.0533974496603985,-0.00125966111475018,,
0.000872922444581895,-0.0914953942116462,-0.00176752654988732,,
0.000879157604900337,-0.126186431447465,-0.00221938170006197,,
0.000885392765218779,-0.155914306473742,-0.00257176815879534,,
0.000891627925537222,-0.17941958236609,-0.00281008810744998,,
0.000897863085855664,-0.195986077076751,-0.0029544159971473,,
0.000904098246174106,-0.204762556829973,-0.00300117856132998,,
0.000910333406492548,-0.205710742775539,-0.00291198947163451,,
0.00091656856681099,-0.198573888714328,-0.00270101169530657,,
0.000922803727129432,-0.183849574876165,-0.00238337948651157,,
0.000929038887447874,-0.161894099364544,-0.00199862511395965,,
0.000935274047766316,-0.133820686446463,-0.00150712185351498,,
0.000941509208084758,-0.100507822287524,-0.000983673055398704,,
0.0009477443684032,-0.0634500853205988,-0.000442739310554163,,
0.000953979528721643,-0.0243678723010385,0.000143848483860065,,
0.000960214689040085,0.0146298045223727,0.000717305191994644,,
0.000966449849358527,0.0538522687390436,0.00126713200423012,,
0.000972685009676969,0.0916295046564383,0.00177883446824323,,
0.000978920169995411,0.126022379232245,0.00222233298655494,,
0.000985155330313853,0.155520155338622,0.00254698519383778,,
0.000991390490632295,0.178941074326859,0.00283785443810203,,
0.000997625650950737,0.195326551313157,0.00295154312647972,,
0.00100386081126918,0.204137768898838,0.00297536371540685,,
0.00101009597158762,0.205100074092435,0.00290451501779954,,
0.00101633113190606,0.198062054767443,0.00268712852998121,,
0.00102256629222451,0.183438368585883,0.00238539156528628,,
0.00102880145254295,0.161832019496216,0.00196752432858105,,
0.00103503661286139,0.13379966445495,0.00152688442351501,,
0.00104127177317983,0.100756679636952,0.000988552658307995,,
0.00104750693349827,0.063970771811885,0.000413598920792957,,
0.00105374209381672,0.0250725572468273,-0.000139157791801292,,
0.00105997725413516,-0.0138921522530062,-0.000702333116012088,,
0.0010662124144536,-0.0534337562981931,-0.00125853834271483,,
0.00107244757477204,-0.091512068371226,-0.00177395308315598,,
0.00107868273509048,-0.126196426978611,-0.00222216011530474,,
0.00108491789540893,-0.155800366383281,-0.00258622696756117,,
0.00109115305572737,-0.179353468426896,-0.00283022671697264,,
0.00109738821604581,-0.195758779594952,-0.00296079619379253,,
0.00110362337636425,-0.204667621695592,-0.00302572984316951,,
0.0011098585366827,-0.205656417287876,-0.00290043204838186,,
0.00111609369700114,-0.19843695441993,-0.0026888946682142,,
0.00112232885731958,-0.18368130929804,-0.00238550027813345,,
0.00112856401763802,-0.161859182240048,-0.0020137237245681,,
0.00113479917795646,-0.13360827020386,-0.00151434323809774,,
0.00114103433827491,-0.100563537288486,-0.000998677210581889,,
0.00114726949859335,-0.063448516515262,-0.000409327040525209,,
0.00115350465891179,-0.0243519601326223,0.000169212438791533,,
0.00115973981923023,0.0146813733949441,0.000707775887117013,,
0.00116597497954867,0.0538467555088599,0.00124526468220854,,
0.00117221013986712,0.0916343903644873,0.00176166140263634,,
0.00117844530018556,0.1260109941878,0.00222359476846146,,
0.001184680460504,0.155493889054983,0.00258190518631451,,
0.00119091562082244,0.178959137999737,0.00281442236394236,,
0.00119715078114088,0.195274780737043,0.00294747263230688,,
0.00120338594145933,0.204326070362264,0.00298270985243798,,
0.00120962110177777,0.205099872388892,0.00287959304297081,,
0.00121585626209621,0.198195627336119,0.00269435347891944,,
0.00122209142241465,0.183587651619433,0.00238629691162551,,
0.0012283265827331,0.161715726197749,0.00198436590911122,,
0.00123456174305154,0.133894801292875,0.00153218462039284,,
0.00124079690336998,0.100899844329688,0.000995481765726058,,
0.00124703206368842,0.0640143397772386,0.000441051588145669,,
0.00125326722400686,0.0250133236396105,-0.000126976606306783,,
0.00125950238432531,-0.0139221836694536,-0.000692663019085327,,
0.00126573754464375,-0.0534177096607481,-0.00126119022333171,,
0.00127197270496219,-0.09150207284008,-0.00176839981702592,,
0.00127820786528063,-0.126091675605122,-0.00221910011596416,,
0.00128444302559907,-0.155716412886257,-0.00256723073403009,,
0.00129067818591752,-0.179396050286038,-0.00280983860255324,,
0.00129691334623596,-0.195772495435897,-0.00298090094193659,,
0.0013031485065544,-0.204921857806174,-0.00299968153194952,,
0.00130938366687284,-0.205664082022522,-0.00289336749544855,,
0.00131561882719128,-0.198446143136902,-0.00269717644860812,,
0.00132185398750973,-0.183720888015537,-0.00239056879189326,,
0.00132808914782817,-0.162008084278016,-0.00200913818100146,,
0.00133432430814661,-0.133829157995282,-0.0015179450195002,,
0.00134055946846505,-0.100488996623483,-0.00100148414067025,,
0.0013467946287835,-0.0635450204549804,-0.000417484068470753,,
0.00135302978910194,-0.024350212035247,0.000145411453820188,,
0.00135926494942038,0.0146558915139733,0.000683862624942133,,
0.00136550010973882,0.0537994896452124,0.00125850982786968,,
0.00137173527005726,0.0916402845902527,0.00176762100531258,,
0.00137797043037571,0.125962742217941,0.00220647873254487,,
0.00138420559069415,0.155457806532236,0.00256875627825615,,
0.00139044075101259,0.178965413221085,0.00283390513202209,,
0.00139667591133103,0.195340670561189,0.00297236965664593,,
0.00140291107164947,0.204084384694377,0.00298607816854402,,
0.00140914623196792,0.205133982699215,0.0028928168024982,,
0.00141538139228636,0.198111673839095,0.00269709803278362,,
0.0014216165526048,0.183569408654516,0.00237579631982854,,
0.00142785171292324,0.161748267702736,0.00197635323756984,,
0.00143408687324168,0.133899888704467,0.00151173947628269,,
0.00144032203356013,0.100797065168622,0.000993995429412475,,
0.00144655719387857,0.0639545010593918,0.000412429812134185,,
0.00145279235419701,0.0250492044588137,-0.000132620763506619,,
0.00145902751451545,-0.0138615829604432,-0.000701818066618287,,
0.0014652626748339,-0.0534420037319638,-0.00126354448025001,,
0.00147149783515234,-0.0914088858030737,-0.001765405758265,,
0.00147773299547078,-0.126013056046243,-0.00223290486546501,,
0.00148396815578922,-0.155680106248462,-0.00254495707546276,,
0.00149020331610766,-0.179422137277639,-0.00282857285594318,,
0.00149643847642611,-0.195662051540186,-0.00295471183866791,,
0.00150267363674455,-0.204537186737589,-0.00297982450652468,,
0.00150890879706299,-0.205756641537393,-0.00289313224797461,,
0.00151514395738143,-0.198697465751859,-0.00271823287971529,,
0.00152137911769987,-0.183827253017373,-0.00238769770340275,,
0.00152761427801832,-0.161953355383266,-0.00201185243784252,,
0.00153384943833676,-0.133704594851539,-0.00151754046513153,,
0.0015400845986552,-0.100554124456465,-0.000980179986844298,,
0.00154631975897364,-0.0635085345251473,-0.000418906246382189,,
0.00155255491929209,-0.0243513774334972,0.000143973236308437,,
0.00155879007961053,0.0146508041023811,0.000686405792710953,,
0.00156502523992897,0.0538185170127974,0.00126577398472039,,
0.00157126040024741,0.0916061294569199,0.00176805585670436,,
0.00157749556056585,0.125923118677434,0.00220782605898728,,
0.0015837307208843,0.155451531310889,0.00256576221949523,,
0.00158996588120274,0.178954050588145,0.00281350276018033,,
0.00159620104152118,0.195287151887699,0.00295973401580385,,
0.00160243620183962,0.20409343894232,0.0029872793564043,,
0.00160867136215806,0.205188913297508,0.00290300373099672,,
0.00161490652247651,0.198225053641937,0.0026883154604187,,
0.00162114168279495,0.18350114321086,0.00240494918483503,,
0.00162737684311339,0.161661960997706,0.00198167125622639,,
0.00163361200343183,0.133846930318597,0.00153766303505432,,
0.00163984716375027,0.100842986341981,0.000999848101419065,,
0.00164608232406872,0.0639535149531801,0.00044395297365929,,
0.00165231748438716,0.0250661027334416,-0.00014390016701693,,
0.0016585526447056,-0.0138848909254472,-0.000663775698576341,,
0.00166478780502404,-0.0534177096607481,-0.00126262487648798,,
0.00167102296534249,-0.0915308940352677,-0.00178097308164382,,
0.00167725812566093,-0.126069533038368,-0.00221474981987146,,
0.00168349328597937,-0.155896870322999,-0.00255969746832641,,
0.00168972844629781,-0.17931501028464,-0.00281018256287524,,
0.00169596360661625,-0.195731885789179,-0.00296436767817188,,
0.0017021987669347,-0.20478196519314,-0.00296837579612008,,
0.00170843392725314,-0.205594023658481,-0.00291512610462208,,
0.00171466908757158,-0.198638792432262,-0.00268262318441703,,
0.00172090424789002,-0.183672479165145,-0.00241198522292274,,
0.00172713940820846,-0.161853086310739,-0.00197536947540522,,
0.00173337456852691,-0.133759906445414,-0.00151426660445075,,
0.00173960972884535,-0.100543904810271,-0.000985995233115933,,
0.00174584488916379,-0.0634843749229604,-0.000431850203989281,,
0.00175208004948223,-0.0243400372120626,0.000166359172079744,,
0.00175831520980067,0.0145746722205364,0.000722282814684672,,
0.00176455037011912,0.0537967330301206,0.0012354840902562,,
0.00177078553043756,0.0916438031965081,0.00177443605334915,,
0.001777020690756,0.126101021202628,0.0021962490317784,,
0.00178325585107444,0.15566551635883,0.00257197132706866,,
0.00178949101139289,0.178978748066447,0.00280500177191279,,
0.00179572617171133,0.19544152233284,0.00297601955684978,,
0.00180196133202977,0.204225039298574,0.00298759301970275,,
0.00180819649234821,0.205141625022355,0.00287750076619409,,
0.00181443165266665,0.198130902910224,0.00268729961905301,,
0.0018206668129851,0.183597266154997,0.00240483868980901,,
0.00182690197330354,0.161809876929462,0.00199062491766355,,
0.00183313713362198,0.133838301889245,0.0015187398708143,,
0.00183937229394042,0.100815330545043,0.000998475824486977,,
0.00184560745425886,0.0640019686265826,0.000419838325389499,,
0.00185184261457731,0.0250957083312976,-0.000129924328443831,,
0.00185807777489575,-0.013870413093339,-0.00068268104103808,,
0.00186431293521419,-0.0533813581999438,-0.00124637141464312,,
0.00187054809553263,-0.0915544261153197,-0.00175295902827344,,
0.00187678325585107,-0.12615250042918,-0.00220849437567461,,
0.00188301841616952,-0.155759577444524,-0.00257669766268354,,
0.00188925357648796,-0.17922814329199,-0.0028276675096035,,
0.0018954887368064,-0.195878367384627,-0.00299007381124738,,
0.00190172389712484,-0.204759822626386,-0.00298380232744977,,
0.00190795905744329,-0.205526161621912,-0.0028990419496715,,
0.00191419421776173,-0.198562682961922,-0.00270982456469504,,
0.00192042937808017,-0.183584177836187,-0.00238791691127638,,
0.00192666453839861,-0.161916824630423,-0.00199814214376648,,
0.00193289969871705,-0.133691685824768,-0.00152162878108264,,
0.0019391348590355,-0.100463716446055,-0.000988431470215101,,
0.00194537001935394,-0.0634749620909396,-0.000418656741485446,,
0.00195160517967238,-0.0244100507530938,0.000163488083589236,,
0.00195784033999082,0.0146553088148483,0.000705810144966179,,
0.00196407550030926,0.0537520220780216,0.00125868091694192,,
0.00197031066062771,0.0915684781288366,0.00178464080362595,,
0.00197654582094615,0.125958618501056,0.00221117655331504,,
0.00198278098126459,0.155505453391466,0.00255255271739063,,
0.00198901614158303,0.178913239237883,0.00282133721393762,,
0.00199525130190147,0.195338743171775,0.00294167342563556,,
0.00200148646221992,0.204226428811872,0.00296837757829804,,
0.00200772162253836,0.205184005177954,0.00288868571427914,,
