Time domain (s),Current (AC) (A),Potential (AC) (V),Frequency (Hz),Column 5
0,-0.0906543911726447,-0.000257009226070526,0.025119,0.5
0.0971936084239022,-0.0975381210460668,-0.000572807644580564,,
0.194387216847804,-0.104418641521916,-0.000854807882000319,,
0.291580825271707,-0.11121336410266,-0.00110932974982925,,
0.388774433695609,-0.118067496198469,-0.00138253349286588,,
0.485968042119511,-0.124846599711026,-0.00170226311168697,,
0.583161650543413,-0.131639967212794,-0.00193250654826382,,
0.680355258967316,-0.138546519468955,-0.00218613168608295,,
0.777548867391218,-0.145296881043251,-0.00248510574154848,,
0.87474247581512,-0.15188570293973,-0.00276546197395033,,
0.971936084239022,-0.158477591593889,-0.00299775774796052,,
1.06912969266292,-0.165132955000038,-0.00325652840797952,,
1.16632330108683,-0.171720065217811,-0.00356244144566542,,
1.26351690951073,-0.178213389706521,-0.00377919656834225,,
1.36071051793463,-0.184610146988269,-0.00405814098474577,,
1.45790412635853,-0.191125580660256,-0.00435493726733016,,
1.55509773478244,-0.197624040185081,-0.00462711617606981,,
1.65229134320634,-0.203885360889268,-0.00486615610703023,,
1.74948495163024,-0.210086487558984,-0.00512332546345995,,
1.84667856005414,-0.216253095374809,-0.00537481819866548,,
1.94387216847804,-0.222634518868155,-0.00564114701162577,,
2.04106577690195,-0.228865599915215,-0.00590260786167462,,
2.13825938532585,-0.234726102522565,-0.00616863776463106,,
2.23545299374975,-0.240842501096366,-0.00642556959436202,,
2.33264660217365,-0.246895282278284,-0.00664760101236528,,
2.42984021059756,-0.25279493953602,-0.00693660161530962,,
2.52703381902146,-0.258631122041765,-0.00719203889502351,,
2.62422742744536,-0.264545827808118,-0.00741086503700927,,
2.72142103586926,-0.27007533454582,-0.0076576792968952,,
2.81861464429316,-0.275905740135934,-0.00792627128559475,,
2.91580825271707,-0.281615543697267,-0.00816738757354241,,
3.01300186114097,-0.28703471847842,-0.00839837561628798,,
3.11019546956487,-0.292587760798321,-0.00865648707299638,,
3.20738907798877,-0.297922706723182,-0.00889915929426488,,
3.30458268641268,-0.303410847892171,-0.00912039539815224,,
3.40177629483658,-0.30863496262086,-0.00936578182900449,,
3.49896990326048,-0.313726921489506,-0.00956295300878507,,
3.59616351168438,-0.318991474627608,-0.00982588705813603,,
3.69335712010828,-0.32403522121272,-0.0100508568682258,,
3.79055072853219,-0.328902094331612,-0.0102608251325238,,
3.88774433695609,-0.333870812333472,-0.0104961713898715,,
3.98493794537999,-0.338927396508874,-0.0107219098256839,,
4.08213155380389,-0.343451648606911,-0.0109091155594609,,
4.1793251622278,-0.347841890526308,-0.0111342161426773,,
4.2765187706517,-0.352574896106452,-0.0113775048658278,,
4.3737123790756,-0.357166474233566,-0.01158125740336,,
4.4709059874995,-0.361522696538693,-0.0117837689306106,,
4.56809959592341,-0.365875566806356,-0.0119843588935544,,
4.66529320434731,-0.37000670336173,-0.0121707960016089,,
4.76248681277121,-0.374165155456443,-0.0123881436066138,,
4.85968042119511,-0.378028414294429,-0.0125634116221329,,
4.95687402961901,-0.382181446073241,-0.0127933347979923,,
5.05406763804292,-0.386093273794491,-0.0129814586124937,,
5.15126124646682,-0.389757407343087,-0.0131489763186412,,
5.24845485489072,-0.393396721550456,-0.0133088077675607,,
5.34564846331462,-0.397092521155101,-0.0135222295099324,,
5.44284207173853,-0.400934954568838,-0.0136867581160467,,
5.54003568016243,-0.404342051031846,-0.0138892269418687,,
5.63722928858633,-0.407295552637936,-0.0140367603792226,,
5.73442289701023,-0.410706357738139,-0.0142050894125219,,
5.83161650543413,-0.413453031500665,-0.0143557854244647,,
5.92881011385804,-0.416619922385356,-0.0145371997769277,,
6.02600372228194,-0.419566505956678,-0.0146663929505064,,
6.12319733070584,-0.422741170715488,-0.0148337825523668,,
6.22039093912974,-0.42551016762113,-0.0149772193213717,,
6.31758454755365,-0.427946100378687,-0.0151488763972973,,
6.41477815597755,-0.430626874511057,-0.0152782617273068,,
6.51197176440145,-0.433108523354037,-0.0154148635988252,,
6.60916537282535,-0.43525753596861,-0.0155560532051262,,
6.70635898124925,-0.437343216471085,-0.0157055989473243,,
6.80355258967316,-0.439523681181868,-0.0158328705565958,,
6.90074619809706,-0.44148462309869,-0.015949400087623,,
6.99793980652096,-0.443518953240005,-0.0160547018116506,,
7.09513341494486,-0.445414994005915,-0.0161954003515179,,
7.19232702336877,-0.447074680470595,-0.0162954497997729,,
7.28952063179267,-0.448693643246076,-0.0164179014852408,,
7.38671424021657,-0.450302906508894,-0.0165545460581882,,
7.48390784864047,-0.451558422839271,-0.0166405013660187,,
7.58110145706437,-0.452477594304047,-0.0167501346162551,,
7.67829506548828,-0.453971889813821,-0.0167912133909973,,
7.77548867391218,-0.455200875124266,-0.0168964724135954,,
7.87268228233608,-0.455891537481877,-0.0169876212827336,,
7.96987589075998,-0.457144700254034,-0.0170625436088341,,
8.06706949918389,-0.457531610961391,-0.0171554405677239,,
8.16426310760779,-0.458498424150132,-0.0172221802324835,,
8.26145671603169,-0.458982829223747,-0.0172985303876176,,
8.35865032445559,-0.459397412070173,-0.0173643119390632,,
8.45584393287949,-0.459251634100434,-0.0173981314708676,,
8.5530375413034,-0.460215237891603,-0.0174863312725622,,
8.6502311497273,-0.460135930111588,-0.0175268976301557,,
8.7474247581512,-0.459683832973536,-0.017568678309638,,
8.8446183665751,-0.459926534749966,-0.0176314307284606,,
8.94181197499901,-0.459657587233387,-0.0176895687241068,,
9.03900558342291,-0.459508671186021,-0.0177162330977065,,
9.13619919184681,-0.458530946045534,-0.0177666261216594,,
9.23339280027071,-0.458230332472906,-0.0177869306511709,,
9.33058640869461,-0.45766419474111,-0.0178131279778908,,
9.42778001711852,-0.456864341546087,-0.017823309599879,,
9.52497362554242,-0.456091447290673,-0.0178624881610285,,
9.62216723396632,-0.454924153733567,-0.0178726724518561,,
9.71936084239022,-0.454220297185936,-0.017889774374189,,
9.81655445081413,-0.453003935505943,-0.0178657548203507,,
9.91374805923803,-0.451443383766282,-0.0178907805266109,,
10.0109416676619,-0.449920061038463,-0.0178728005561433,,
10.1081352760858,-0.44857439629627,-0.0178843726434148,,
10.2053288845097,-0.44696028327712,-0.0178397923514906,,
10.3025224929336,-0.445263153840761,-0.0178077235782772,,
10.3997161013575,-0.443236811533405,-0.0178094102847242,,
10.4969097097814,-0.441379069578527,-0.0177944434338437,,
10.5941033182053,-0.439683437861035,-0.0177896848933443,,
10.6912969266292,-0.43755489407098,-0.0177430736147013,,
10.7884905350531,-0.435115181356281,-0.0177054082854435,,
10.8856841434771,-0.43274586142834,-0.0176831208083206,,
10.982877751901,-0.430428890340804,-0.0176345239132272,,
11.0800713603249,-0.427895320577095,-0.0175390034852905,,
11.1772649687488,-0.425376585362166,-0.0175122510399932,,
11.2744585771727,-0.422465019884358,-0.0174474089199865,,
11.3716521855966,-0.419452465362933,-0.0173963807122766,,
11.4688457940205,-0.416626198540608,-0.0173144179880622,,
11.5660394024444,-0.413384564352451,-0.0172460957015885,,
11.6632330108683,-0.410530625391056,-0.0171549681831649,,
11.7604266192922,-0.407159188901076,-0.0170738381368167,,
11.8576202277161,-0.404239635589309,-0.0170041253850601,,
11.95481383614,-0.400576001280336,-0.0169092428097195,,
12.0520074445639,-0.396822931759007,-0.0168132926986533,,
12.1492010529878,-0.393635500729853,-0.0167457817393313,,
12.2463946614117,-0.389669541169546,-0.0166497462254069,,
12.3435882698356,-0.385889084788932,-0.0165442523449486,,
12.4407818782595,-0.381921270910028,-0.0164411951147856,,
12.5379754866834,-0.378127121099771,-0.0163056367594394,,
12.6351690951073,-0.37410011166564,-0.0161984988739632,,
12.7323627035312,-0.370058267682729,-0.0160836106791149,,
12.8295563119551,-0.365535727263397,-0.0159754479593412,,
12.926749920379,-0.361206891817555,-0.0158302017172804,,
13.0239435288029,-0.356970487021802,-0.0157028447051508,,
13.1211371372268,-0.352298816595267,-0.0155893416379072,,
13.2183307456507,-0.34776372386543,-0.0154342687294871,,
13.3155243540746,-0.343094193037276,-0.0152935061374762,,
13.4127179624985,-0.338466099097781,-0.015146164856553,,
13.5099115709224,-0.333602150096678,-0.0150035874538075,,
13.6071051793463,-0.328736132817139,-0.0148296191630348,,
13.7042987877702,-0.323760211500726,-0.0147136847831746,,
13.8014923961941,-0.318588659572281,-0.0145480245891907,,
13.898686004618,-0.31341938988211,-0.0143890898702814,,
13.9958796130419,-0.308273156534515,-0.0142232802212958,,
14.0930732214658,-0.303119006672908,-0.0140678016492997,,
14.1902668298897,-0.297602052245712,-0.0139108338649661,,
14.2874604383136,-0.292230305228686,-0.0136982448004601,,
14.3846540467375,-0.286809347448882,-0.0135429824044491,,
14.4818476551614,-0.281370773642402,-0.0133401506164805,,
14.5790412635853,-0.275830426272899,-0.0131617253640508,,
14.6762348720092,-0.270020061587626,-0.012936304520117,,
14.7734284804331,-0.264225957850054,-0.0127847945121831,,
14.870622088857,-0.258432282032159,-0.0126152271374411,,
14.9678156972809,-0.252557800715382,-0.012407871666833,,
15.0650093057048,-0.246640812710755,-0.0122061314341444,,
15.1622029141287,-0.240544098442066,-0.0120129234807469,,
15.2593965225527,-0.234534465827511,-0.0118003584357953,,
15.3565901309766,-0.228492739237232,-0.0115904168598906,,
15.4537837394005,-0.222389463533505,-0.0113655511345341,,
15.5509773478244,-0.216223711557034,-0.0111565276393537,,
15.6481709562483,-0.209970022087074,-0.0109420810626846,,
15.7453645646722,-0.203640020274834,-0.0107396309187382,,
15.8425581730961,-0.197408939227775,-0.0105281761109417,,
15.93975178152,-0.191009828387806,-0.0102860590082505,,
16.0369453899439,-0.184593315481,-0.0100435976252879,,
16.1341389983678,-0.178032522323321,-0.00984108876687628,,
16.2313326067917,-0.17155659990145,-0.0096043093428162,,
16.3285262152156,-0.165029398438364,-0.00935044934713769,,
16.4257198236395,-0.158234818497513,-0.00915737483570611,,
16.5229134320634,-0.151731081296679,-0.00890046168785075,,
16.6201070404873,-0.144993985232349,-0.00867363169675794,,
16.7173006489112,-0.138271866356691,-0.00843354291194709,,
16.8144942573351,-0.131590613810123,-0.00819518353501181,,
16.911687865759,-0.124683419674449,-0.00792629263630928,,
17.0088814741829,-0.117884346576996,-0.00770405304883903,,
17.1060750826068,-0.111057030780904,-0.00743529025442324,,
17.2032686910307,-0.10418093214171,-0.00720354959899083,,
17.3004622994546,-0.097256621218982,-0.00693715673388695,,
17.3976559078785,-0.0903619793938133,-0.00669916031909912,,
17.4948495163024,-0.0834530735794333,-0.00641421368307471,,
17.5920431247263,-0.0764574427106486,-0.00617282250467754,,
17.6892367331502,-0.0694632382407851,-0.00590145759192939,,
17.7864303415741,-0.062541494836115,-0.00565493957320751,,
17.883623949998,-0.0554491541204778,-0.0054091074461895,,
17.9808175584219,-0.0485146444454635,-0.00511963445868657,,
18.0780111668458,-0.0414576071031243,-0.00486641498444351,,
18.1752047752697,-0.0343898717688766,-0.00462572837962583,,
18.2723983836936,-0.0273170727184589,-0.00433160093635676,,
18.3695919921175,-0.0203180898122096,-0.00405515188471295,,
18.4667856005414,-0.0131609905855532,-0.00380754764838942,,
18.5639792089653,-0.00610773320035492,-0.00352341233951714,,
18.6611728173892,0.00101342077348906,-0.00326906127740445,,
18.7583664258131,0.00807951574897747,-0.00300760042735559,,
18.855560034237,0.0151259620793273,-0.00273185594929082,,
18.9527536426609,0.0221985471699069,-0.00245480907764017,,
19.0499472510848,0.0292949174624962,-0.00219362311804128,,
19.1471408595087,0.0362908692710381,-0.00192678722561102,,
19.2443344679326,0.0433509733710578,-0.00164388758934164,,
19.3415280763565,0.0504107208713472,-0.00137179408346055,,
19.4387216847804,0.0573764330227611,-0.00111513981301892,,
19.5359152932043,0.064310443458153,-0.000832325579607662,,
19.6331089016283,0.0713451933173496,-0.00058275707754829,,
19.7303025100522,0.0783521997175302,-0.000299796057974699,,
19.8274961184761,0.0852919157486066,-1.60450619639541E-05,,
19.9246897269,0.0921888398120491,0.000240248915170493,,
20.0218833353239,0.0991188563304618,0.000541315340659487,,
20.1190769437478,0.106043452532974,0.000823086057898159,,
20.2162705521717,0.112929535964616,0.00104974524327472,,
20.3134641605956,0.119698654684726,0.00133590353234769,,
20.4106577690195,0.126503433377863,0.00160428201390195,,
20.5078513774434,0.133303077034885,0.00187725089907875,,
20.6050449858673,0.140024268751244,0.00213094008904102,,
20.7022385942912,0.146662444050394,0.00242331677371954,,
20.7994322027151,0.153475460197301,0.00269784959873487,,
20.896625811139,0.160161027600605,0.00295953996896481,,
20.9938194195629,0.166670006817474,0.0032522155636463,,
21.0910130279868,0.173151278235299,0.00348374271193386,,
21.1882066364107,0.179729509119788,0.00380229537261734,,
21.2854002448346,0.186247296349995,0.00403542382449373,,
21.3825938532585,0.192703784086566,0.00430860621681584,,
21.4797874616824,0.198968777767975,0.00457122000544885,,
21.5769810701063,0.205427512082847,0.00481730834104122,,
21.6741746785302,0.211689153726792,0.00508148073183445,,
21.7713682869541,0.217965843879354,0.00534153243472479,,
21.868561895378,0.224150139041801,0.00559665212256011,,
21.9657555038019,0.230106495656651,0.00585593519972782,,
22.0629491122258,0.23636924275976,0.00611118299185032,,
22.1601427206497,0.242409471631172,0.0063825452357591,,
22.2573363290736,0.248308772289177,0.00663122234548741,,
22.3545299374975,0.25428081929216,0.0068747058939076,,
22.4517235459214,0.260185005366469,0.00712561949098189,,
22.5489171543453,0.265837182411389,0.00738061107453047,,
22.6461107627692,0.271521703051845,0.00762238656578917,,
22.7433043711931,0.277240706886219,0.00786981999639602,,
22.840497979617,0.282870418148131,0.00812532933477161,,
22.9376915880409,0.28851553451839,0.00834506555096404,,
23.0348851964648,0.293683948369209,0.00857140447562221,,
23.1320788048887,0.299042643836106,0.0088220618641226,,
23.2292724133126,0.304607311307214,0.00903592663382113,,
23.3264660217365,0.309771445961269,0.00927318644895792,,
23.4236596301604,0.314863690109699,0.00952618707837694,,
23.5208532385843,0.319862933048472,0.0097281434870502,,
23.6180468470082,0.325074138866924,0.00996099437963816,,
23.7152404554321,0.330030019278495,0.0101907921200493,,
23.812434063856,0.334908303588756,0.0104007550466685,,
23.9096276722799,0.339626260660282,0.0106384792398466,,
24.0068212807039,0.344471737795356,0.0108423518751479,,
24.1040148891278,0.349045628575848,0.011068263785516,,
24.2012084975517,0.353506833841571,0.0112597583440728,,
24.2984021059756,0.357798012355895,0.0114849870315763,,
24.3955957143995,0.362266920175792,0.0116872423502525,,
24.4927893228234,0.366503610251329,0.0118772637095077,,
24.5899829312473,0.370749429279962,0.0120822786080361,,
24.6871765396712,0.374736784824085,0.0122647791781003,,
24.7843701480951,0.378756091704043,0.0124703064937775,,
24.881563756519,0.382702652239022,0.0126613259989359,,
24.9787573649429,0.38636421826956,0.0128575817668315,,
25.0759509733668,0.39011707383105,0.0130115417692571,,
25.1731445817907,0.394084174510494,0.0132222092694558,,
25.2703381902146,0.3972453597995,0.0133977975456929,,
25.3675317986385,0.400796522553542,0.0135909200962323,,
25.4647254070624,0.404626403656773,0.013771461738239,,
25.5619190154863,0.40795305122063,0.0138980020855382,,
25.6591126239102,0.410942783359316,0.0140574919230247,,
25.7563062323341,0.414212945525897,0.0142298562413692,,
25.853499840758,0.416960475127775,0.0144263041656956,,
25.9506934491819,0.420048628792019,0.0145404023841063,,
26.0478870576058,0.422646957066748,0.0146752534970336,,
26.1450806660297,0.425122900314043,0.0148412126010209,,
26.2422742744536,0.428097512624165,0.014983963478322,,
26.3394678828775,0.43045592060036,0.0151319719690743,,
26.4366614913014,0.432667980047247,0.0153008721339871,,
26.5338550997253,0.435299971336514,0.0153911643057048,,
26.6310487081492,0.437441566676697,0.0155427330281039,,
26.7282423165731,0.439478464336069,0.0156616778587115,,
26.825435924997,0.441490257374429,0.015768986549904,,
26.9226295334209,0.443463252362134,0.0158918385612696,,
27.0198231418448,0.444982367213137,0.0160118722783178,,
27.1170167502687,0.446857796514637,0.0161401473711722,,
27.2142103586926,0.448449657710617,0.0162396417008495,,
27.3114039671165,0.44978990213691,0.0163574122421584,,
27.4085975755404,0.4515714743894,0.0164302235163603,,
27.5057911839643,0.452576800349011,0.0165385730548859,,
27.6029847923882,0.453867691372633,0.0166384730481393,,
27.7001784008121,0.45489298691714,0.0167181325640247,,
27.797372009236,0.455978191216335,0.0167982404449147,,
27.8945656176599,0.456440059186997,0.0168730746993182,,
27.9917592260838,0.457415430769265,0.0169370200893146,,
28.0889528345077,0.458027070626645,0.0170371976418564,,
28.1861464429316,0.458294948344033,0.01711000357838,,
28.2833400513556,0.458665812063526,0.017168013469739,,
28.3805336597795,0.459187018229307,0.0172281370818359,,
28.4777272682034,0.459313111893935,0.0172658637943979,,
28.5749208766273,0.459214405088593,0.017364867057641,,
28.6721144850512,0.459251206180758,0.0174030421352085,,
28.7693080934751,0.459168760323116,0.0174661975487673,,
28.866501701899,0.45893340450113,0.0174741613652847,,
28.9636953103229,0.458635572406398,0.0175094754471057,,
29.0608889187468,0.45822790759474,0.0175567832928101,,
29.1580825271707,0.45751099949698,0.0175887986892374,,
29.2552761355946,0.457147553051877,0.0175881368170869,,
29.3524697440185,0.456253771487897,0.0176248600460664,,
29.4496633524424,0.455405064129826,0.0176244757332049,,
29.5468569608663,0.454344679171859,0.0176287405384312,,
29.6440505692902,0.453428645784709,0.01765833262876,,
29.7412441777141,0.452373681142643,0.0176729632058867,,
29.838437786138,0.450474858898836,0.0176485806899014,,
29.9356313945619,0.449355991585102,0.0176418285264335,,
30.0328250029858,0.447836591454316,0.0176288899934329,,
30.1300186114097,0.446387084870665,0.017626135751259,,
30.2272122198336,0.444394690857632,0.017620499162625,,
30.3244058282575,0.442762605212076,0.0175955828787768,,
30.4215994366814,0.440703741009318,0.0175854679777716,,
30.5187930451053,0.438669410868004,0.0175517445241824,,
30.6159866535292,0.436408853857799,0.0175074044277967,,
30.7131802619531,0.434109213517155,0.0174752449140465,,
30.810373870377,0.432223799423207,0.0174317321578488,,
30.9075674788009,0.429605501563583,0.0173664043090866,,
31.0047610872248,0.427338953677909,0.0173333694160411,,
31.1019546956487,0.424455916178523,0.0172796350052651,,
31.1991483040726,0.421537218706109,0.0172230556117792,,
31.2963419124965,0.418696117335005,0.0171730095369376,,
31.3935355209204,0.415954863888379,0.0170791731466089,,
31.4907291293443,0.412692404275973,0.0169923184399292,,
31.5879227377682,0.409664159366416,0.0169368065821693,,
31.6851163461921,0.406566876749077,0.0168686123999828,,
31.782309954616,0.403221400719461,0.0167681359374376,,
31.8795035630399,0.399760386377234,0.0167166166632935,,
31.9766971714638,0.395992696266964,0.0165906047461788,,
32.0738907798877,0.392376775001902,0.0164831465999842,,
32.1710843883116,0.388622778321275,0.0164175145035408,,
32.2682779967355,0.3850505048632,0.016332367854023,,
32.3654716051594,0.381081692505051,0.0162009381930979,,
32.4626652135834,0.377301164804491,0.0160940084770878,,
32.5598588220073,0.372978605513902,0.0159816610172676,,
32.6570524304312,0.368866297424287,0.0158713205246128,,
32.7542460388551,0.364980501483348,0.0157371953359795,,
32.851439647279,0.360503891109277,0.015620385576824,,
32.9486332557029,0.355844131113733,0.0154911924032453,,
33.0458268641268,0.351647665487772,0.0153531173324248,,
33.1430204725507,0.347076056945554,0.0152155973801822,,
33.2402140809746,0.342480770181245,0.0150897349180692,,
33.3374076893985,0.337742558245039,0.0149428633528652,,
33.4346012978224,0.332882531840968,0.0147806192732047,,
33.5317949062463,0.327892703135075,0.0146534330667913,,
33.6289885146702,0.32284268039471,0.0145166390388423,,
