Time domain (s),Current (AC) (A),Potential (AC) (V),Frequency (Hz),Column 5
0,0.197651632879829,0.00363406875834782,19.953,0.3
0.000232479921565679,0.203542452096529,0.00378547064695978,,
0.000464959843131359,0.209026995554006,0.0039569827534951,,
0.000697439764697038,0.214628616712618,0.0041057381942573,,
0.000929919686262717,0.21999482742469,0.00424987210135397,,
0.0011623996078284,0.225274260790131,0.00438007733555779,,
0.00139487952939408,0.230136481582001,0.00449773283548449,,
0.00162735945095976,0.234584717056993,0.00463014994294353,,
0.00185983937252543,0.239333625280536,0.00479209862267016,,
0.00209231929409111,0.243882802173199,0.0048948699427438,,
0.00232479921565679,0.247816828081795,0.00501556746483089,,
0.00255727913722247,0.251910961780764,0.00512869336033317,,
0.00278975905878815,0.255405005026901,0.00520066559890564,,
0.00302223898035383,0.2589557045572,0.00534309742217465,,
0.00325471890191951,0.262165928506403,0.00544614452997161,,
0.00348719882348519,0.265447510686926,0.00551308294616071,,
0.00371967874505087,0.268272077461332,0.00562589962512483,,
0.00395215866661655,0.270747741928833,0.00571162224957744,,
0.00418463858818223,0.273016324091875,0.00579554250375747,,
0.00441711850974791,0.275450213514406,0.00586364814273521,,
0.00464959843131359,0.27745218841621,0.00596188707264922,,
0.00488207835287927,0.278971150566316,0.0060264381143047,,
0.00511455827444495,0.280392219263406,0.00610042722471205,,
0.00534703819601063,0.281532875212293,0.00614607705725145,,
0.0055795181175763,0.282533145495041,0.00618527791424173,,
0.00581199803914198,0.283377969580416,0.00625141125313755,,
0.00604447796070766,0.283613917903072,0.00626009160208429,,
0.00627695788227334,0.284134402690815,0.00631677572928968,,
0.00650943780383902,0.284322480039193,0.00635877346379665,,
0.0067419177254047,0.283901502332814,0.00638557223044289,,
0.00697439764697038,0.283491461440782,0.00638643023669294,,
0.00720687756853606,0.282666718063718,0.00639294885560693,,
0.00743935749010174,0.281822611146496,0.00639866518296195,,
0.00767183741166742,0.280666894666376,0.0064369300331335,,
0.0079043173332331,0.279101854462377,0.0063999466208684,,
0.00813679725479878,0.277652816207283,0.00641150184790007,,
0.00836927717636446,0.275604583959548,0.00639991319205313,,
0.00860175709793014,0.273379749053898,0.00637472736572819,,
0.00883423701949581,0.27129619627458,0.00636235034699562,,
0.0090667169410615,0.268522548439106,0.00633932903643819,,
0.00929919686262717,0.265816493702143,0.00627968088764108,,
0.00953167678419285,0.262729622675423,0.00624393434152859,,
0.00976415670575853,0.259454853592363,0.00621523013243053,,
0.00999663662732421,0.256144584685681,0.00615785792878443,,
0.0102291165488899,0.252495633118287,0.00611441996950024,,
0.0104615964704556,0.24862955889228,0.00604553432484067,,
0.0106940763920213,0.244399163244056,0.00598891984100014,,
0.0109265563135869,0.240084321045703,0.00591108363113957,,
0.0111590362351526,0.235378442911398,0.00582841138605028,,
0.0113915161567183,0.230812233275078,0.00577283040973819,,
0.011623996078284,0.225893535491083,0.00567600106152089,,
0.0118564759998496,0.220570892744365,0.00560009536572315,,
0.0120889559214153,0.215540675312428,0.00549644375352276,,
0.012321435842981,0.210014536102021,0.00540850368434587,,
0.0125539157645467,0.204227168391531,0.00529011275048985,,
0.0127863956861124,0.198371131830298,0.00518824957988873,,
0.013018875607678,0.192426704294089,0.0050599163593219,,
0.0132513555292437,0.186338663835048,0.00495376037173534,,
0.0134838354508094,0.180096252930865,0.00481096361723665,,
0.0137163153723751,0.173713814944619,0.00470682171575021,,
0.0139487952939408,0.166829538542634,0.00459261774096609,,
0.0141812752155064,0.159991160902502,0.00443144628118697,,
0.0144137551370721,0.153323827867093,0.00430693508846192,,
0.0146462350586378,0.146167565442715,0.00416822500658975,,
0.0148787149802035,0.13891107876882,0.00403577168458114,,
0.0151111949017692,0.131603135279877,0.00386294749705973,,
0.0153436748233348,0.124355456327373,0.00374255640577648,,
0.0155761547449005,0.116688189181787,0.00356468168146407,,
0.0158086346664662,0.109151648343767,0.0034106974168977,,
0.0160411145880319,0.101503946441882,0.00324831137684178,,
0.0162735945095976,0.0935331602866342,0.00309709056097729,,
0.0165060744311632,0.0857859513033859,0.00291443551612813,,
0.0167385543527289,0.0778286120510247,0.00277583964937378,,
0.0169710342742946,0.0698151543906155,0.0025940537537128,,
0.0172035141958603,0.0618144264649392,0.00242520480943487,,
0.017435994117426,0.0536152222526521,0.00224219319055941,,
0.0176684740389916,0.0453889225310478,0.0020582789936805,,
0.0179009539605573,0.0372051822570806,0.00188944119234069,,
0.018133433882123,0.0289915898587044,0.0017364597922227,,
0.0183659138036887,0.0207567289422621,0.00156739913211679,,
0.0185983937252543,0.0124451086218404,0.00135411214984105,,
0.01883087364682,0.00418458653238888,0.0011847283445241,,
0.0190633535683857,-0.00413223325714916,0.00102055943433799,,
0.0192958334899514,-0.0125010701493548,0.000805701297760031,,
0.0195283134115171,-0.0208005210226639,0.000608905864189602,,
0.0197607933330827,-0.0291404246621578,0.00041577645732449,,
0.0199932732546484,-0.037325464803404,0.000252776162794621,,
0.0202257531762141,-0.0455664888836695,6.32584608108999E-05,,
0.0204582330977798,-0.0537621969012061,-0.000121870316344364,,
0.0206907130193455,-0.0620218225304651,-0.000342922533758117,,
0.0209231929409111,-0.0699360420475689,-0.000467758264561358,,
0.0211556728624768,-0.0780740628517206,-0.000703565125170336,,
0.0213881527840425,-0.085977614492534,-0.000847420458809367,,
0.0216206327056082,-0.0939001710894277,-0.0010540216780961,,
0.0218531126271739,-0.101695430338992,-0.00123414866881566,,
0.0220855925487395,-0.10937845277246,-0.00141614349456987,,
0.0223180724703052,-0.116987965470146,-0.00158830328439441,,
0.0225505523918709,-0.124553551618402,-0.00175462278167515,,
0.0227830323134366,-0.131878527851001,-0.0019568225403277,,
0.0230155122350023,-0.139164956295324,-0.00215268196707985,,
0.0232479921565679,-0.14634291305636,-0.00229225841240588,,
0.0234804720781336,-0.15346331707304,-0.0024666328612204,,
0.0237129519996993,-0.160214558782464,-0.00265622159943613,,
0.023945431921265,-0.167065666157328,-0.00280260498720475,,
0.0241779118428307,-0.17380883972502,-0.00296298390549632,,
0.0244103917643963,-0.180256540013277,-0.00314743435628184,,
0.024642871685962,-0.186765737470736,-0.00328145047538886,,
0.0248753516075277,-0.192727735626718,-0.00346337008630959,,
0.0251078315290934,-0.198741549181823,-0.00362514326475782,,
0.025340311450659,-0.204618562911559,-0.00378506810831336,,
0.0255727913722247,-0.210337844470432,-0.00392844290273731,,
0.0258052712937904,-0.215747399032809,-0.00406729505707304,,
0.0260377512153561,-0.221181023551354,-0.00419126024582051,,
0.0262702311369218,-0.22622092275337,-0.00434167877012648,,
0.0265027110584874,-0.231293273814353,-0.00447920491480236,,
0.0267351909800531,-0.235754597608155,-0.00459737577562658,,
0.0269676709016188,-0.240307181049549,-0.0047397936702227,,
0.0272001508231845,-0.244878455685956,-0.00484683412853792,,
0.0274326307447502,-0.248885946507324,-0.00498276544016774,,
0.0276651106663158,-0.252950497019942,-0.00509401514343155,,
0.0278975905878815,-0.256371613229422,-0.0051940578364853,,
0.0281300705094472,-0.259880313599704,-0.00530308034495341,,
0.0283625504310129,-0.263350331712683,-0.00541624663360674,,
0.0285950303525786,-0.266282653002223,-0.00547927248558056,,
0.0288275102741442,-0.269349264028593,-0.00557322974144725,,
0.0290599901957099,-0.27181829469067,-0.0056745079077869,,
0.0292924701172756,-0.274299158627286,-0.00575800194457665,,
0.0295249500388413,-0.276334123264173,-0.00584990750692649,,
0.029757429960407,-0.277933004840437,-0.00591045962659376,,
0.0299899098819726,-0.279685808631746,-0.0059817187171145,,
0.0302223898035383,-0.281093654540997,-0.00603346652264625,,
0.030454869725104,-0.2824286182366,-0.00605776927111013,,
0.0306873496466697,-0.283330995066331,-0.00616270232121652,,
0.0309198295682354,-0.283873039721703,-0.00619308911399985,,
0.031152309489801,-0.284536016857037,-0.0062456601041001,,
0.0313847894113667,-0.284490297387222,-0.0062466532184775,,
0.0316172693329324,-0.284577074733852,-0.00630485278529358,,
0.0318497492544981,-0.284135299151007,-0.0063416258745983,,
0.0320822291760638,-0.283887158969734,-0.00633908389179538,,
0.0323147090976294,-0.283156006036763,-0.00635884171429391,,
0.0325471890191951,-0.282024673273877,-0.00637651302159314,,
0.0327796689407608,-0.280770390995595,-0.00638202877605876,,
0.0330121488623265,-0.279212701765175,-0.00638806964149241,,
0.0332446287838922,-0.277482847354793,-0.00636219434585916,,
0.0334771087054578,-0.27553896307346,-0.00634803167126163,,
0.0337095886270235,-0.273548283570081,-0.0063314621219881,,
0.0339420685485892,-0.27122488286627,-0.00632250459245043,,
0.0341745484701549,-0.268591396581887,-0.006290401787167,,
0.0344070283917205,-0.265555982370214,-0.00624843469574055,,
0.0346395083132862,-0.262482378954342,-0.00620213578704387,,
0.0348719882348519,-0.259090352878108,-0.00616846322032538,,
0.0351044681564176,-0.255487613833636,-0.00611796203101722,,
0.0353369480779833,-0.251923512223459,-0.00606990393093465,,
0.0355694279995489,-0.247718396752663,-0.00599098964179223,,
0.0358019079211146,-0.243799252083261,-0.00592375454487026,,
0.0360343878426803,-0.239290415899259,-0.00586385985856319,,
0.036266867764246,-0.23476813281237,-0.00579396020651712,,
0.0364993476858117,-0.229966109322424,-0.00571152474886727,,
0.0367318276073773,-0.225101781849102,-0.0056232838203556,,
0.036964307528943,-0.219832388837816,-0.00552531371382825,,
0.0371967874505087,-0.214265012458556,-0.00544037248792506,,
0.0374292673720744,-0.208692436610179,-0.00535236556111807,,
0.0376617472936401,-0.203171855452966,-0.00520016416668145,,
0.0378942272152057,-0.197119180348517,-0.0051139387171375,,
0.0381267071367714,-0.191117872413096,-0.00497753940209833,,
0.0383591870583371,-0.18500060735178,-0.00485632791198176,,
0.0385916669799028,-0.178479397327742,-0.00476710501203126,,
0.0388241469014685,-0.17192766283415,-0.00463841521743857,,
0.0390566268230341,-0.165209993558934,-0.00450465677877965,,
0.0392891067445998,-0.158374663883457,-0.00435823717646144,,
0.0395215866661655,-0.151446460932041,-0.00425382784445549,,
0.0397540665877312,-0.144364783995675,-0.00411651341560759,,
0.0399865465092968,-0.137267687944,-0.00396744318683773,,
0.0402190264308625,-0.129819538080957,-0.00381987725473998,,
0.0404515063524282,-0.122405632997265,-0.00364945715615983,,
0.0406839862739939,-0.114947980656182,-0.00350219208339686,,
0.0409164661955596,-0.107226769018515,-0.00332333538764562,,
0.0411489461171252,-0.0994762879555643,-0.00318735950426241,,
0.0413814260386909,-0.0916952376000506,-0.00304671333685791,,
0.0416139059602566,-0.0838074636586244,-0.00286341200158624,,
0.0418463858818223,-0.0758049428125632,-0.00269637935625378,,
0.042078865803388,-0.0677775451961612,-0.00252457753332269,,
0.0423113457249536,-0.0596659699676871,-0.00236319435771515,,
0.0425438256465193,-0.0515470885886445,-0.00216030373688714,,
0.042776305568085,-0.0433499910578096,-0.00203482310852854,,
0.0430087854896507,-0.0351404327302995,-0.00185464179598505,,
0.0432412654112164,-0.0268782970125016,-0.00165043630843531,,
0.043473745332782,-0.0185583844352996,-0.0014927303024721,,
0.0437062252543477,-0.0103131245806247,-0.00130733409479733,,
0.0439387051759134,-0.00201891799944151,-0.00110376236186438,,
0.0441711850974791,0.00628860101559975,-0.000936307677743109,,
0.0444036650190448,0.014640360341139,-0.000736213934431795,,
0.0446361449406104,0.0228684305716234,-0.000569972437719279,,
0.0448686248621761,0.031252126291519,-0.000378414185156828,,
0.0451011047837418,0.0394011287330283,-0.000172659829181576,,
0.0453335847053075,0.0475860119937409,2.71887694847095E-06,,
0.0455660646268732,0.0557611686613653,0.000158753442164983,,
0.0457985445484388,0.0639693374755771,0.000350948235078974,,
0.0460310244700045,0.0719571563744819,0.000553982321238156,,
0.0462635043915702,0.0800448409388269,0.000735589929885982,,
0.0464959843131359,0.0879451653229475,0.000922679864184595,,
0.0467284642347015,0.0957956465203673,0.00110180399045534,,
0.0469609441562672,0.103589292141585,0.0012779835952772,,
0.0471934240778329,0.111392776413415,0.0014665221115564,,
0.0474259039993986,0.118926851985906,0.00163099188107685,,
0.0476583839209643,0.126357588109711,0.0018556571962387,,
0.0478908638425299,0.133540923631901,0.00202019243052165,,
0.0481233437640956,0.140941561104744,0.00217829958226456,,
0.0483558236856613,0.147978594323524,0.00235881518295766,,
0.048588303607227,0.155081069136355,0.00252531436011871,,
0.0488207835287927,0.161864404120669,0.00269707021842924,,
0.0490532634503583,0.168857309086476,0.00287335985976656,,
0.049285743371924,0.175304135326045,0.00304666040790114,,
0.0495182232934897,0.181707550480794,0.00319927130532038,,
0.0497507032150554,0.188018271651643,0.00337443829562245,,
0.0499831831366211,0.194132847332381,0.00351286701830222,,
0.0502156630581867,0.200081398585475,0.00368547113279183,,
0.0504481429797524,0.205970066297714,0.00381338092170269,,
0.0506806229013181,0.211515569048278,0.00397747183132058,,
0.0509131028228838,0.217015710913103,0.00413142266707212,,
0.0511455827444495,0.222211952772684,0.00425720415476505,,
0.0513780626660151,0.227290399762976,0.0044006694855625,,
0.0516105425875808,0.232112279846185,0.0045049896740621,,
0.0518430225091465,0.236701976739547,0.00463451797476289,,
0.0520755024307122,0.241264600535097,0.00478336255903189,,
0.0523079823522779,0.245445870164774,0.00489635195353966,,
0.0525404622738435,0.249424181206877,0.00504438588904632,,
0.0527729421954092,0.253567440924394,0.00511924414864229,,
0.0530054221169749,0.257013433904214,0.00522709386285269,,
0.0532379020385406,0.260421596263913,0.005352621848699,,
0.0534703819601062,0.263564227114604,0.00543878183348046,,
0.0537028618816719,0.266577767697581,0.00552634025702048,,
0.0539353418032376,0.269394087038217,0.0056285321443017,,
0.0541678217248033,0.272078088854445,0.0057397275257407,,
0.054400301646369,0.27394792552388,0.0057943028518701,,
0.0546327815679346,0.276077556357091,0.00588190027569402,,
0.0548652614895003,0.27806823586047,0.00594606131450837,,
0.055097741411066,0.279660528454319,0.00602315930470576,,
0.0553302213326317,0.280899077856223,0.0060935966035256,,
0.0555627012541974,0.282048519114997,0.00616140974037238,,
0.055795181175763,0.283248879312702,0.00617496233909698,,
0.0560276610973287,0.283515127989863,0.00622866851603776,,
0.0562601410188944,0.284017504281718,0.00627205911783424,,
0.0564926209404601,0.284253631896412,0.00630213390834466,,
0.0567251008620258,0.284086173132461,0.00634522365080636,,
0.0569575807835914,0.283688861975162,0.00637436243449852,,
0.0571900607051571,0.283255692410165,0.00638063590876925,,
0.0574225406267228,0.28237985080213,0.00639895211362385,,
0.0576550205482885,0.281561920522529,0.00639274828271708,,
0.0578875004698542,0.280336280147396,0.00639466208237272,,
0.0581199803914198,0.278492978699658,0.00638273078117235,,
0.0583524603129855,0.276815522387524,0.00640106091469983,,
0.0585849402345512,0.274839186247225,0.00636984954448128,,
0.0588174201561169,0.272581182314454,0.00634388649820838,,
0.0590499000776826,0.270055495368214,0.00631368913537678,,
0.0592823799992482,0.267416137269571,0.00628135232838822,,
0.0595148599208139,0.264639441469442,0.00625216897294267,,
0.0597473398423796,0.261374174864422,0.00620988152203994,,
0.0599798197639453,0.257948441884951,0.0061851107701667,,
0.060212299685511,0.254685864660508,0.00613585898281732,,
0.0604447796070766,0.250944577693291,0.00606427674708554,,
0.0606772595286423,0.24664730611471,0.00599534653067302,,
0.060909739450208,0.242444880024491,0.00591881404459516,,
0.0611422193717737,0.238039316054661,0.00583454000212313,,
0.0613746992933394,0.233561497393318,0.00583204676967553,,
0.061607179214905,0.228735493593223,0.00568322168554847,,
0.0618396591364707,0.223898373686742,0.00563714563561835,,
0.0620721390580364,0.218511006514128,0.0055342183144087,,
0.0623046189796021,0.213185674386832,0.00541249285626222,,
0.0625370989011678,0.207603237476339,0.00530864067117198,,
0.0627695788227334,0.201763516490609,0.00522437777163853,,
0.0630020587442991,0.195975431611965,0.00509679948514252,,
0.0632345386658648,0.189911954162197,0.00498308858537877,,
0.0634670185874305,0.183691237594672,0.00486209856116115,,
0.0636994985089961,0.177300910758733,0.00474127568101856,,
0.0639319784305618,0.170709978543225,0.00463370175453148,,
0.0641644583521275,0.164044236724657,0.00447142714385906,,
0.0643969382736932,0.157278629240649,0.00436498979708011,,
0.0646294181952589,0.150275146044571,0.00422260533129881,,
0.0648618981168245,0.143197951409168,0.00409607726673888,,
0.0650943780383902,0.135991666506051,0.00392875490500977,,
0.0653268579599559,0.128495107792615,0.00379719301806647,,
0.0655593378815216,0.121237903950566,0.00365295603879057,,
0.0657918178030873,0.113475275852007,0.00347577217665362,,
0.0660242977246529,0.105858613884286,0.00333414543067745,,
0.0662567776462186,0.0982275637304757,0.00316798472026791,,
0.0664892575677843,0.090316302532007,0.00301503396323044,,
0.06672173748935,0.0823577306468812,0.0028219574853221,,
0.0669542174109157,0.0744254698684041,0.0026925127566586,,
0.0671866973324813,0.0663960776280739,0.00250991342650053,,
0.067419177254047,0.0583485320688463,0.00233842360584235,,
0.0676516571756127,0.0501330122810564,0.00214690992503286,,
0.0678841370971784,0.0420134361453646,0.00196858948318779,,
0.0681166170187441,0.0337889069326404,0.0018087774618829,,
0.0683490969403097,0.0255307380511942,0.0016177652132976,,
0.0685815768618754,0.017284917908899,0.00142479320043654,,
0.0688140567834411,0.00895465121647407,0.00126241691045204,,
0.0690465367050068,0.000725348353225038,0.00105885771332481,,
0.0692790166265724,-0.0076033271223583,0.00087733924818334,,
0.0695114965481381,-0.0159565431957103,0.000716068894826449,,
0.0697439764697038,-0.0242479035157824,0.000510257431292516,,
0.0699764563912695,-0.0326246068461768,0.000327258348222337,,
0.0702089363128352,-0.0408152050406164,0.000146518495895975,,
0.0704414162344008,-0.0490384343860615,-6.2755635719558E-05,,
0.0706738961559665,-0.0572598708111217,-0.000252621554525323,,
0.0709063760775322,-0.0652880304186872,-0.00042062224262418,,
0.0711388559990979,-0.0732898340965945,-0.000597729497060495,,
0.0713713359206636,-0.0813850937495658,-0.000794045784283437,,
0.0716038158422292,-0.0892489770268629,-0.000925554742269519,,
0.0718362957637949,-0.0971044784013605,-0.00112941479873152,,
0.0720687756853606,-0.104881091278921,-0.00133086798051707,,
0.0723012556069263,-0.112497775658147,-0.00149493660425826,,
0.072533735528492,-0.120109798444373,-0.00168515770422317,,
0.0727662154500576,-0.127598468308115,-0.00186040269509347,,
0.0729986953716233,-0.134933619363899,-0.00204984378937656,,
0.073231175293189,-0.142172580241031,-0.00222119989477498,,
0.0734636552147547,-0.149278237487545,-0.00239261171486538,,
0.0736961351363204,-0.156267803139135,-0.00256151498096724,,
0.073928615057886,-0.163089551442696,-0.00271641435934322,,
0.0741610949794517,-0.169912465144507,-0.00288695703024455,,
0.0743935749010174,-0.176518121718676,-0.00306223544993012,,
0.0746260548225831,-0.182958112449277,-0.00324108935994705,,
0.0748585347441487,-0.189099223351712,-0.0034056510587086,,
0.0750910146657144,-0.195248178280831,-0.00353176544168354,,
0.0753234945872801,-0.201148544798581,-0.00369718236096039,,
0.0755559745088458,-0.206866885074252,-0.00383905425157938,,
0.0757884544304115,-0.21251530145491,-0.00398809105153397,,
0.0760209343519772,-0.218100741507048,-0.00413591466408025,,
0.0762534142735428,-0.223389363589462,-0.00427999146361779,,
0.0764858941951085,-0.228317563851498,-0.00442561713158129,,
0.0767183741166742,-0.233314119203208,-0.00453369388315972,,
0.0769508540382399,-0.237716052509259,-0.0046734709013756,,
