Time domain (s),Current (AC) (A),Potential (AC) (V),Frequency (Hz),Column 5
0,-0.403695927980548,-0.0125185671151167,3.1623,0.5
0.000772034990355121,-0.399962756724169,-0.012434552053469,,
0.00154406998071024,-0.396446968663371,-0.0123752370996848,,
0.00231610497106536,-0.392864710412848,-0.0123271793101325,,
0.00308813996142048,-0.38919572710792,-0.0122210662589533,,
0.00386017495177561,-0.385384175230825,-0.0121684153969395,,
0.00463220994213073,-0.381428343102858,-0.0120731084761481,,
0.00540424493248585,-0.377482424447393,-0.0120035024779637,,
0.00617627992284097,-0.37336412548231,-0.0118947179186297,,
0.00694831491319609,-0.36913399684181,-0.0117981940071106,,
0.00772034990355121,-0.364970409710981,-0.0116816191058149,,
0.00849238489390633,-0.360583591148995,-0.01165162135191,,
0.00926441988426145,-0.356124668121546,-0.0115294739141238,,
0.0100364548746166,-0.351753325987854,-0.0113966964893444,,
0.0108084898649717,-0.347203683989022,-0.011312465251712,,
0.0115805248553268,-0.342460836256322,-0.0111831226231316,,
0.0123525598456819,-0.337791733347845,-0.0110780771076784,,
0.0131245948360371,-0.332883280700402,-0.0109667544821552,,
0.0138966298263922,-0.3280066367489,-0.0108390772093077,,
0.0146686648167473,-0.322925161912325,-0.0107428708896671,,
0.0154406998071024,-0.317984757929048,-0.0106224742104719,,
0.0162127347974575,-0.312786104421102,-0.0104985973648093,,
0.0169847697878127,-0.307404515251521,-0.010350487458163,,
0.0177568047781678,-0.30212890752178,-0.0102263544039265,,
0.0185288397685229,-0.296797313634384,-0.0101260273963826,,
0.019300874758878,-0.291763337881882,-0.0099665802603246,,
0.0200729097492332,-0.286118934711083,-0.00984033615418944,,
0.0208449447395883,-0.280434521050546,-0.00968112120715192,,
0.0216169797299434,-0.274726643127756,-0.0095532304271595,,
0.0223890147202985,-0.269035311432452,-0.00940217412190902,,
0.0231610497106536,-0.263361310484039,-0.0092626258517865,,
0.0239330847010088,-0.257588531410338,-0.00911740096044023,,
0.0247051196913639,-0.251645155025671,-0.00895624309838139,,
0.025477154681719,-0.245791855732872,-0.00880614757528475,,
0.0262491896720741,-0.239741642069012,-0.0086571836400573,,
0.0270212246624292,-0.233673099179015,-0.00850179313975907,,
0.0277932596527844,-0.227707399651231,-0.00835837772146864,,
0.0285652946431395,-0.221488585634893,-0.00819852759067397,,
0.0293373296334946,-0.215221345375183,-0.00801200774860122,,
0.0301093646238497,-0.209124845066332,-0.00786849091441688,,
0.0308813996142048,-0.202676380823693,-0.00768655880712688,,
0.03165343460456,-0.196292033212558,-0.00753883321334214,,
0.0324254695949151,-0.189888429215988,-0.00737214818506082,,
0.0331975045852702,-0.183361227752902,-0.00718936738686882,,
0.0339695395756253,-0.176997776885961,-0.00702266100787297,,
0.0347415745659805,-0.170490830287556,-0.00683148404119471,,
0.0355136095563356,-0.163803016305951,-0.00667848215208355,,
0.0362856445466907,-0.157117769842404,-0.00648064910015256,,
0.0370576795370458,-0.150541785536215,-0.006343876422918,,
0.0378297145274009,-0.143827440534677,-0.00615157053720949,,
0.0386017495177561,-0.137074868042053,-0.00596951299447168,,
0.0393737845081112,-0.130344832652382,-0.00577434611301664,,
0.0401458194984663,-0.123560308823925,-0.00558342802375211,,
0.0409178544888214,-0.116782916990073,-0.00539955300144035,,
0.0416898894791765,-0.110005239876437,-0.00520641710670455,,
0.0424619244695317,-0.103013674244577,-0.00503193906762256,,
0.0432339594598868,-0.0961188897795165,-0.00483502142757697,,
0.0440059944502419,-0.0892166167201198,-0.00464630246190811,,
0.044778029440597,-0.0822038690642816,-0.00447291597810606,,
0.0455500644309522,-0.0752787023022007,-0.00427881663237706,,
0.0463220994213073,-0.0681824389895304,-0.00408349762708138,,
0.0470941344116624,-0.0612485711940307,-0.00389526972784671,,
0.0478661694020175,-0.054295803612826,-0.00366547198743516,,
0.0486382043923726,-0.0472217921233253,-0.00348279260513706,,
0.0494102393827278,-0.0401941385987613,-0.00328587763393084,,
0.0501822743730829,-0.0332010752480347,-0.00309156478105699,,
0.050954309363438,-0.0260699364817428,-0.00285322942367561,,
0.0517263443537931,-0.0190138262987023,-0.00267285591854582,,
0.0524983793441482,-0.0119783275800722,-0.00250055565234542,,
0.0532704143345034,-0.00488876834233118,-0.00225344248245607,,
0.0540424493248585,0.00219957845632684,-0.00206290603721326,,
0.0548144843152136,0.00924713024584057,-0.00185031964154714,,
0.0555865193055687,0.0164499098979461,-0.0016865596611555,,
0.0563585542959238,0.0234358412540671,-0.00146342334367544,,
0.057130589286279,0.030495018194788,-0.00127918802805649,,
0.0579026242766341,0.0374992431170725,-0.00107417846720637,,
0.0586746592669892,0.0445927249518466,-0.000878349713601345,,
0.0594466942573443,0.0517352749095075,-0.000662835601206169,,
0.0602187292476995,0.0585748220763476,-0.000465960662589193,,
0.0609907642380546,0.0655830409156112,-0.00023872500792077,,
0.0617627992284097,0.0725921155942275,-6.42042674097176E-05,,
0.0625348342187648,0.0795691676170644,0.000161472785098482,,
0.0633068692091199,0.0865725010400231,0.000356874524412909,,
0.0640789041994751,0.0934885388490088,0.00056090195239511,,
0.0648509391898302,0.100321845520569,0.000779506580717459,,
0.0656229741801853,0.107328281361181,0.000986208185693283,,
0.0663950091705404,0.114180452158473,0.00118667004434991,,
0.0671670441608955,0.120935021609587,0.00139426304165724,,
0.0679390791512507,0.127684456024585,0.00158654757665122,,
0.0687111141416058,0.134473508669617,0.00180942768555692,,
0.0694831491319609,0.141366474476053,0.00198657456395468,,
0.070255184122316,0.14797929553438,0.00220232353420968,,
0.0710272191126712,0.15463455196061,0.00238937180646692,,
0.0717992541030263,0.161279573974581,0.00260120292060728,,
0.0725712890933814,0.167843861809617,0.00280554527162824,,
0.0733433240837365,0.174345138472311,0.00298809388079979,,
0.0741153590740916,0.18103288113397,0.00318545988585095,,
0.0748873940644468,0.187464834809098,0.00339631954247999,,
0.0756594290548019,0.193888764990294,0.00360066723117969,,
0.076431464045157,0.200135536425486,0.00376956739609247,,
0.0772034990355121,0.206450775008892,0.00396547087719856,,
0.0779755340258672,0.212758631977881,0.00419263714204465,,
0.0787475690162224,0.219081216515731,0.00439519137072475,,
0.0795196040065775,0.225273820451893,0.00455378447820154,,
0.0802916389969326,0.231357126570724,0.00474740877053215,,
0.0810636739872877,0.23742531286099,0.00494601845470388,,
0.0818357089776428,0.243473529566361,0.0051135521738872,,
0.082607743967998,0.249422754186606,0.00532125726244592,,
0.0833797789583531,0.255251555077934,0.00552546083382266,,
0.0841518139487082,0.261065307460644,0.00568885251438855,,
0.0849238489390633,0.266962646820132,0.00587607693004077,,
0.0856958839294184,0.272690458667845,0.00604372274047549,,
0.0864679189197736,0.278408606662866,0.00624924471847388,,
0.0872399539101287,0.28381637025265,0.00642025860412465,,
0.0880119889004838,0.289444084556072,0.0065921959081785,,
0.0887840238908389,0.294908333543133,0.00678390931155937,,
0.0895560588811941,0.300105560652158,0.00694679925033403,,
0.0903280938715492,0.305469676434956,0.0071209943924484,,
0.0911001288619043,0.310610988706273,0.00729551513295945,,
0.0918721638522594,0.315832179317173,0.00746362532143507,,
0.0926441988426145,0.320849394882352,0.00761107869360966,,
0.0934162338329697,0.325780741232479,0.00779697936496149,,
0.0941882688233248,0.33088182905422,0.007978823400554,,
0.0949603038136799,0.335679093905761,0.00813605006230178,,
0.095732338804035,0.340352832610732,0.00829979402965719,,
0.0965043737943901,0.345094753184133,0.00844394871643805,,
0.0972764087847453,0.349755939578598,0.00860059890889309,,
0.0980484437751004,0.354535517083516,0.00877283512295035,,
0.0988204787654555,0.358648395732699,0.00892517247107216,,
0.0995925137558106,0.363174359509441,0.00905869983969909,,
0.100364548746166,0.367289235117114,0.00920836834850514,,
0.101136583736521,0.371679976276133,0.00938790116925059,,
0.101908618726876,0.375710409067675,0.0095165445619303,,
0.102680653717231,0.379607330920199,0.00963632207040455,,
0.103452688707586,0.383465454722069,0.00977875268698769,,
0.104224723697941,0.387236282909965,0.00991014498416209,,
0.104996758688296,0.391289252804461,0.01004476123923,,
0.105768793678652,0.394709472137544,0.0101719207572502,,
0.106540828669007,0.398103160450694,0.0103134813322163,,
0.107312863659362,0.401854874893047,0.0104501899573073,,
0.108084898649717,0.405214614911874,0.0105613631278287,,
0.108856933640072,0.407992098891096,0.0106899157799716,,
0.109628968630427,0.411434855327133,0.0108145986151076,,
0.110401003620782,0.414408041238334,0.0109245387818651,,
0.111173038611137,0.417341287979743,0.0110243160085099,,
0.111945073601493,0.42051331390055,0.0111584785608936,,
0.112717108591848,0.423489637889377,0.0112687550014052,,
0.113489143582203,0.425808677255349,0.011406701967938,,
0.114261178572558,0.428562197732696,0.0114708822157943,,
0.115033213562913,0.430910620916443,0.0115967873793368,,
0.115805248553268,0.433506666952897,0.0116904102625202,,
0.116577283543623,0.43566109988337,0.0117579639232708,,
0.117349318533978,0.437721961044618,0.0118587179451048,,
0.118121353524334,0.440084077658007,0.0119655996220072,,
0.118893388514689,0.441779780695445,0.0120467269995159,,
0.119665423505044,0.44385062664914,0.0121447534675698,,
0.120437458495399,0.445437923368572,0.0122558465729115,,
0.121209493485754,0.447035490160237,0.0123080063684915,,
0.121981528476109,0.448641900625212,0.0123839455223709,,
0.122753563466464,0.450272274592062,0.0124370714377831,,
0.123525598456819,0.45165131706901,0.0125255648118023,,
0.124297633447175,0.452875737902907,0.0126031746590933,,
0.12506966843753,0.453651128356433,0.0126612966417037,,
0.125841703427885,0.454912635562279,0.0127053591788004,,
0.12661373841824,0.456042058228029,0.0127675111087768,,
0.127385773408595,0.456857387851346,0.0128111946706913,,
0.12815780839895,0.457454478439731,0.0128608777833863,,
0.128929843389305,0.457695254577617,0.0129224745947849,,
0.12970187837966,0.458609291006277,0.0129860143212053,,
0.130473913370015,0.459007256305272,0.0130305465740217,,
0.131245948360371,0.459179850574728,0.0130722925585931,,
0.132017983350726,0.459427473427436,0.0131104889868747,,
0.132790018341081,0.459773232525918,0.013129058770831,,
0.133562053331436,0.459441737416648,0.013169374257529,,
0.134334088321791,0.459166727704654,0.0131969593806929,,
0.135106123312146,0.459058891946217,0.0132321880596558,,
0.135878158302501,0.458843505709126,0.0132369706197091,,
0.136650193292856,0.458253547115347,0.0132692101986387,,
0.137422228283212,0.457803375615839,0.0132801417644743,,
0.138194263273567,0.457055086741815,0.0132948951082099,,
0.138966298263922,0.456103963941206,0.0133017006484639,,
0.139738333254277,0.455438120924823,0.0132978842082432,,
0.140510368244632,0.454285020036982,0.0133214980985055,,
0.141282403234987,0.452935076098026,0.0133142602062821,,
0.142054438225342,0.451827905255446,0.0133122479014385,,
0.142826473215697,0.450871932698505,0.0132669043214704,,
0.143598508206053,0.449266948632451,0.0132660236044964,,
0.144370543196408,0.447233474330489,0.0132693383029259,,
0.145142578186763,0.445853290734405,0.0132262525610183,,
0.145914613177118,0.444412057264496,0.0132123105444348,,
0.146686648167473,0.442298134063383,0.0132094068472597,,
0.147458683157828,0.440660913381712,0.0131744770783002,,
0.148230718148183,0.438222912345718,0.0131676234989384,,
0.149002753138538,0.436156630868571,0.013106496403259,,
0.149774788128894,0.433808778244393,0.0130987247431724,,
0.150546823119249,0.431735079492855,0.0130690899514145,,
0.151318858109604,0.42901750426832,0.0130248299202083,,
0.152090893099959,0.426485646183317,0.0129814452682977,,
0.152862928090314,0.424104701104168,0.012930267605586,,
0.153634963080669,0.421454166628927,0.0128845557257922,,
0.154406998071024,0.418191421736736,0.0128546860761745,,
0.155179033061379,0.415585390907834,0.0127381111748788,,
0.155951068051734,0.412263307820525,0.012707131288106,,
0.15672310304209,0.408907846998461,0.012617970704258,,
0.157495138032445,0.405956057071077,0.0125798810295485,,
0.1582671730228,0.402736389426305,0.0125436328539674,,
0.159039208013155,0.399220316085722,0.0124466312202105,,
0.15981124300351,0.395747890552126,0.0123647298793004,,
0.160583277993865,0.391909165775583,0.0122952813426358,,
0.16135531298422,0.388196534663669,0.0122105563697295,,
0.162127347974575,0.384400887134545,0.0121450310268587,,
0.162899382964931,0.380577567466351,0.0120483122900694,,
0.163671417955286,0.376631292211156,0.0119505900696977,,
0.164443452945641,0.372623111242784,0.0118689449373615,,
0.165215487935996,0.368107132258489,0.0117848017714262,,
0.165987522926351,0.36414573717473,0.0116881257360659,,
0.166759557916706,0.359887365835592,0.0115820927500661,,
0.167531592907061,0.355252425181276,0.0114757288279912,,
0.168303627897416,0.350815753976996,0.0113835150919663,,
0.169075662887772,0.346223034730745,0.0112585280091486,,
0.169847697878127,0.341661696260759,0.0111599517601957,,
0.170619732868482,0.336969984929382,0.0110357760045301,,
0.171391767858837,0.33207543967142,0.0109289583797714,,
0.172163802849192,0.326934412679888,0.0108079425298548,,
0.172935837839547,0.322135721429426,0.0107009113979508,,
0.173707872829902,0.317243173129954,0.0105815395530531,,
0.174479907820257,0.311915002599969,0.0104724374018401,,
0.175251942810613,0.306985938488116,0.0103432228775469,,
0.176023977800968,0.301417562379813,0.0101982728766501,,
0.176796012791323,0.296213809495723,0.0100656635887479,,
0.177568047781678,0.290639977411547,0.00992267785358703,,
0.178340082772033,0.285263594598028,0.00977629735481766,,
0.179112117762388,0.279715758634189,0.0096284009553167,,
0.179884152752743,0.273807899582657,0.00950315766392462,,
0.180656187743098,0.268216415811832,0.00936518934667685,,
0.181428222733453,0.262590413187115,0.00922854477372947,,
0.182200257723809,0.256699956202421,0.00907968759207511,,
0.182972292714164,0.250826936944538,0.00889878298792146,,
0.183744327704519,0.244843122150456,0.00874815369696202,,
0.184516362694874,0.238881131259868,0.00861793568908586,,
0.185288397685229,0.232874529743021,0.00846446675309442,,
0.186060432675584,0.226808910970812,0.00830343966416214,,
0.186832467665939,0.220674254490821,0.00811617788475916,,
0.187604502656294,0.214332770167266,0.0079750816878339,,
0.18837653764665,0.20813364045604,0.00782979007550466,,
0.189148572637005,0.201704289958943,0.00766513870278196,,
0.18992060762736,0.195405027043454,0.0074867748336569,,
0.190692642617715,0.188978244064415,0.00731793338320896,,
0.19146467760807,0.182479000020184,0.00716094157932101,,
0.192236712598425,0.176067051589925,0.00695682874848114,,
0.19300874758878,0.169426879332286,0.0067913180094985,,
0.193780782579135,0.163001808031952,0.00661005044319829,,
0.194552817569491,0.156307717895094,0.00644129439560848,,
0.195324852559846,0.14961590999651,0.00625697367713141,,
0.196096887550201,0.142908090770036,0.0060644062451698,,
0.196868922540556,0.136182976456644,0.0058854498937162,,
0.197640957530911,0.12927061162488,0.0057072781810219,,
0.198412992521266,0.122575950928454,0.00552864209028625,,
0.199185027511621,0.115722639012025,0.0053387007962109,,
0.199957062501976,0.108962720564957,0.00516134041066829,,
0.200729097492332,0.102091436022121,0.00499620864686889,,
0.201501132482687,0.0950546892044353,0.00478648591578779,,
0.202273167473042,0.0882208476332797,0.00459227981648658,,
0.203045202463397,0.0812831642206659,0.00442126059315706,,
0.203817237453752,0.0743331424573844,0.00421234385154934,,
0.204589272444107,0.0673158303249986,0.00403000874952308,,
0.205361307434462,0.0603310044280415,0.00381043266368986,,
0.206133342424817,0.0532880527750484,0.00361046187146696,,
0.206905377415172,0.0462302309133025,0.00341521492483299,,
0.207677412405528,0.0392126335011325,0.00324169766790439,,
0.208449447395883,0.0321448268469388,0.00303666675633973,,
0.209221482386238,0.0251280852741214,0.0028252306304184,,
0.209993517376593,0.0181190462554782,0.00260867033301171,,
0.210765552366948,0.0109667967851536,0.00242805930118273,,
0.211537587357303,0.00394349377729905,0.00222873436807447,,
0.212309622347658,-0.00316139924884406,0.00202861412085031,,
0.213081657338013,-0.0102340556593697,0.00183220889795299,,
0.213853692328369,-0.0174088422326481,0.00162265163490982,,
0.214625727318724,-0.0243873563143792,0.0014279331184599,,
0.215397762309079,-0.031457730486631,0.00124321207408551,,
0.216169797299434,-0.0384875949295227,0.00103303030264223,,
0.216941832289789,-0.0455642452570275,0.000826179242664704,,
0.217713867280144,-0.0526032386530144,0.000632832509622983,,
0.218485902270499,-0.0595665615862355,0.000410550220723671,,
0.219257937260854,-0.0665462881070495,0.000232399858743904,,
0.22002997225121,-0.0735778642286466,1.57141258889659E-05,,
0.220802007241565,-0.080617428184202,-0.000217096734109301,,
0.22157404223192,-0.0875183461646237,-0.000388585673158026,,
0.222346077222275,-0.0944803140188697,-0.00061686751283796,,
0.22311811221263,-0.101330166917915,-0.000816881006489467,,
0.223890147202985,-0.108376577588292,-0.00100867447504971,,
0.22466218219334,-0.115185920757977,-0.00120874935200543,,
0.225434217183695,-0.121913103349805,-0.00140966224450656,,
0.22620625217405,-0.128689140104682,-0.00162699116763632,,
0.226978287164406,-0.135594479921759,-0.0018448752093434,,
0.227750322154761,-0.142268172554045,-0.00203006863827682,,
0.228522357145116,-0.149004127499238,-0.00220542472549345,,
0.229294392135471,-0.155527049765561,-0.00243571353233873,,
0.230066427125826,-0.162211440389755,-0.00263591918242101,,
0.230838462116181,-0.168833354741204,-0.00283676802277855,,
0.231610497106536,-0.175362767122617,-0.0030329570696912,,
0.232382532096891,-0.181755958407063,-0.0032172751193289,,
0.233154567087247,-0.188381866675491,-0.00341509215822411,,
0.233926602077602,-0.194855435539143,-0.00361735014573972,,
0.234698637067957,-0.201108197849803,-0.00377275932791354,,
0.235470672058312,-0.207280511261313,-0.00399890342730203,,
0.236242707048667,-0.213884666946193,-0.00420555966200942,,
0.237014742039022,-0.220041076009732,-0.00438275191067516,,
0.237786777029377,-0.22612894660511,-0.00458733178839532,,
0.238558812019732,-0.232326293317685,-0.00478347813387892,,
0.239330847010088,-0.238337851570783,-0.00496780152119536,,
0.240102882000443,-0.244285007912591,-0.00514821505891483,,
0.240874916990798,-0.250405043803641,-0.00534225035250024,,
0.241646951981153,-0.256222540483519,-0.00550066998542142,,
0.242418986971508,-0.262044815599783,-0.00569607439357567,,
0.243191021961863,-0.267613191708086,-0.00588981077715722,,
0.243963056952218,-0.273225786182944,-0.00606785171672541,,
0.244735091942573,-0.279184710315853,-0.0062579157774092,,
0.245507126932929,-0.28473853715516,-0.00644411802760381,,
0.246279161923284,-0.290126616439832,-0.00659438435641668,,
0.247051196913639,-0.295681299118493,-0.0067821852413612,,
0.247823231903994,-0.301057681932012,-0.00694515257647588,,
0.248595266894349,-0.306320238111625,-0.00713443199840125,,
0.249367301884704,-0.311575091737064,-0.00729007603843446,,
0.250139336875059,-0.316523554874244,-0.00747285950546583,,
0.250911371865414,-0.322072817237004,-0.00761182863745713,,
0.25168340685577,-0.326589081501082,-0.00781314719353388,,
0.252455441846125,-0.331737811046789,-0.00796091548874767,,
0.25322747683648,-0.336642626376983,-0.00809781627026895,,
0.253999511826835,-0.341478974558963,-0.00828017005417081,,
0.25477154681719,-0.346224318489774,-0.00844929440158637,,
0.255543581807545,-0.350822172772141,-0.00860850401094515,,
0.2563156167979,-0.355376664527306,-0.00875437209256624,,
0.257087651788255,-0.359698082698758,-0.00889496387886091,,
0.25785968677861,-0.364311912649042,-0.00905693306807187,,
0.258631721768966,-0.368476712218954,-0.00921279595292912,,
0.259403756759321,-0.372309446120027,-0.00937937155879842,,
0.260175791749676,-0.3764189014118,-0.00950510591662423,,
0.260947826740031,-0.380565157795737,-0.00963280187134741,,
