Time domain (s),Current (AC) (A),Potential (AC) (V),Frequency (Hz),Column 5
0,0.365294564684515,0.00613147399794745,316.23,0.4
9.88204787654555E-05,0.372730942174599,0.00645555241160878,,
0.000197640957530911,0.366157238815042,0.00645872256473412,,
0.000296461436296367,0.345193999788723,0.00628961391643434,,
0.000395281915061822,0.311218739774337,0.00583827287572358,,
0.000494102393827278,0.265442903410245,0.00519600936305986,,
0.000592922872592733,0.209502831037437,0.00431563564917825,,
0.000691743351358189,0.145039518345352,0.0032727567159565,,
0.000790563830123644,0.0753821836125644,0.00214908960049787,,
0.0008893843088891,0.00308693520668459,0.000899898686978151,,
0.000988204787654555,-0.0703209122000111,-0.000370789034881636,,
0.00108702526642001,-0.140867711276109,-0.00160358550151507,,
0.00118584574518547,-0.205855204492183,-0.00283631856508615,,
0.00128466622395092,-0.262637104403714,-0.00391268699592029,,
0.00138348670271638,-0.309394135970841,-0.00482200103768005,,
0.00148230718148183,-0.344136972180106,-0.00558066940293989,,
0.00158112766024729,-0.365936182960933,-0.00609434833470068,,
0.00167994813901274,-0.373412379783678,-0.00644825154896234,,
0.0017787686177782,-0.366655507493881,-0.00647893863121229,,
0.00187758909654365,-0.345644719499738,-0.00624433303427363,,
0.00197640957530911,-0.311304292781715,-0.00579826871343947,,
0.00207523005407457,-0.265347161338332,-0.00512428147845378,,
0.00217405053284002,-0.209084318139603,-0.00431467509278161,,
0.00227287101160548,-0.144722222677672,-0.0032875327996722,,
0.00237169149037093,-0.0747440202488334,-0.00211949622107621,,
0.00247051196913639,-0.00249670143675179,-0.000904592098680101,,
0.00256933244790184,0.0705167296241547,0.000372117329040744,,
0.0026681529266673,0.14113704807107,0.00163031306251193,,
0.00276697340543275,0.205894496804264,0.00282952809709247,,
0.00286579388419821,0.262600505752371,0.00390285635107945,,
0.00296461436296367,0.309164999134515,0.00482289819101434,,
0.00306343484172912,0.343734972593759,0.00558662929081466,,
0.00316225532049458,0.365111161522907,0.00612853209584729,,
0.00326107579926003,0.372707753269109,0.00643872840897464,,
0.00335989627802549,0.366121869878385,0.0064987806196215,,
0.00345871675679094,0.345215314843265,0.00627290086915933,,
0.0035575372355564,0.311448052284189,0.00579981257801121,,
0.00365635771432185,0.265540343659579,0.00518831540142539,,
0.00375517819308731,0.209320599032671,0.00431449439405318,,
0.00385399867185277,0.145354823046399,0.00327265527105647,,
0.00395281915061822,0.0753360400329517,0.0021056680131446,,
0.00405163962938368,0.00308948247281804,0.000892516985426806,,
0.00415046010814913,-0.0702359447710541,-0.000361251629205306,,
0.00424928058691459,-0.140886215554228,-0.00162666421626501,,
0.00434810106568004,-0.20585239371576,-0.0028251596260862,,
0.0044469215444455,-0.262561681903027,-0.00390173094672042,,
0.00454574202321095,-0.309448536206197,-0.00486025844559235,,
0.00464456250197641,-0.343902740811513,-0.00557392331708995,,
0.00474338298074187,-0.365797049527989,-0.00611273680790259,,
0.00484220345950732,-0.373320092624452,-0.00641340522581224,,
0.00494102393827278,-0.36688417586747,-0.00646193392984973,,
0.00503984441703823,-0.345721547388636,-0.00623525530080027,,
0.00513866489580369,-0.311668288328509,-0.00584339742824991,,
0.00523748537456914,-0.265282045017864,-0.00518730412257895,,
0.0053363058533346,-0.209030679156196,-0.00429724083567073,,
0.00543512633210005,-0.144762451915228,-0.00328703825578502,,
0.00553394681086551,-0.0748453838735919,-0.00213586689181344,,
0.00563276728963096,-0.00243650397502344,-0.000903920026217531,,
0.00573158776839642,0.0704752706719138,0.000363545234991047,,
0.00583040824716188,0.14104356047608,0.00162266665317423,,
0.00592922872592733,0.205995216292759,0.00284200898994547,,
0.00602804920469279,0.262608235387535,0.00388227888714532,,
0.00612686968345824,0.309099882814046,0.00486297209666731,,
0.0062256901622237,0.343786035032112,0.00561116627600233,,
0.00632451064098915,0.365236006842367,0.00612636054095672,,
0.00642333111975461,0.372884597952396,0.00643105663841226,,
0.00652215159852006,0.365821116801112,0.00644685668158695,,
0.00662097207728552,0.345287223873423,0.00626065139748455,,
0.00671979255605098,0.311379422493192,0.00585102957189854,,
0.00681861303481643,0.265686504033581,0.0051943482028225,,
0.00691743351358189,0.209503767962911,0.00431899601149066,,
0.00701625399234734,0.145181023370903,0.00328302801208169,,
0.0071150744711128,0.0754128679218501,0.00213813038114452,,
0.00721389494987825,0.00306043778311253,0.000905210278539403,,
0.00731271542864371,-0.0702436744062176,-0.000367073615419322,,
0.00741153590740916,-0.140896755965814,-0.00162525666827751,,
0.00751035638617462,-0.205680702122581,-0.00282626283937404,,
0.00760917686494007,-0.262628906305813,-0.00390680477679695,,
0.00770799734370553,-0.309319650395628,-0.00485551589651756,,
0.00780681782247099,-0.344318442932923,-0.00558787199084021,,
0.00790563830123644,-0.365915336369128,-0.00612960043745092,,
0.0080044587800019,-0.373482180731519,-0.00643960495631379,,
0.00810327925876735,-0.366859347342399,-0.00647228289472634,,
0.00820209973753281,-0.345697128768461,-0.00625956403496275,,
0.00830092021629826,-0.311296094683815,-0.00577511391501462,,
0.00839974069506372,-0.265328891291582,-0.0051677252568787,,
0.00849856117382918,-0.209012584782972,-0.00430058693229407,,
0.00859738165259463,-0.144794600170567,-0.00329709398149713,,
0.00869620213136009,-0.0747512814212597,-0.00212159961767444,,
0.00879502261012554,-0.00248712722956056,-0.000879370360417742,,
0.008893843088891,0.070441775586205,0.000411452589015759,,
0.00899266356765645,0.141133973784357,0.00163865690553688,,
0.00909148404642191,0.20590336831735,0.0028120193413832,,
0.00919030452518736,0.262834268658227,0.00391606954930479,,
0.00928912500395282,0.309413050153855,0.00485547468452641,,
0.00938794548271828,0.343690234402358,0.0055985839382493,,
0.00948676596148373,0.365154025863359,0.00610090104121008,,
0.00958558644024919,0.372469071504513,0.00641210863318431,,
0.00968440691901464,0.366371092054567,0.00646090363008378,,
0.0097832273977801,0.345343439401886,0.00629986936179394,,
0.00988204787654555,0.311367710924762,0.00583071523067336,,
0.00998086835531101,0.265529100553887,0.00515652510588804,,
0.0100796888340765,0.209331842138364,0.00431180610420334,,
0.0101785093128419,0.145358834258586,0.0032682931403567,,
0.0102773297916074,0.0753013445114789,0.00211942964786038,,
0.0103761502703728,0.00300351956054448,0.00088630348530172,,
0.0104749707491383,-0.070142662128512,-0.000399496356505047,,
0.0105737912279037,-0.140779874512887,-0.0016458753442028,,
0.0106726117066692,-0.205818195935945,-0.00282202751479899,,
0.0107714321854347,-0.262454872398948,-0.00389957682767195,,
0.0108702526642001,-0.309337920442379,-0.00483508742977978,,
0.0109690731429656,-0.344227326930541,-0.00560327893502732,,
0.011067893621731,-0.365981682404282,-0.00612954971500068,,
0.0111667141004965,-0.373215859665429,-0.00641210070780129,,
0.0112655345792619,-0.366243494516527,-0.00643919759163714,,
0.0113643550580274,-0.345558522356096,-0.00626560000651288,,
0.0114631755367928,-0.311712792288541,-0.0058360426730002,,
0.0115619960155583,-0.265489574010437,-0.005167319477279,,
0.0116608164943238,-0.209056913069478,-0.00427811688694435,,
0.0117596369730892,-0.144754078143801,-0.00323977761299732,,
0.0118584574518547,-0.0748868428258328,-0.00212919688963842,,
0.0119572779306201,-0.00250911569928721,-0.000900648428192596,,
0.0120560984093856,0.0705223511770009,0.00037239788759269,,
0.012154918888151,0.141174495811123,0.00163775658204957,,
0.0122537393669165,0.205943656112748,0.00284274129531736,,
0.0123525598456819,0.262681784037273,0.0039428763641296,,
0.0124513803244474,0.30900431641566,0.00482916241358922,,
0.0125502008032129,0.34395444738613,0.00559691009739938,,
0.0126490212819783,0.365361789087301,0.00613210802857234,,
0.0127478417607438,0.372852039792162,0.00641452111971219,,
0.0128466622395092,0.366090248643625,0.00648371605197129,,
0.0129454827182747,0.345173621659656,0.00627202590689713,,
0.0130443031970401,0.311527690949511,0.00583515344504848,,
0.0131431236758056,0.265461407688364,0.00519341300765053,,
0.013241944154571,0.209453173987295,0.00432129120235336,,
0.0133407646333365,0.145073979635456,0.00325396404823186,,
0.013439585112102,0.0753493912209615,0.00213369216676984,,
0.0135384055908674,0.00310517597451375,0.000898667082489091,,
0.0136372260696329,-0.0702071343127172,-0.000365666067431825,,
0.0137360465483983,-0.140981372047719,-0.0016426417880151,,
0.0138348670271638,-0.205796646650035,-0.00283139848743641,,
0.0139336875059292,-0.262733197822679,-0.00390601857882178,,
0.0140325079846947,-0.309435126460345,-0.00484500525383158,,
0.0141313284634601,-0.344282195628634,-0.00557772908591669,,
0.0142301489422256,-0.365983556255231,-0.00611808644130063,,
0.0143289694209911,-0.373232490092599,-0.00641689397932632,,
0.0144277898997565,-0.366909882760173,-0.00647574311686228,,
0.014526610378522,-0.34538636230018,-0.00629425819076257,,
0.0146254308572874,-0.311506902915548,-0.0058282710426143,,
0.0147242513360529,-0.265076389876239,-0.00516056229589301,,
0.0148230718148183,-0.209001166003753,-0.00428898575693326,,
0.0149218922935838,-0.144913062685233,-0.0032894333064708,,
0.0150207127723492,-0.0748500685009637,-0.00213901168371367,,
0.0151195332511147,-0.0024110020347679,-0.000895257582803399,,
0.0152183537298802,0.0703944901286703,0.000349152739803404,,
0.0153171742086456,0.141125775686456,0.00165034843026168,,
0.0154159946874111,0.205898917921347,0.00281489467026752,,
0.0155148151661765,0.262477300052491,0.00387867442304213,,
0.015613635644942,0.309117215935322,0.00484865251500155,,
0.0157124561237074,0.343995203644265,0.00560658540473646,,
0.0158112766024729,0.36536694217741,0.00611319806518207,,
0.0159100970812383,0.372725554853122,0.00642267475354963,,
0.0160089175600038,0.365686433764171,0.00646145206657467,,
0.0161077380387693,0.345210864447262,0.0062659740845814,,
0.0162065585175347,0.31145789000167,0.0058558608852608,,
0.0163053789963002,0.265510127813031,0.00518938057287555,,
0.0164041994750656,0.209332310601101,0.00430301843974101,,
0.0165030199538311,0.145182662990483,0.00330335820407202,,
0.0166018404325965,0.0753702378127662,0.0021276213235355,,
0.016700660911362,0.00303935695993918,0.000914162790964124,,
0.0167994813901274,-0.070271079476343,-0.000377636565631612,,
0.0168983018688929,-0.140944539165007,-0.00162133835901512,,
0.0169971223476584,-0.205769475811278,-0.00283970428862368,,
0.0170959428264238,-0.26282917412596,-0.00390657494069524,,
0.0171947633051893,-0.309336280822799,-0.00484660142593007,,
0.0172935837839547,-0.344087783592702,-0.0055976107012401,,
0.0173924042627202,-0.365876922424679,-0.00613187026708806,,
0.0174912247414856,-0.373289642546535,-0.00642830653057658,,
0.0175900452202511,-0.366454771210997,-0.00646770360853699,,
0.0176888656990165,-0.345844284625779,-0.00627313229033799,,
0.017787686177782,-0.31161816281563,-0.00580934998368754,,
0.0178865066565474,-0.265379485267198,-0.00517750200911626,,
0.0179853271353129,-0.209117578993943,-0.00432859840530675,,
0.0180841476140784,-0.144667412537421,-0.00327467465859721,,
0.0181829680928438,-0.0748266453641045,-0.00213500461016336,,
0.0182817885716093,-0.0025257461264573,-0.000897806385915967,,
0.0183806090503747,0.0704483340645256,0.000367869323853576,,
0.0184794295291402,0.141067686307045,0.00162771353694957,,
0.0185782500079056,0.205748775614079,0.00283629954416753,,
0.0186770704866711,0.262917186562709,0.003914690532695,,
0.0187758909654366,0.309035469187683,0.00485889844990162,,
0.018874711444202,0.343831710148988,0.00559478292465254,,
0.0189735319229675,0.365142080063561,0.00609338143799754,,
0.0190723524017329,0.372806598906655,0.0064384716265713,,
0.0191711728804984,0.366108284459006,0.00647737574572149,,
0.0192699933592638,0.345425420380893,0.00628091501625949,,
0.0193688138380293,0.311421584139538,0.00583753740019866,,
0.0194676343167947,0.265532379793047,0.00516319510806307,,
0.0195664547955602,0.209510794903969,0.00432485445446584,,
0.0196652752743256,0.145281713580477,0.00330490523879723,,
0.0197640957530911,0.0752694890453502,0.00212632790106015,,
0.0198629162318566,0.00307074396333061,0.000885999150601613,,
0.019961736710622,-0.0702045577676626,-0.000347875168094092,,
0.0200605571893875,-0.14104736673582,-0.00166270251698997,,
0.0201593776681529,-0.205813511308573,-0.00283401069361133,,
0.0202581981469184,-0.262527718354581,-0.00389934857664676,,
0.0203570186256838,-0.309327672820003,-0.00485084943111724,,
0.0204558391044493,-0.344405401328513,-0.00562093193270385,,
0.0205546595832148,-0.365903449127172,-0.00612029286787585,,
0.0206534800619802,-0.373334380737937,-0.00641671486567486,,
0.0207523005407457,-0.366522054171626,-0.00643430287521207,,
0.0208511210195111,-0.345716394298527,-0.00627647997203784,,
0.0209499414982766,-0.311468488971099,-0.00582299590781421,,
0.021048761977042,-0.265576239616816,-0.00517623394786648,,
0.0211475824558075,-0.209045377174575,-0.00430451950724553,,
0.0212464029345729,-0.144645160557405,-0.00327515652187227,,
0.0213452234133384,-0.0748812212729866,-0.00212846141411349,,
0.0214440438921038,-0.00247819715863296,-0.000925958930742432,,
0.0215428643708693,0.0704738652837022,0.000345018860128388,,
0.0216416848496348,0.141063235911042,0.00162934933596182,,
0.0217405053284002,0.206035709040605,0.00284145104299549,,
0.0218393258071657,0.262681549805904,0.00390469503989221,,
0.0219381462859311,0.309125179801854,0.00482301231652649,,
0.0220369667646966,0.343881835661866,0.00559009109802755,,
0.022135787243462,0.365378419514471,0.00612614497054453,,
0.0222346077222275,0.372900291454092,0.00642492873242162,,
0.0223334282009929,0.365844539937971,0.0064552005246119,,
0.0224322486797584,0.345603436221024,0.0062635932995847,,
0.0225310691585239,0.311579221850601,0.00580885385472341,,
0.0226298896372893,0.265526289777464,0.00517224906538827,,
0.0227287101160548,0.209448020897186,0.00431408861445348,,
0.0228275305948202,0.145224356174093,0.00326441287293155,,
0.0229263510735857,0.0753208149939931,0.00212860724115727,,
0.0230251715523511,0.00310306789219642,0.00091383309503934,,
0.0231239920311166,-0.0702204855007269,-0.000376254378869234,,
0.023222812509882,-0.141041569509447,-0.0016308361377777,,
0.0233216329886475,-0.20591727580486,-0.00284658986121133,,
0.023420453467413,-0.262527718354581,-0.00390710752642054,,
0.0235192739461784,-0.309246570208628,-0.00485573146692975,,
0.0236180944249439,-0.344011658397909,-0.00559192978683987,,
0.0237169149037093,-0.36570359121192,-0.00610674997372573,,
0.0238157353824748,-0.373274417507577,-0.00642272706107638,,
0.0239145558612402,-0.366557423108283,-0.00646837568099956,,
0.0240133763400057,-0.345656431068168,-0.0062804870455877,,
0.0241121968187711,-0.311401264568313,-0.00581782221791416,,
0.0242110172975366,-0.265385341051413,-0.00516763649259122,,
0.0243098377763021,-0.209000697541016,-0.00431724925711885,,
0.0244086582550675,-0.144815680993741,-0.00327922699848493,,
0.024507478733833,-0.0748372443335333,-0.00211720103021351,,
0.0246062992125984,-0.00244727861797871,-0.000902055976180094,,
0.0247051196913639,0.0704368567274645,0.000359387579167425,,
0.0248039401701293,0.141280602621096,0.0016702950337244,,
0.0249027606488948,0.205968045454002,0.00281499611516756,,
0.0250015811276602,0.262689513672436,0.00388684073749213,,
0.0251004016064257,0.30932732147295,0.00485920278460172,,
0.0251992220851912,0.343801728533808,0.00560629692080239,,
0.0252980425639566,0.36531869051548,0.00614874182201941,,
0.0253968630427221,0.372631628074316,0.00641126220229982,,
0.0254956835214875,0.365984376065021,0.00649885987344945,,
0.025594504000253,0.345416753820255,0.00626980679970934,,
0.0256933244790184,0.31127308145185,0.00583082935618595,,
0.0257921449577839,0.265415264108751,0.0051695861367631,,
0.0258909654365493,0.209248924233882,0.00430140800195344,,
0.0259897859153148,0.145139798650031,0.00329426303475655,,
0.0260886063940803,0.0754465972389275,0.00214584336369761,,
0.0261874268728457,0.00301851036813442,0.000884921298539343,,
0.0262862473516112,-0.0701649726663705,-0.000385955047431441,,
0.0263850678303766,-0.140827189249342,-0.00164116925188873,,
0.0264838883091421,-0.20581070053215,-0.0028266305771365,,
0.0265827087879075,-0.26246962897517,-0.00389974009055782,,
0.026681529266673,-0.309286858004026,-0.00484849083719219,,
0.0267803497454384,-0.344251979782085,-0.00558878499494009,,
0.0268791702242039,-0.365858886609297,-0.00612838309865094,,
0.0269779907029694,-0.373332272655619,-0.00644224252371384,,
0.0270768111817348,-0.366370682149672,-0.00644019936002493,,
0.0271756316605003,-0.345772375595621,-0.00624198712096113,,
0.0272744521392657,-0.311595208141508,-0.00582257744760195,,
0.0273732726180312,-0.265571554989444,-0.00517963235201613,,
0.0274720930967966,-0.209062534622324,-0.00429176122599406,,
0.0275709135755621,-0.144736510791156,-0.00329155255383506,,
0.0276697340543275,-0.0747908079647098,-0.00214547879608862,,
0.027768554533093,-0.00251965611087389,-0.000899101393467383,,
0.0278673750118585,0.0705816117132549,0.000385685584415985,,
0.0279661954906239,0.141124604529613,0.00160772889164962,,
0.0280650159693894,0.20589519949837,0.00283835697354551,,
0.0281638364481548,0.262709189107398,0.00393145430242026,,
0.0282626569269203,0.309122369025431,0.00484528264222961,,
0.0283614774056857,0.343835223619516,0.00559755680863683,,
0.0284602978844512,0.365151215086936,0.00612784417261958,,
0.0285591183632166,0.372531377048558,0.0064609289913089,,
0.0286579388419821,0.366002411880402,0.00650172252172121,,
0.0287567593207476,0.34529776428501,0.00629417893693462,,
0.028855579799513,0.311595618046403,0.00582509771933593,,
0.0289544002782785,0.265525821314727,0.0051647548234004,,
0.0290532207570439,0.209585543989471,0.00435299273360323,,
0.0291520412358094,0.145128760496786,0.00330172240505977,,
0.0292508617145748,0.0753041845668231,0.00211226193164471,,
0.0293496821933403,0.00310611289998813,0.000925828954464247,,
0.0294485026721057,-0.0701874588777553,-0.000362724165331674,,
0.0295473231508712,-0.140964448831338,-0.0016435405264259,,
0.0296461436296367,-0.2056343243116,-0.0028109319788614,,
0.0297449641084021,-0.262472205520224,-0.00390703144274518,,
0.0298437845871676,-0.309461360373627,-0.00485735458532988,,
0.029942605065933,-0.344155242226856,-0.00557897020086484,,
0.0300414255446985,-0.365649952228512,-0.00611633651677579,,
0.0301402460234639,-0.373474451096355,-0.00638326340990014,,
0.0302390665022294,-0.366179549352901,-0.00645688704607483,,
0.0303378869809948,-0.34555073416309,-0.00625807881822382,,
0.0304367074597603,-0.311135646196329,-0.00583415484681415,,
0.0305355279385258,-0.265486529002645,-0.00516834660689147,,
0.0306343484172912,-0.208920766086483,-0.00429826638020669,,
0.0307331688960567,-0.144771879727814,-0.00330870942254746,,
0.0308319893748221,-0.0749386079582918,-0.0021246572303637,,
0.0309308098535876,-0.0024507920885076,-0.000900938497203629,,
0.031029630332353,0.0704314694059869,0.00036336929149261,,
0.0311284508111185,0.141225324018108,0.00161065811313676,,
0.0312272712898839,0.205822119311369,0.00284312488384542,,
0.0313260917686494,0.262492056628713,0.00389539064047018,,
0.0314249122474149,0.309106207060998,0.00483275102692682,,
0.0315237327261803,0.343741296840711,0.00556517052431182,,
0.0316225532049458,0.365545192248909,0.00614946778708481,,
0.0317213736837112,0.372769356119049,0.00643757447323701,,
0.0318201941624767,0.365840558004705,0.00646559545670877,,
0.0319190146412421,0.345318142414077,0.00626748307746894,,
0.0320178351200076,0.311566339125329,0.0058415191125234,,
0.032116655598773,0.26554198327916,0.00518036465738803,,
0.0322154760775385,0.209208899948774,0.00430906709190326,,
0.032314296556304,0.145221047656012,0.00327030935774397,,
0.0324131170350694,0.075455498030934,0.00215726859556042,,
0.0325119375138349,0.00310002288440471,0.000903498395851798,,
