Time domain (s),Current (AC) (A),Potential (AC) (V),Frequency (Hz),Column 5
0,-0.132078528119939,-0.00490697767243287,0.63096,0.3
0.00386935186065678,-0.128137151237765,-0.0048146909157496,,
0.00773870372131355,-0.124210476302747,-0.00467321376233265,,
0.0116080555819703,-0.120295276058193,-0.00456068131375398,,
0.0154774074426271,-0.116411631212413,-0.00443779672459232,,
0.0193467593032839,-0.112362903222192,-0.00433400268665896,,
0.0232161111639407,-0.108304224523834,-0.00420944290714287,,
0.0270854630245974,-0.104278580383568,-0.00406385420938449,,
0.0309548148852542,-0.100169251684337,-0.00392726709893143,,
0.034824166745911,-0.0961299365261361,-0.00382098785385843,,
0.0386935186065678,-0.092047994685784,-0.00370191223467531,,
0.0425628704672245,-0.087893260277804,-0.00354782466430903,,
0.0464322223278813,-0.0837006952497023,-0.0034400467305935,,
0.0503015741885381,-0.0795741096917656,-0.00331292925216342,,
0.0541709260491949,-0.0753030147508042,-0.00316257343227644,,
0.0580402779098517,-0.0710828387487746,-0.00305231029142172,,
0.0619096297705084,-0.0667816675683562,-0.00291754020305568,,
0.0657789816311652,-0.0625340150614277,-0.00279215937539812,,
0.069648333491822,-0.0583020057848576,-0.00266483860481781,,
0.0735176853524788,-0.0540037032770551,-0.00251733517866715,,
0.0773870372131355,-0.0496918193973367,-0.00239089376483026,,
0.0812563890737923,-0.045408039544652,-0.00225696836322831,,
0.0851257409344491,-0.0411132332316,-0.00211256474839239,,
0.0889950927951059,-0.0367188301911657,-0.00194860568942712,,
0.0928644446557626,-0.0323866414880881,-0.00183550748982508,,
0.0967337965164194,-0.0280277830942848,-0.00170978784191655,,
0.100603148377076,-0.0236855540370516,-0.00159063500323464,,
0.104472500237733,-0.0193585199800807,-0.00141615202969936,,
0.10834185209839,-0.0149615620280978,-0.00128537686847263,,
0.112211203959047,-0.0105796646073482,-0.00114817200202788,,
0.116080555819703,-0.00620493886813833,-0.00100495347011442,,
0.11994990768036,-0.00182268286331178,-0.000883696794063304,,
0.123819259541017,0.00254036648189128,-0.00076179557158218,,
0.127688611401674,0.00691403888037501,-0.000582673124478017,,
0.13155796326233,0.0113083074517805,-0.000432823171104602,,
0.135427315122987,0.0156668969075261,-0.000364794368445942,,
0.139296666983644,0.0200130928011109,-0.000200836885388522,,
0.143166018844301,0.0243810278543629,-4.80021619946314E-05,,
0.147035370704958,0.028704117486487,8.35704087513989E-05,,
0.150904722565614,0.0330700579158107,0.000262744860824782,,
0.154774074426271,0.0374090821278558,0.00039590279516144,,
0.158643426286928,0.0417397244371014,0.000517008184031109,,
0.162512778147585,0.0460929575431971,0.000684029232516092,,
0.166382130008241,0.0503916410465814,0.000809395877000352,,
0.170251481868898,0.054681382359546,0.00092065183998491,,
0.174120833729555,0.05894978791993,0.00106155378692963,,
0.177990185590212,0.0632029536570421,0.00120531758305997,,
0.181859537450869,0.0674781947263936,0.0013518864956823,,
0.185728889311525,0.0716933281398406,0.001474050894823,,
0.189598241172182,0.0759045619514504,0.00158450314465508,,
0.193467593032839,0.0801019678645915,0.0017564630892557,,
0.197336944893496,0.0842882352598412,0.00187130266735425,,
0.201206296754152,0.08842288895951,0.00203688018398118,,
0.205075648614809,0.0926477265545404,0.00215369595088921,,
0.208945000475466,0.0966651008495305,0.00231876287327815,,
0.212814352336123,0.100820036961054,0.00243869578649036,,
0.21668370419678,0.105020490838849,0.00254628618713726,,
0.220553056057436,0.108919554799939,0.00270140597733626,,
0.224422407918093,0.112918843010546,0.00283115995008698,,
0.22829175977875,0.116914926375966,0.00296096435189863,,
0.232161111639407,0.120891959962295,0.00308224624248021,,
0.236030463500063,0.124908818792674,0.00322347282650215,,
0.23989981536072,0.128671441512472,0.00335052569269845,,
0.243769167221377,0.132595427066912,0.00348137649751612,,
0.247638519082034,0.136498614744888,0.00361859712304202,,
0.251507870942691,0.140317176580695,0.00373876957429164,,
0.255377222803347,0.144092887619302,0.00387691998562145,,
0.259246574664004,0.147929557950997,0.00400667395837262,,
0.263115926524661,0.151683238480374,0.00411908033430031,,
0.266985278385318,0.155271566927253,0.0042378029500596,,
0.270854630245974,0.158986856548888,0.00433414767020768,,
0.274723982106631,0.162539348999573,0.00446637266692473,,
0.278593333967288,0.166111563574492,0.00459308828877836,,
0.282462685827945,0.169576382218354,0.00474612788023032,,
0.286332037688601,0.172949022342926,0.00484414936664113,,
0.290201389549258,0.176412429061984,0.00497129363550952,,
0.294070741409915,0.179733096906899,0.00508439341101941,,
0.297940093270572,0.183232160330113,0.00519667056247952,,
0.301809445131229,0.186500654191825,0.00529816535043448,,
0.305678796991885,0.189967086464034,0.00543921228092836,,
0.309548148852542,0.193017381914902,0.00554240274604378,,
0.313417500713199,0.196199815598138,0.00567158939186374,,
0.317286852573856,0.199211025384615,0.00575625978449823,,
0.321156204434512,0.202251101189289,0.00583923765178884,,
0.325025556295169,0.205581988680397,0.00595928718220362,,
0.328894908155826,0.20857813793564,0.00606294726794498,,
0.332764260016483,0.211363977629732,0.00614733714893045,,
0.33663361187714,0.214294864582964,0.00626959295074325,,
0.340502963737796,0.216895495601294,0.00633149147073109,,
0.344372315598453,0.219914235653387,0.00646829290469153,,
0.34824166745911,0.222717645967251,0.00656284739319046,,
0.352111019319767,0.225314691144811,0.00665641851500931,,
0.355980371180423,0.227849701277052,0.0067687334882649,,
0.35984972304108,0.230522049110779,0.0068524835505448,,
0.363719074901737,0.23304988756148,0.00694932310584884,,
0.367588426762394,0.235444691319621,0.00703066518048834,,
0.371457778623051,0.237961592955974,0.00710522454648643,,
0.375327130483707,0.240312649456723,0.00718948205118775,,
0.379196482344364,0.242459133741551,0.00727343067789343,,
0.383065834205021,0.244957747589979,0.00736542589157052,,
0.386935186065678,0.246830632224068,0.00743910274900905,,
0.390804537926334,0.249223822353862,0.00751174581070657,,
0.394673889786991,0.251061386456369,0.00759034895699573,,
0.398543241647648,0.253185997112502,0.00767475774887894,,
0.402412593508305,0.255190482102845,0.00775375802401967,,
0.406281945368962,0.256926208327488,0.00779838459077498,,
0.410151297229618,0.258754090659916,0.00785545768003315,,
0.414020649090275,0.260509001132677,0.00794772079809425,,
0.417890000950932,0.262213171958546,0.00800225667524401,,
0.421759352811589,0.263978660661579,0.00805935813084879,,
0.425628704672245,0.265443297324022,0.00812883361718164,,
0.429498056532902,0.2669369792967,0.00820331733958835,,
0.433367408393559,0.268527658262203,0.00824721583678256,,
0.437236760254216,0.269954285012485,0.00829972509606236,,
0.441106112114873,0.271193192998467,0.00837064096243623,,
0.444975463975529,0.272376341160477,0.00842640289612051,,
0.448844815836186,0.27369826136028,0.00847943850871991,,
0.452714167696843,0.274996515011002,0.00851696088157228,,
0.4565835195575,0.275919689717198,0.00859177554468937,,
0.460452871418156,0.276829776104585,0.00862432435144678,,
0.464322223278813,0.277931167097042,0.00865227465824692,,
0.46819157513947,0.278937174725022,0.00868465011510899,,
0.472060927000127,0.279763352438394,0.00872739189572691,,
0.475930278860784,0.280205128021239,0.00877522070782621,,
0.47979963072144,0.281048876354383,0.00877712440486134,,
0.483668982582097,0.281695224153148,0.00884241743098624,,
0.487538334442754,0.282279536906594,0.00886004238764215,,
0.491407686303411,0.282721312489439,0.00888632853544502,,
0.495277038164067,0.283115217098006,0.00890904682721505,,
0.499146390024724,0.283264208781993,0.00894913793033858,,
0.503015741885381,0.283763895693271,0.00894809152733256,,
0.506885093746038,0.283974743130538,0.00897952143930958,,
0.510754445606695,0.28399464454681,0.00900487464949284,,
0.514623797467351,0.284138436761681,0.00901600686460524,,
0.518493149328008,0.284181646142958,0.00901946125525166,,
0.522362501188665,0.284100068265444,0.00902843762802652,,
0.526231853049322,0.284074608795978,0.00903891111353605,,
0.530101204909978,0.283812304543664,0.00905938846392873,,
0.533970556770635,0.283597691973588,0.00906330617156881,,
0.537839908631292,0.283458740643757,0.00905612318225923,,
0.541709260491949,0.283132070549624,0.00905817816647581,,
0.545578612352606,0.282414543811578,0.00905838933816661,,
0.549447964213262,0.281989083804236,0.00906169244163157,,
0.553317316073919,0.28138218025394,0.00905201006200951,,
0.557186667934576,0.280810955819304,0.00905104245441057,,
0.561056019795233,0.280115123417916,0.00902783247930028,,
0.564925371655889,0.279487242699116,0.00905155935228086,,
0.568794723516546,0.278767564456608,0.00902749208314146,,
0.572664075377203,0.277561466913671,0.00898902731722018,,
0.57653342723786,0.27650328530249,0.00897353298837134,,
0.580402779098517,0.275797950423062,0.00894796545468157,,
0.584272130959173,0.274333851636735,0.00891599343030336,,
0.58814148281983,0.273577418526336,0.00890051170871997,,
0.592010834680487,0.272172306820673,0.00888175209820163,,
0.595880186541144,0.270719144848693,0.0088477376968723,,
0.5997495384018,0.269493325181522,0.00880586896936508,,
0.603618890262457,0.268091082148474,0.00877885475200069,,
0.607488242123114,0.26656243822829,0.00873128438883697,,
0.611357593983771,0.264897532358851,0.00870626211936365,,
0.615226945844428,0.26333159569466,0.00865293338785023,,
0.619096297705084,0.26188686044849,0.00862582461599759,,
0.622965649565741,0.260165836171003,0.00860199688489605,,
0.626835001426398,0.25846345826552,0.00853081626595387,,
0.630704353287055,0.256467758585063,0.00849134291882159,,
0.634573705147711,0.254608679437937,0.00848551521051411,,
0.638443057008368,0.252727188786,0.00840020184735746,,
0.642312408869025,0.250525303261277,0.00835913052936998,,
0.646181760729682,0.248524404111704,0.00829790964988275,,
0.650051112590339,0.246474020359507,0.00824358494442379,,
0.653920464450995,0.244264066693052,0.00819529911896399,,
0.657789816311652,0.241943848422925,0.00809428971071657,,
0.661659168172309,0.239746086615087,0.00802946315340147,,
0.665528520032966,0.237099736126942,0.00796203949946905,,
0.669397871893622,0.234908787416568,0.00790467644311299,,
0.673267223754279,0.232253113742421,0.00782711654801371,,
0.677136575614936,0.22956947051027,0.00777628405499664,,
0.681005927475593,0.226808731701567,0.00768553380875137,,
0.684875279336249,0.224505366883057,0.00761592909795095,,
0.688744631196906,0.221896667722996,0.0075475504436846,,
0.692613983057563,0.218979406964689,0.00746189668436958,,
0.69648333491822,0.216221536828602,0.00736339612188397,,
0.700352686778877,0.213357884389804,0.00731229887629903,,
0.704222038639533,0.210510726818548,0.00724643852324336,,
0.70809139050019,0.20747710552726,0.00714235294230336,,
0.711960742360847,0.204593013796074,0.00706011890365588,,
0.715830094221504,0.201631826488337,0.00697501671219047,,
0.719699446082161,0.198528998470191,0.00686319027045901,,
0.723568797942817,0.195288294874444,0.006805496273393,,
0.727438149803474,0.192100661722091,0.00670272499984348,,
0.731307501664131,0.188962333880323,0.00660673328311923,,
0.735176853524788,0.185658004022417,0.00649686096748336,,
0.739046205385444,0.182218443144478,0.00639935637894329,,
0.742915557246101,0.178771374412426,0.00629472868560255,,
0.746784909106758,0.175555771702069,0.00623200754156494,,
0.750654260967415,0.172015829694078,0.00610100544956582,,
0.754523612828071,0.168476604854242,0.00600453465676676,,
0.758392964688728,0.165046389573809,0.00588639197520324,,
0.762262316549385,0.161419849511228,0.00580314620352862,,
0.766131668410042,0.157914331574628,0.00565981420622919,,
0.770001020270699,0.154315581778012,0.00560503563922543,,
0.773870372131355,0.150552062598022,0.0054690568293152,,
0.777739723992012,0.146733680054254,0.0053573785229486,,
0.781609075852669,0.143035759348847,0.00523604620330698,,
0.785478427713326,0.13924341897367,0.00510501574496125,,
0.789347779573983,0.135328913485764,0.00501370447541749,,
0.793217131434639,0.131552664571042,0.00487553830500653,,
0.797086483295296,0.127645532468219,0.00478654677224766,,
0.800955835155953,0.123735890276858,0.00467134158346028,,
0.80482518701661,0.119838619236153,0.00455388284603053,,
0.808694538877266,0.115821401821697,0.00441937278250792,,
0.812563890737923,0.111874825470406,0.00427437662621077,,
0.81643324259858,0.107822825400482,0.00417480444618912,,
0.820302594459237,0.103770287454443,0.00404385278325048,,
0.824171946319893,0.099732810039637,0.00395136588623313,,
0.82804129818055,0.0955626341048419,0.00382251963657154,,
0.831910650041207,0.0914140404491803,0.00366598783267769,,
0.835780001901864,0.087318450002398,0.00353896963646072,,
0.839649353762521,0.0830746074512875,0.00343015633109589,,
0.843518705623177,0.0788822217152242,0.00327682677254604,,
0.847388057483834,0.0747506159802098,0.00317130396338117,,
0.851257409344491,0.0704662534283999,0.00305462372457344,,
0.855126761205148,0.0662713576037978,0.00291381318030037,,
0.858996113065804,0.0620069188797654,0.00277266539168552,,
0.862865464926461,0.0577257611731437,0.00264505150219074,,
0.866734816787118,0.0534193457005993,0.00248294728710796,,
0.870604168647775,0.0491556017332161,0.00236031641915746,,
0.874473520508432,0.0448549236059035,0.00222569919388116,,
0.878342872369088,0.0405122911415838,0.00209184470814572,,
0.882212224229745,0.0362035224610342,0.00199401233071184,,
0.886081576090402,0.0318648568330661,0.00182592912013968,,
0.889950927951059,0.02753011321844,0.00166817756334448,,
0.893820279811715,0.0231426577444972,0.00155729666649762,,
0.897689631672372,0.0188118585547179,0.00141884683262106,,
0.901558983533029,0.0144274286339247,0.00126032308083612,,
0.905428335393686,0.0100884044218795,0.0011596761314614,,
0.909297687254343,0.00568642629281886,0.00100931873566656,,
0.913167039114999,0.00130560462430026,0.000853786057534389,,
0.917036390975656,-0.00304115155690483,0.000749952621897254,,
0.920905742836313,-0.00749153853635841,0.000598829334745865,,
0.92477509469697,-0.0117868379025162,0.000434657528181059,,
0.928644446557626,-0.0161679733321022,0.000321144864737999,,
0.932513798418283,-0.0205451195138317,0.000171982007314497,,
0.93638315027894,-0.0249058156510296,3.96719115576261E-05,,
0.940252502139597,-0.0292437416993389,-0.000107354014425631,,
0.944121854000254,-0.0335878533229762,-0.000244595126757563,,
0.94799120586091,-0.0379196834419768,-0.000393412860298259,,
0.951860557721567,-0.0423070044468908,-0.000520708416348104,,
0.955729909582224,-0.0466005108926637,-0.000650435598660515,,
0.959599261442881,-0.0508885937542722,-0.000790404607985629,,
0.963468613303537,-0.0552145968820218,-0.000954423551460692,,
0.967337965164194,-0.059466686866903,-0.00106617434960166,,
0.971207317024851,-0.0637080193294747,-0.00120297735946995,,
0.975076668885508,-0.0679676395799725,-0.00133796177134293,,
0.978946020746165,-0.0722104063788521,-0.00146858406947992,,
0.982815372606821,-0.0765465395067766,-0.00160854047154002,,
0.986684724467478,-0.0807420180305038,-0.00174666409243152,,
0.990554076328135,-0.0848840227037508,-0.00188528097257112,,
0.994423428188792,-0.089000433438503,-0.00202007942728333,,
0.998292780049448,-0.0932340115204099,-0.00215169769936585,,
1.00216213191011,-0.0972682168555135,-0.00230032474802133,,
1.00603148377076,-0.10136979117408,-0.00243045693872634,,
1.00990083563142,-0.105388398101835,-0.00257557916767448,,
1.01377018749208,-0.109471594986457,-0.00270523228230468,,
1.01763953935273,-0.113456181249908,-0.00282521404866909,,
1.02150889121339,-0.117543501851414,-0.00296964445394332,,
1.02537824307405,-0.121343910368324,-0.00309835202368802,,
1.0292475949347,-0.125433965173418,-0.00323405504967367,,
1.03311694679536,-0.129181348069944,-0.00335656299678933,,
1.03698629865602,-0.133219004776788,-0.00346581598052564,,
1.04085565051667,-0.136979655284162,-0.00363905083481297,,
1.04472500237733,-0.140827621014282,-0.00376619667958966,,
1.04859435423799,-0.144515478954028,-0.00387726668541299,,
1.05246370609864,-0.148441481543902,-0.00398736593182125,,
1.0563330579593,-0.152018671472889,-0.00411448498615918,,
1.06020240981996,-0.155783087113071,-0.00423915823106169,,
1.06407176168061,-0.159382419608812,-0.00434760592573769,,
1.06794111354127,-0.163043518211813,-0.00449482253660616,,
1.07181046540193,-0.166421200924968,-0.00461041855061239,,
1.07567981726258,-0.170093774218432,-0.00472089443906665,,
1.07954916912324,-0.173480511179531,-0.00482557256146743,,
1.0834185209839,-0.176808261059966,-0.00495966500933243,,
1.08728787284455,-0.180347485899802,-0.0050507761385421,,
1.09115722470521,-0.183720372550927,-0.00519855850043349,,
1.09502657656587,-0.186999982519026,-0.00529806606822181,,
1.09889592842652,-0.190098462705239,-0.00542301824886504,,
1.10276528028718,-0.193445531302821,-0.00554762845744161,,
1.10663463214784,-0.196532223037503,-0.00564791925157637,,
1.11050398400849,-0.199819721855296,-0.00577720675551729,,
1.11437333586915,-0.202928421687703,-0.00587018533587491,,
1.11824268772981,-0.205977865501388,-0.0059576671486341,,
1.12211203959047,-0.208941921481741,-0.00604309397717673,,
1.12598139145112,-0.21206465091616,-0.00619057376470522,,
1.12985074331178,-0.214704009014804,-0.00626974738974173,,
1.13372009517244,-0.217599575436453,-0.00638069132291363,,
1.13758944703309,-0.220272147385227,-0.00646067023701091,,
1.14145879889375,-0.223054535707578,-0.0065616307921057,,
1.14532815075441,-0.225759649161339,-0.00663713727889625,,
1.14919750261506,-0.228524018633822,-0.0067593631384546,,
1.15306685447572,-0.23102370823448,-0.00682826184240781,,
1.15693620633638,-0.233481084914054,-0.00694887397202892,,
1.16080555819703,-0.236070599825997,-0.00701966691756839,,
1.16467491005769,-0.238484049956141,-0.0071040457671967,,
1.16854426191835,-0.240917939378672,-0.00716827978305012,,
1.172413613779,-0.243139726319668,-0.00727237639534684,,
1.17628296563966,-0.245507277687957,-0.00736053900042366,,
1.18015231750032,-0.247687289583984,-0.00744006878070014,,
1.18402166936097,-0.24974497948675,-0.00752715976824048,,
1.18789102122163,-0.251842023991964,-0.00757891101570385,,
1.19176037308229,-0.253783936060873,-0.00768134504491114,,
1.19562972494294,-0.255683580031708,-0.00772968129943186,,
1.1994990768036,-0.25774521435932,-0.00781418937352818,,
1.20336842866426,-0.259672424481073,-0.00791333133062722,,
1.20723778052491,-0.261191745215256,-0.00795898223767466,,
1.21110713238557,-0.262750510197907,-0.0080354074789124,,
1.21497648424623,-0.264736528108285,-0.00808461363472723,,
1.21884583610688,-0.266218063045356,-0.00813196652256742,,
1.22271518796754,-0.267779651877613,-0.00822478120847814,,
1.2265845398282,-0.269181894910661,-0.00827476901473112,,
1.23045389168886,-0.270593819713787,-0.00833846091818424,,
1.23432324354951,-0.271832189823653,-0.0084033757263553,,
1.23819259541017,-0.273113769314795,-0.00842935772388653,,
1.24206194727083,-0.274420987567442,-0.0084819820244606,,
1.24593129913148,-0.275579214136101,-0.0085144709467091,,
1.24980065099214,-0.276625741764781,-0.00857724094389889,,
1.2536700028528,-0.277822336829678,-0.00863050821499511,,
1.25753935471345,-0.278661244277783,-0.0086463807617978,,
1.26140870657411,-0.279226955482235,-0.0086912626256721,,
1.26527805843477,-0.280147440807854,-0.00875022680469995,,
1.26914741029542,-0.280882538165672,-0.00878219882907771,,
1.27301676215608,-0.281657214240987,-0.00881702009537566,,
1.27688611401674,-0.28221463318866,-0.00886395694346653,,
1.28075546587739,-0.282829425588649,-0.00887935041419441,,
1.28462481773805,-0.283222792321101,-0.00893627221627069,,
1.28849416959871,-0.283722299940341,-0.00892936343497786,,
1.29236352145936,-0.284353228623795,-0.00897466133860103,,
1.29623287332002,-0.284455962961851,-0.0089838000299145,,
1.30010222518068,-0.284505268272436,-0.00896985797058569,,
1.30397157704133,-0.284628576371909,-0.0090017275609342,,
1.30784092890199,-0.285023422263678,-0.00904031997541477,,
