Time domain (s),Current (AC) (A),Potential (AC) (V),Frequency (Hz),Column 5
0,-0.12611514045066,-0.00157961225494274,3162.3,0.3
9.88204787654555E-06,-0.0828440827127961,-0.000954068141962416,,
1.97640957530911E-05,-0.0368052937767285,-0.000296941765635772,,
2.96461436296367E-05,0.00953369726628947,0.00036270001219707,,
3.95281915061822E-05,0.0561454139113589,0.00106382902267432,,
4.94102393827278E-05,0.101525909716598,0.00169105160564564,,
5.92922872592733E-05,0.142982263086862,0.00229142481137501,,
6.91743351358188E-05,0.178795690895147,0.00273243090023145,,
7.90563830123644E-05,0.207932417659011,0.00312904737009045,,
8.893843088891E-05,0.22883874339589,0.00339937164226178,,
9.88204787654555E-05,0.240667423577889,0.00349841519262739,,
0.000108702526642001,0.243292079729377,0.00352432474952646,,
0.000118584574518547,0.236461949523016,0.0033576755606517,,
0.000128466622395092,0.220671430754949,0.00310655925064829,,
0.000138348670271638,0.196183881018217,0.0026880228533841,,
0.000148230718148183,0.164471870647966,0.00218357274877778,,
0.000158112766024729,0.126339726140376,0.00160031594425725,,
0.000167994813901274,0.0834398701567057,0.000973827403972116,,
0.00017787686177782,0.0376059447861203,0.000288005794109036,,
0.000187758909654365,-0.00872179568148232,-0.000353238846949377,,
0.000197640957530911,-0.055701867819634,-0.00106637206595428,,
0.000207523005407457,-0.10141259714827,-0.00167851145381759,,
0.000217405053284002,-0.143183339108031,-0.00226390435326751,,
0.000227287101160548,-0.179151563180049,-0.00275786747565077,,
0.000237169149037093,-0.208417537092161,-0.0031431707813514,,
0.000247051196913639,-0.229297260372829,-0.00337712308486715,,
0.000256933244790184,-0.241163838409464,-0.00350773200638388,,
0.00026681529266673,-0.243715612347305,-0.00347396297152081,,
0.000276697340543275,-0.237023761125631,-0.00335661288797606,,
0.000286579388419821,-0.221059777310324,-0.00307069251220904,,
0.000296461436296367,-0.196246341882127,-0.0027048996925445,,
0.000306343484172912,-0.164394887128938,-0.00218229047755836,,
0.000316225532049458,-0.126030245670433,-0.00161242457726729,,
0.000326107579926003,-0.082920550767213,-0.000939849520143365,,
0.000335989627802549,-0.0368161857680669,-0.000292262627425988,,
0.000345871675679094,0.00954707693466195,0.000374925354922784,,
0.00035575372355564,0.0561490445751384,0.00104159275051341,,
0.000365635771432185,0.101437765268174,0.00168522226247436,,
0.000375517819308731,0.142930425276233,0.00226799380028186,,
0.000385399867185276,0.179013127314828,0.00276149776207291,,
0.000395281915061822,0.208017715846323,0.00313781288400561,,
0.000405163962938368,0.228668528016846,0.00340148163107035,,
0.000415046010814913,0.240587504151731,0.00350161549588579,,
0.000424928058691459,0.243283070304442,0.00348161513617429,,
0.000434810106568004,0.236546104723583,0.0033404700915014,,
0.00044469215444455,0.220781986708185,0.00306699772831287,,
0.000454574202321095,0.196258847501812,0.00268997620546907,,
0.000464456250197641,0.164512032064588,0.00218389830745869,,
0.000474338298074186,0.126473231474538,0.00162349817937768,,
0.000484220345950732,0.0834645452235032,0.000975126567387186,,
0.000494102393827277,0.0376088134587362,0.000290574943510258,,
0.000503984441703823,-0.00869938417667079,-0.000337564424991665,,
0.000513866489580369,-0.0556119976853398,-0.00104161578532569,,
0.000523748537456914,-0.101399374360432,-0.00169029145683908,,
0.00053363058533346,-0.143117942336991,-0.00225889658506873,,
0.000543512633210005,-0.179423056149336,-0.00276157454478021,,
0.000553394681086551,-0.208463435854015,-0.00313425938029122,,
0.000563276728963096,-0.229266063558131,-0.00337721368846244,,
0.000573158776839642,-0.241004896017341,-0.00350753544265192,,
0.000583040824716187,-0.24392901469612,-0.00348937326096355,,
0.000592922872592733,-0.237071542453889,-0.00333438736539415,,
0.000602804920469279,-0.220946375095977,-0.0030886197388118,,
0.000612686968345824,-0.196253199802599,-0.00269351281698693,,
0.00062256901622237,-0.164415371244336,-0.00219026973654657,,
0.000632451064098915,-0.125929259429753,-0.00159292637646447,,
0.000642333111975461,-0.0828509406332684,-0.000989122519353458,,
0.000652215159852006,-0.0367798791302723,-0.000261784499416606,,
0.000662097207728552,0.00958055972285037,0.000397178519279784,,
0.000671979255605097,0.0560935985122347,0.00102886832018712,,
0.000681861303481643,0.101394331771849,0.00171506923662612,,
0.000691743351358189,0.142939210586119,0.00228003332885507,,
0.000701625399234734,0.179133454684161,0.00277270189478607,,
0.00071150744711128,0.207841964825591,0.00313393382161076,,
0.000721389494987825,0.228736053880843,0.00338766995760231,,
0.000731271542864371,0.2406660788876,0.00351449349162758,,
0.000741153590740916,0.24325362158712,0.00350331700068907,,
0.000751035638617462,0.236534249037538,0.00333800383092919,,
0.000760917686494007,0.220594962700533,0.00306429804830888,,
0.000770799734370553,0.196268215510823,0.00269674844029133,,
0.000780681782247098,0.164567276423949,0.00218289091833324,,
0.000790563830123644,0.126368233574496,0.00162068486096612,,
0.00080044587800019,0.0833781040494452,0.0009733052815597,,
0.000810327925876735,0.0375828161131548,0.000293182484265131,,
0.000820209973753281,-0.00871202426538449,-0.000378174799114284,,
0.000830092021629826,-0.0556890036158722,-0.00103803924679902,,
0.000839974069506372,-0.101440701175304,-0.001706368220185,,
0.000849856117382917,-0.143188314462099,-0.00227629861795053,,
0.000859738165259463,-0.179270075217492,-0.00273389898560339,,
0.000869620213136008,-0.208258236115961,-0.00312613576981269,,
0.000879502261012554,-0.228981527093044,-0.00339781295329411,,
0.0008893843088891,-0.24119767978173,-0.00351623645909305,,
0.000899266356765645,-0.243670475576614,-0.00347514235391166,,
0.000909148404642191,-0.236979744930181,-0.00336487010036635,,
0.000919030452518736,-0.221109127443919,-0.00306361468221006,,
0.000928912500395282,-0.196321285954217,-0.00269023573102078,,
0.000938794548271827,-0.164341323632439,-0.00217869858249031,,
0.000948676596148373,-0.126070003679969,-0.00158976907152208,,
0.000958558644024918,-0.082889040191448,-0.000952431134633613,,
0.000968440691901464,-0.036789426431322,-0.000275857234090626,,
0.000978322739778009,0.0095298648989667,0.000373352845068453,,
0.000988204787654555,0.0561857546200197,0.00104374266633034,,
0.000998086835531101,0.101552108765722,0.00168658285205536,,
0.00100796888340765,0.143090891650684,0.00228332270005449,,
0.00101785093128419,0.178989998641863,0.00271851787358957,,
0.00102773297916074,0.208017536554285,0.00312701416398964,,
0.00103761502703728,0.228482646995939,0.0033838983909984,,
0.00104749707491383,0.240747365415552,0.00350735269980795,,
0.00105737912279037,0.243212899882877,0.00349211286797591,,
0.00106726117066692,0.23658339746759,0.00334628714943985,,
0.00107714321854347,0.220933645361244,0.00305021302840158,,
0.00108702526642001,0.196484329651721,0.0026711705846898,,
0.00109690731429656,0.164505308613145,0.00218024652187854,,
0.0011067893621731,0.126256355342477,0.00159325193514537,,
0.00111667141004965,0.0834620575464691,0.000984666050996452,,
0.00112655345792619,0.0375826368211163,0.00029699551353124,,
0.00113643550580274,-0.00868123085777345,-0.000369997440740288,,
0.00114631755367928,-0.0557257584837631,-0.00105364763562799,,
0.00115619960155583,-0.101317930951947,-0.00169517944401365,,
0.00116608164943237,-0.143154069682747,-0.00227922250346113,,
0.00117596369730892,-0.179267430659925,-0.00275591412356579,,
0.00118584574518547,-0.208230669965043,-0.00312998872608716,,
0.00119572779306201,-0.229214472274055,-0.00340658000286398,,
0.00120560984093856,-0.241411126953555,-0.00352710121223776,,
0.0012154918888151,-0.243747705622195,-0.00352558091462463,,
0.00122537393669165,-0.237029050240767,-0.00336205063933814,,
0.00123525598456819,-0.220802358766058,-0.00306522711907231,,
0.00124513803244474,-0.196346969538731,-0.00269576715728626,,
0.00125502008032128,-0.164195245444077,-0.00219333643789366,,
0.00126490212819783,-0.125994880315841,-0.00161542524548608,,
0.00127478417607438,-0.0828309047479669,-0.000959598032573616,,
0.00128466622395092,-0.0367990185553813,-0.000317527209580337,,
0.00129454827182747,0.00955588465605288,0.00037580374909929,,
0.00130443031970401,0.0561473413007727,0.00105571769742907,,
0.00131431236758056,0.101467393277535,0.00166423908410351,,
0.0013241944154571,0.143037686738261,0.00228268386792641,,
0.00133407646333365,0.179067856209578,0.00274503862084208,,
0.00134395851121019,0.20801811925341,0.00311217974485434,,
0.00135384055908674,0.22847365998251,0.00340250437673717,,
0.00136372260696329,0.240724797030207,0.00352829287986234,,
0.00137360465483983,0.24326433428642,0.00349537459740068,,
0.00138348670271638,0.236638865941998,0.00334906668345969,,
0.00139336875059292,0.220587118673849,0.00306243683547347,,
0.00140325079846947,0.196375320092317,0.00268468126994348,,
0.00141313284634601,0.164734623130376,0.00218193574144898,,
0.00142301489422256,0.126438605699604,0.00158828870091732,,
0.0014328969420991,0.0834831019494872,0.000970381396048658,,
0.00144277898997565,0.0375717224182731,0.000300455342341799,,
0.0014526610378522,-0.00869041957474618,-0.000389733667937264,,
0.00146254308572874,-0.0556907517132475,-0.00105679265533709,,
0.00147242513360529,-0.101367639669619,-0.00168232294742987,,
0.00148230718148183,-0.143185266497445,-0.00226189878894134,,
0.00149218922935838,-0.179286211500957,-0.00275009552997352,,
0.00150207127723492,-0.208245013328122,-0.00314689167136839,,
0.00151195332511147,-0.229253468292427,-0.00340255812463264,,
0.00152183537298801,-0.241134389692142,-0.00350939665548777,,
0.00153171742086456,-0.24366263154993,-0.0035265621976297,,
0.00154159946874111,-0.236939359398511,-0.00334877798047861,,
0.00155148151661765,-0.221071610584864,-0.00308653585612406,,
0.0015613635644942,-0.196600757419217,-0.0026812721177194,,
0.00157124561237074,-0.16428529487041,-0.00217644424219099,,
0.00158112766024729,-0.125913750668423,-0.00159512696886832,,
0.00159100970812383,-0.0829140962538273,-0.000998517651471964,,
0.00160089175600038,-0.0368199957238849,-0.000279932860217436,,
0.00161077380387692,0.00956659735535279,0.000365990919050763,,
0.00162065585175347,0.0561285828712455,0.00103740041467093,,
0.00163053789963002,0.101514614318173,0.00168650299803952,,
0.00164041994750656,0.142913011536994,0.00225163908353343,,
0.00165030199538311,0.178695489057135,0.00276418515684362,,
0.00166018404325965,0.208023856598642,0.00313603152518649,,
0.0016700660911362,0.228975117402668,0.00339338566236647,,
0.00167994813901274,0.240340977598804,0.00351589707952504,,
0.00168983018688929,0.243094141318881,0.00349518110497726,,
0.00169971223476583,0.236564639038062,0.00335114903049361,,
0.00170959428264238,0.220801686420914,0.00308115031700318,,
0.00171947633051893,0.196520076001895,0.00266561458795778,,
0.00172935837839547,0.164595582154526,0.00218535410759735,,
0.00173924042627202,0.126344903197987,0.00158529724662371,,
0.00174912247414856,0.0835110266844823,0.000966017066940772,,
0.00175900452202511,0.0376250617997245,0.000279226459306336,,
0.00176888656990165,-0.00872080957527061,-0.000362882755041039,,
0.0017787686177782,-0.0556765876422066,-0.00104457806218994,,
0.00178865066565474,-0.101419455068743,-0.00169770713075224,,
0.00179853271353129,-0.143185625081522,-0.00224940777804639,,
0.00180841476140784,-0.17925017380122,-0.00274925706280493,,
0.00181829680928438,-0.208414847711584,-0.00312249319815772,,
0.00182817885716093,-0.229411424578339,-0.00337486874456783,,
0.00183806090503747,-0.241050794779195,-0.00351953811552574,,
0.00184794295291402,-0.243844119915894,-0.00348472022887458,,
0.00185782500079056,-0.236936132141818,-0.00333640675060787,,
0.00186770704866711,-0.22088425040464,-0.00310046577496159,,
0.00187758909654365,-0.19656821591423,-0.00269315961653138,,
0.0018874711444202,-0.164294662879421,-0.00220085807194348,,
0.00189735319229675,-0.125980895536838,-0.00159164256959121,,
0.00190723524017329,-0.0828886367843614,-0.000981574779182814,,
0.00191711728804984,-0.0368240746177606,-0.0002842572623174,,
0.00192699933592638,0.00951877120408499,0.000356933630845546,,
0.00193688138380293,0.0561469603051909,0.00105223483380579,,
0.00194676343167947,0.101488437680553,0.001691681223849,,
0.00195664547955602,0.143086857579817,0.00226424373283596,,
0.00196652752743256,0.17899152262419,0.00274797479158595,,
0.00197640957530911,0.208021167218064,0.00312367258054858,,
0.00198629162318566,0.228702010805035,0.00338113114221139,,
0.0019961736710622,0.240564734062843,0.00349050350242175,,
0.00200605571893875,0.243404137253434,0.00349262270515549,,
0.00201593776681529,0.236522012355911,0.00335305017033738,,
0.00202581981469184,0.22072671993732,0.00306626368562712,,
0.00203570186256838,0.196480497284398,0.00267184012990107,,
0.00204558391044493,0.164629647641839,0.00219169635925631,,
0.00205546595832147,0.126413370345186,0.00162973600655425,,
0.00206534800619802,0.083468377590826,0.000966149133198257,,
0.00207523005407457,0.0376158730827518,0.000301332200864479,,
0.00208511210195111,-0.00870346307054649,-0.000371361101629386,,
0.00209499414982766,-0.0556686091464937,-0.00105355549637887,,
0.0021048761977042,-0.101393457723161,-0.00170902950883534,,
0.00211475824558075,-0.143273747118441,-0.0022810038622807,,
0.00212464029345729,-0.179272002606906,-0.00274320351412705,,
0.00213452234133384,-0.208433225145529,-0.00312728904608317,,
0.00214440438921038,-0.229258085062418,-0.00339968798701706,,
0.00215428643708693,-0.241285443234572,-0.00350672308160416,,
0.00216416848496348,-0.243760928410034,-0.00350752162176482,,
0.00217405053284002,-0.23697396276194,-0.0033435613633146,,
0.00218393258071657,-0.220943327131323,-0.00307429515685609,,
0.00219381462859311,-0.196284575909336,-0.00268785239577252,,
0.00220369667646966,-0.164375389119752,-0.00219819678329358,,
0.0022135787243462,-0.125995238899918,-0.00161079985517176,,
0.00222346077222275,-0.082805803862578,-0.000952888759571557,,
0.00223334282009929,-0.0368011252368336,-0.000293048882353375,,
0.00224322486797584,0.0095185919120465,0.000361010792626626,,
0.00225310691585239,0.0561521149512976,0.00101828152044403,,
0.00226298896372893,0.101465107304044,0.00169921514313254,,
0.00227287101160548,0.142934997223215,0.00229262876423242,,
0.00228275305948202,0.17895882423867,0.00274919410098473,,
0.00229263510735857,0.207688580486661,0.00312503624143812,,
0.00230251715523511,0.22886189448036,0.00338638615072906,,
0.00231239920311166,0.2405603414079,0.00351454570386878,,
0.0023222812509882,0.243146539417131,0.00350988038654654,,
0.00233216329886475,0.2364590808504,0.00334285649805821,,
0.0023420453467413,0.220627459382509,0.00308240955341033,,
0.00235192739461784,0.196468641598353,0.00266577429598991,,
0.00236180944249439,0.16451413874604,0.00219336100836021,,
0.00237169149037093,0.12641240665048,0.0016349019471309,,
0.00238157353824748,0.0834329898247286,0.000961354820927074,,
0.00239145558612402,0.0375480110461825,0.000292067599348744,,
0.00240133763400057,-0.00868544422067802,-0.000350748015910174,,
0.00241121968187711,-0.0556576723321457,-0.00106168064251166,,
0.00242110172975366,-0.10139005117443,-0.0017023079506,,
0.00243098377763021,-0.143152904284497,-0.00227719083301459,,
0.00244086582550675,-0.179151159772962,-0.00274565441815788,,
0.0024507478733833,-0.208179482088053,-0.00314134949552392,,
0.00246062992125984,-0.229088071386918,-0.00339283282687042,,
0.00247051196913639,-0.241216819206839,-0.00351090466786763,,
0.00248039401701293,-0.243806647879849,-0.00349241385619026,,
0.00249027606488948,-0.237094671126855,-0.0033395640555498,,
0.00250015811276602,-0.220721049826602,-0.00307081075757898,,
0.00251004016064257,-0.196437198257102,-0.00267068531797676,,
0.00251992220851912,-0.164283770888083,-0.00219659970297226,,
0.00252980425639566,-0.126077309830538,-0.00160778690172014,,
0.00253968630427221,-0.0828637600140206,-0.000966150668852084,,
0.00254956835214875,-0.0368177097503941,-0.000295040625791998,,
0.0025594504000253,0.00956372868273691,0.000364691755635693,,
0.00256933244790184,0.0561054317867751,0.00105308558620765,,
0.00257921449577839,0.101515959008461,0.00166430665288653,,
0.00258909654365493,0.143084347491279,0.00225021092516942,,
0.00259897859153148,0.178819424678742,0.00273188420735249,,
0.00260886063940803,0.207806397767456,0.00313479993055399,,
0.00261874268728457,0.228761087531718,0.00338296471327215,,
0.00262862473516112,0.240660744949455,0.00351873803971126,,
0.00263850678303766,0.24293847100646,0.00349483711844645,,
0.00264838883091421,0.236664482291998,0.00333838774446749,,
0.00265827087879075,0.220691152879184,0.00308113803177035,,
0.0026681529266673,0.196413173123944,0.00270149361162986,,
0.00267803497454384,0.164429400846348,0.00219539421446102,,
0.00268791702242039,0.126438986695186,0.00162380223890013,,
0.00269779907029694,0.0834144330987446,0.000949822058224914,,
0.00270768111817348,0.0375642593871709,0.000309561771479672,,
0.00271756316605003,-0.00868965758358259,-0.000355531578602353,,
0.00272744521392657,-0.0556347229512187,-0.0010490068887723,,
0.00273732726180312,-0.101271808075044,-0.00170777180808246,,
0.00274720930967966,-0.143198803046351,-0.00227101903896632,,
0.00275709135755621,-0.17940588893665,-0.00277641049956934,,
0.00276697340543275,-0.208261104788577,-0.00313950210357561,,
0.0027768554533093,-0.229308914355331,-0.00338642607773654,,
0.00278673750118585,-0.241169396462658,-0.00352542274224676,,
0.00279661954906239,-0.243954070758499,-0.00349992166935253,,
0.00280650159693894,-0.237020085638842,-0.00336129049053158,,
0.00281638364481548,-0.2209008349182,-0.00304077489796617,,
0.00282626569269203,-0.196360730202685,-0.00267908534620309,,
0.00283614774056857,-0.164399100491843,-0.00220465881597676,,
0.00284602978844512,-0.126067896998517,-0.00160491676410501,,
0.00285591183632166,-0.0828612499254817,-0.000982608274428642,,
0.00286579388419821,-0.0368261364762032,-0.000287978152334389,,
0.00287567593207476,0.00958838133802959,0.000380390748059956,,
0.0028855579799513,0.0562171307267558,0.00104408051024407,,
0.00289544002782785,0.101505448012705,0.00168261165041095,,
0.00290532207570439,0.143025091472557,0.00225432647830415,,
0.00291520412358094,0.178993651717147,0.00275966419101215,,
0.00292508617145748,0.207731050288279,0.00312370022232367,,
0.00293496821933403,0.228571396554993,0.0033820095363879,,
0.00294485026721057,0.240598015147488,0.00354705550232515,,
0.00295473231508712,0.243364379243899,0.00348759190214443,,
0.00296461436296367,0.236512061647775,0.00335500045111381,,
0.00297449641084021,0.220669548188545,0.00307019496026317,,
0.00298437845871676,0.196347193653779,0.00269416854131155,,
0.0029942605065933,0.164590427508419,0.00221405548374998,,
0.00300414255446985,0.126427512004723,0.00160968650590965,,
0.00301402460234639,0.0834410131434511,0.000967801497068876,,
0.00302390665022294,0.0375608080154299,0.000286276647531114,,
0.00303378869809948,-0.00866231554771252,-0.00036483610712601,,
0.00304367074597603,-0.0557119529967992,-0.00107393362701247,,
0.00305355279385258,-0.101490589185015,-0.00169714354567763,,
0.00306343484172912,-0.143229237869885,-0.00225489927730393,,
0.00307331688960567,-0.179419470308566,-0.00276148394118536,,
0.00308319893748221,-0.2082393208059,-0.00314775778031162,,
0.00309308098535876,-0.229207748822612,-0.00339145841640187,,
0.0031029630332353,-0.240987908096694,-0.00349306804486016,,
0.00311284508111185,-0.243590735442495,-0.00351298701490155,,
0.00312272712898839,-0.236682568376381,-0.00334767691644977,,
0.00313260917686494,-0.220778871509016,-0.00307622240282068,,
0.00314249122474148,-0.196498785072324,-0.00267871832486,,
0.00315237327261803,-0.164492780581955,-0.00218770212279962,,
0.00316225532049458,-0.125947950624766,-0.00160996138800318,,
0.00317213736837112,-0.0829114068732499,-0.000971510101852147,,
0.00318201941624767,-0.0368293637328961,-0.000301370592217687,,
0.00319190146412421,0.00954956461169603,0.000410124083804142,,
