Time domain (s),Current (AC) (A),Potential (AC) (V),Frequency (Hz),Column 5
0,-0.246238430620929,-0.00812267654407206,0.025119,0.3
0.0971936084239022,-0.248537313138476,-0.00824529322884926,,
0.194387216847804,-0.250465195605373,-0.00830647786244887,,
0.291580825271707,-0.252551661880316,-0.00843716634872793,,
0.388774433695609,-0.254575689702855,-0.00853744295968939,,
0.485968042119511,-0.256452160177714,-0.00864130160985654,,
0.583161650543413,-0.258221593305594,-0.00874517286728915,,
0.680355258967316,-0.260246876172402,-0.00883052405224127,,
0.777548867391218,-0.261919850183573,-0.00892086771418565,,
0.87474247581512,-0.263397216580748,-0.00902315045621149,,
0.971936084239022,-0.265171490593667,-0.00911012797836541,,
1.06912969266292,-0.266699596637736,-0.00920825032289718,,
1.16632330108683,-0.268494175474015,-0.00927407285415738,,
1.26351690951073,-0.269688394919402,-0.00935762120019534,,
1.36071051793463,-0.270986827862162,-0.00946992671800206,,
1.45790412635853,-0.272466883639915,-0.00953878602425151,,
1.55509773478244,-0.273563254455295,-0.00958377032215463,,
1.65229134320634,-0.27494326527557,-0.00969519333140223,,
1.74948495163024,-0.275946224938895,-0.00975382972153671,,
1.84667856005414,-0.277026683585859,-0.00979056729213479,,
1.94387216847804,-0.277838473113142,-0.00991317136964698,,
2.04106577690195,-0.278917452600788,-0.00997271705877933,,
2.13825938532585,-0.2798327832803,-0.0100171576683739,,
2.23545299374975,-0.280893609449049,-0.0100771682504077,,
2.33264660217365,-0.281303112464965,-0.0101472646445484,,
2.42984021059756,-0.281999662034507,-0.0102123811689614,,
2.52703381902146,-0.282432473015428,-0.0102373309466604,,
2.62422742744536,-0.283149641169396,-0.0102673488449425,,
2.72142103586926,-0.283259547188992,-0.0103404835899799,,
2.81861464429316,-0.284158876054069,-0.0103711822805792,,
2.91580825271707,-0.28408500773421,-0.010419417676979,,
3.01300186114097,-0.284547939777597,-0.0104597231036099,,
3.11019546956487,-0.284799127923525,-0.010503936782432,,
3.20738907798877,-0.284685456771121,-0.0105324922379588,,
3.30458268641268,-0.284742830223438,-0.0105655232726076,,
3.40177629483658,-0.28499706633402,-0.0106097873804907,,
3.49896990326048,-0.284659280133501,-0.0106203522686723,,
3.59616351168438,-0.284509929865437,-0.0106299211829084,,
3.69335712010828,-0.284565286282321,-0.0106755326922521,,
3.79055072853219,-0.284179853222573,-0.0107287117124919,,
3.88774433695609,-0.283997333927388,-0.0107170247777133,,
3.98493794537999,-0.283411228253557,-0.0107272729083587,,
4.08213155380389,-0.283044217450763,-0.0107600281590829,,
4.1793251622278,-0.28238585708542,-0.01074459686656,,
4.2765187706517,-0.281565058133202,-0.0107643256605852,,
4.3737123790756,-0.281144976887015,-0.0107771740396641,,
4.4709059874995,-0.280200152667171,-0.0107671890856786,,
4.56809959592341,-0.279572227125361,-0.0107567880919435,,
4.66529320434731,-0.278804140032461,-0.0107649575997502,,
4.76248681277121,-0.27761274443668,-0.0107592843304398,,
4.85968042119511,-0.276629148313512,-0.0107489700116528,,
4.95687402961901,-0.275533673958324,-0.0107178568572124,,
5.05406763804292,-0.274396917611274,-0.0107268332299872,,
5.15126124646682,-0.272885665018823,-0.0107040140800962,,
5.24845485489072,-0.271983333012102,-0.0106835398815197,,
5.34564846331462,-0.270797136885437,-0.0106807914977205,,
5.44284207173853,-0.269379654029118,-0.0106344597983563,,
5.54003568016243,-0.267924699136754,-0.010609182231764,,
5.63722928858633,-0.266575705839138,-0.0106170869870028,,
5.73442289701023,-0.264729221957717,-0.0105867917288873,,
5.83161650543413,-0.263051720822574,-0.0105281301242228,,
5.92881011385804,-0.261475698981218,-0.0104792659404747,,
6.02600372228194,-0.259639927799096,-0.0104760384806006,,
6.12319733070584,-0.257797029758444,-0.0104312937207345,,
6.22039093912974,-0.25577246405979,-0.0103936610343118,,
6.31758454755365,-0.253918270620713,-0.0103181419402558,,
6.41477815597755,-0.252019164525994,-0.0102989678658965,,
6.51197176440145,-0.249915710330404,-0.0102552836922096,,
6.60916537282535,-0.247794326930964,-0.0101875322493838,,
6.70635898124925,-0.245587241937125,-0.0101279503143643,,
6.80355258967316,-0.243378005438824,-0.010071748702309,,
6.90074619809706,-0.240928741723992,-0.0100214567457844,,
6.99793980652096,-0.23877665456296,-0.00993824721999692,,
7.09513341494486,-0.236099107260117,-0.00990135993812524,,
7.19232702336877,-0.233677051112126,-0.00982008089981168,,
7.28952063179267,-0.231274717088369,-0.00974097031110066,,
7.38671424021657,-0.228645220051842,-0.00968576309708258,,
7.48390784864047,-0.226022132705692,-0.00959206432670445,,
7.58110145706437,-0.223038937300229,-0.00953369426504569,,
7.67829506548828,-0.220652918851975,-0.00946750612309621,,
7.77548867391218,-0.217762372607404,-0.00938273487234076,,
7.87268228233608,-0.214815707954784,-0.0092787895472255,,
7.96987589075998,-0.212068057464891,-0.0092102312394311,,
8.06706949918389,-0.209176076884012,-0.00913382806090768,,
8.16426310760779,-0.206161146787737,-0.00902157454806973,,
8.26145671603169,-0.203060066866966,-0.00894654871326184,,
8.35865032445559,-0.200000448230096,-0.00885750517553419,,
8.45584393287949,-0.196825589635486,-0.00874193280015012,,
8.5530375413034,-0.193625719801506,-0.00864755481336266,,
8.6502311497273,-0.190522353907244,-0.00855895095400649,,
8.7474247581512,-0.187146464114474,-0.00844320365281881,,
8.8446183665751,-0.183735612374199,-0.00835238091479917,,
8.94181197499901,-0.180590830019045,-0.00824160087607373,,
9.03900558342291,-0.177064693498019,-0.0081252232116289,,
9.13619919184681,-0.173571905296152,-0.00801923550956207,,
9.23339280027071,-0.170109058864714,-0.00791918267755687,,
9.33058640869461,-0.166450784111319,-0.00780913386020909,,
9.42778001711852,-0.163152348479178,-0.00768962959401165,,
9.52497362554242,-0.159472917265241,-0.00757233159921222,,
9.62216723396632,-0.155950545877023,-0.00744891750491528,,
9.71936084239022,-0.152261432893007,-0.00733728174806858,,
9.81655445081413,-0.148487021721679,-0.00719845054442203,,
9.91374805923803,-0.144732736081671,-0.00710329090719641,,
10.0109416676619,-0.140909557475873,-0.00696787627240081,,
10.1081352760858,-0.13721650006701,-0.00681950136904774,,
10.2053288845097,-0.13317001322727,-0.00671870628430815,,
10.3025224929336,-0.129328546833546,-0.00656905804717667,,
10.3997161013575,-0.125537775263705,-0.00644279628686784,,
10.4969097097814,-0.121658074842772,-0.00631856429624511,,
10.5941033182053,-0.117631713534353,-0.00616440108228788,,
10.6912969266292,-0.113578279128121,-0.006063470469448,,
10.7884905350531,-0.109623948396165,-0.00590106368000187,,
10.8856841434771,-0.105532369608744,-0.0057835229953489,,
10.982877751901,-0.101561633655267,-0.00562788788318747,,
11.0800713603249,-0.0974347791592727,-0.00549763119573932,,
11.1772649687488,-0.0932469205471814,-0.00534524560616623,,
11.2744585771727,-0.0891739433087539,-0.00518556356189714,,
11.3716521855966,-0.0850883708046223,-0.00507916927552987,,
11.4688457940205,-0.0808718254663722,-0.0048791297996611,,
11.5660394024444,-0.0765768846842914,-0.00476654692202194,,
11.6632330108683,-0.0722901913359812,-0.00461625413846045,,
11.7604266192922,-0.0681804592296628,-0.00445653427239634,,
11.8576202277161,-0.063942354023784,-0.00430319210658103,,
11.95481383614,-0.059616395719044,-0.00412027329676334,,
12.0520074445639,-0.0553241443175405,-0.00401961689193975,,
12.1492010529878,-0.050985052870981,-0.00383986250567059,,
12.2463946614117,-0.0466808337259082,-0.0036758672008177,,
12.3435882698356,-0.0423486450228306,-0.0035486472883588,,
12.4407818782595,-0.0380319650810826,-0.00337489396029289,,
12.5379754866834,-0.0337205294314605,-0.00320382597970026,,
12.6351690951073,-0.029417699799686,-0.00304905919292509,,
12.7323627035312,-0.02501159795374,-0.0029088270069404,,
12.8295563119551,-0.0207005208881948,-0.00275454087214833,,
12.926749920379,-0.0162456067847693,-0.00257027308496127,,
13.0239435288029,-0.0119259685243862,-0.00241582147981445,,
13.1211371372268,-0.00752829340424931,-0.0022506410920391,,
13.2183307456507,-0.0031775927981974,-0.00207833759946352,,
13.3155243540746,0.00126846876082756,-0.00192776903197744,,
13.4127179624985,0.00562277761915413,-0.0017664212528028,,
13.5099115709224,0.0100383819431402,-0.00160762014118498,,
13.6071051793463,0.0143594993628409,-0.00143739684735644,,
13.7042987877702,0.01872956350905,-0.00128353778367085,,
13.8014923961941,0.0230876150886801,-0.00111506689969598,,
13.898686004618,0.0274492749205848,-0.000951979317932672,,
13.9958796130419,0.0318404731158312,-0.000774897671871777,,
14.0930732214658,0.0361147953134854,-0.000635601575322831,,
14.1902668298897,0.0404077638831428,-0.000458102313604325,,
14.2874604383136,0.0447545424758527,-0.000295266877143874,,
14.3846540467375,0.049111854475824,-0.000130554534086613,,
14.4818476551614,0.0534033887091735,3.73253843353183E-05,,
14.5790412635853,0.0576508171010539,0.000206867885846673,,
14.6762348720092,0.0619412979936773,0.000374796657420795,,
14.7734284804331,0.06620806751421,0.000543204505070172,,
14.870622088857,0.0705248819249869,0.000673163345879413,,
14.9678156972809,0.0746358914870796,0.000862092669349668,,
15.0650093057048,0.0788544314492579,0.00103300936276041,,
15.1622029141287,0.0831384354169907,0.00117446287755518,,
15.2593965225527,0.0872688085192405,0.00135607053179898,,
15.3565901309766,0.0913824626389009,0.00152348555731896,,
15.4537837394005,0.0954798235945633,0.00167563948839522,,
15.5509773478244,0.099687628445937,0.00184512840902995,,
15.6481709562483,0.10373729771936,0.00200093214336228,,
15.7453645646722,0.107748060620431,0.0021842165638688,,
15.8425581730961,0.111725833786419,0.00230318186948208,,
15.93975178152,0.115829850959011,0.00247367937132736,,
16.0369453899439,0.119732097353784,0.00262412186616201,,
16.1341389983678,0.123856195234687,0.0028012665485484,,
16.2313326067917,0.127691431230073,0.00297928113222934,,
16.3285262152156,0.131627429351093,0.00314708698296862,,
16.4257198236395,0.135436309416821,0.00328580156941305,,
16.5229134320634,0.139172934791037,0.00344882611485042,,
16.6201070404873,0.142960479104185,0.00359679758571918,,
16.7173006489112,0.146778503063877,0.00374755526218173,,
16.8144942573351,0.150528059876369,0.00391083195292197,,
16.911687865759,0.15413037310225,0.00405687451222514,,
17.0088814741829,0.157834546617499,0.00420664882200761,,
17.1060750826068,0.161350441080826,0.00436816049562916,,
17.2032686910307,0.165102328689819,0.00450569315096727,,
17.3004622994546,0.168676336185123,0.00465230303720121,,
17.3976559078785,0.172094538898977,0.00482056274948528,,
17.4948495163024,0.175526009223679,0.00495352842302887,,
17.5920431247263,0.178799343970431,0.00509993344120474,,
17.6892367331502,0.182270617127679,0.00523478390088572,,
17.7864303415741,0.185657802318874,0.00536646363338589,,
17.883623949998,0.189008411934216,0.0055149173321456,,
17.9808175584219,0.192098689509668,0.00566529679065431,,
18.0780111668458,0.19522213611224,0.00578752422612094,,
18.1752047752697,0.198531149974653,0.00593414671961989,,
18.2723983836936,0.201787451977748,0.0060675441919944,,
18.3695919921175,0.204628334327657,0.00623980671095836,,
18.4667856005414,0.207630400220171,0.00634104620179432,,
18.5639792089653,0.210427714604726,0.00649349325178505,,
18.6611728173892,0.213492891294789,0.00660227188717055,,
18.7583664258131,0.216216695943562,0.00674213373474197,,
18.855560034237,0.219131805197407,0.00686293654924874,,
18.9527536426609,0.221913521174614,0.0069846344795792,,
19.0499472510848,0.224444228297931,0.00713691763512347,,
19.1471408595087,0.22737439808301,0.00723429930282871,,
19.2443344679326,0.229924827330561,0.00736805923407546,,
19.3415280763565,0.232413221532795,0.00749070270929142,,
19.4387216847804,0.234928509540802,0.00758702221490903,,
19.5359152932043,0.237187589225804,0.0077120232487049,,
19.6331089016283,0.239726185198815,0.00784503935130898,,
19.7303025100522,0.242011620813475,0.00795081745759285,,
19.8274961184761,0.244338831473104,0.0080422075225437,,
19.9246897269,0.246662994168078,0.00813913217688755,,
20.0218833353239,0.248840137391489,0.00829599176967477,,
20.1190769437478,0.250567974766439,0.0083850116687807,,
20.2162705521717,0.252770577459315,0.00846988377765712,,
20.3134641605956,0.254587702269434,0.00858429155692475,,
20.4106577690195,0.256518677523995,0.00870910663355984,,
20.5078513774434,0.258692772782751,0.0087744721514591,,
20.6050449858673,0.260307297589374,0.00888087116555081,,
20.7022385942912,0.262070276203868,0.00896698824185949,,
20.7994322027151,0.263731058356421,0.00904182496769046,,
20.896625811139,0.264996142980022,0.00913208037877888,,
20.9938194195629,0.266685253274657,0.00924512972522828,,
21.0910130279868,0.268213897194842,0.00929558400029151,,
21.1882066364107,0.269611120050811,0.00938049393096385,,
21.2854002448346,0.270983600605469,0.00946637462105082,,
21.3825938532585,0.27207746133231,0.00953848817761305,,
21.4797874616824,0.273366391797031,0.00963554205642447,,
21.5769810701063,0.274743354652651,0.00969727983378199,,
21.6741746785302,0.275627622986494,0.00976304878416556,,
21.7713682869541,0.276752142651918,0.00982039923325662,,
21.868561895378,0.277753847270973,0.00991188070087956,,
21.9657555038019,0.278596699143925,0.00995592733343864,,
22.0629491122258,0.279473078628075,0.0100317600332147,,
22.1601427206497,0.280350892448533,0.0100712081658165,,
22.2573363290736,0.281088320602852,0.0101421996757818,,
22.3545299374975,0.28146662680407,0.0101854299879234,,
22.4517235459214,0.282260890534591,0.0102410028126307,,
22.5489171543453,0.28270212824132,0.0102609065324595,,
22.6461107627692,0.283224943825563,0.0103575538269709,,
22.7433043711931,0.283710825249877,0.0103886433427896,,
22.840497979617,0.283871829500443,0.0104080459238292,,
22.9376915880409,0.283981914812077,0.0104732570027308,,
23.0348851964648,0.284274340126858,0.0105110000027233,,
23.1320788048887,0.284277029507436,0.0105341847633031,,
23.2292724133126,0.284391955704109,0.0105774402899752,,
23.3264660217365,0.28434551906614,0.010595216533813,,
23.4236596301604,0.284230413577428,0.0106025949357322,,
23.5208532385843,0.283899619766409,0.0106762686413546,,
23.6180468470082,0.284056858884167,0.0106562230897929,,
23.7152404554321,0.283510018166766,0.010676839120102,,
23.812434063856,0.283108224708505,0.0107396327559139,,
23.9096276722799,0.282803069658991,0.0107057854008477,,
24.0068212807039,0.282233279560663,0.0107305303104881,,
24.1040148891278,0.281981374246581,0.0107449656290655,,
24.2012084975517,0.281195716533908,0.0107568794946165,,
24.2984021059756,0.280651027320969,0.0107532738167881,,
24.3955957143995,0.279704723941807,0.0107773032641321,,
24.4927893228234,0.279073436674276,0.0107735210845923,,
24.5899829312473,0.278036411523637,0.0107702810174528,,
24.6871765396712,0.27697536123984,0.0107688469410441,,
24.7843701480951,0.276216418040903,0.0107552153356187,,
24.881563756519,0.275000459435849,0.0107193854881102,,
24.9787573649429,0.273805477999298,0.0107321188258949,,
25.0759509733668,0.272620716208942,0.0106971714869455,,
25.1731445817907,0.271213632290855,0.0106913879040658,,
25.2703381902146,0.270010403420534,0.0106734729803115,,
25.3675317986385,0.268603319502447,0.0106589115890823,,
25.4647254070624,0.267439714172632,0.0106271507363958,,
25.5619190154863,0.265604660158665,0.0105982674919756,,
25.6591126239102,0.264130521018182,0.010564807810312,,
25.7563062323341,0.262571397451453,0.0105363815792527,,
25.853499840758,0.260783497243609,0.0104890003250659,,
25.9506934491819,0.259140106418789,0.0104508538925892,,
26.0478870576058,0.25728748178505,0.0104046419622432,,
26.1450806660297,0.255033601569164,0.0103652348032535,,
26.2422742744536,0.253150138704803,0.0103123441742032,,
26.3394678828775,0.251355604691535,0.0102715628233137,,
26.4366614913014,0.249127721821231,0.0102124189907573,,
26.5338550997253,0.247207683381018,0.0101723310394499,,
26.6310487081492,0.245118572548506,0.0101106153248067,,
26.7282423165731,0.242610814806116,0.0100680689567985,,
26.825435924997,0.240562761850419,0.00997785136750506,,
26.9226295334209,0.238094806940574,0.00993576831649046,,
27.0198231418448,0.235620038933266,0.00986810512452063,,
27.1170167502687,0.233033751278016,0.00981538154173345,,
27.2142103586926,0.230728055663006,0.0097492438288449,,
27.3114039671165,0.228052839156664,0.00965550881257959,,
27.4085975755404,0.225401468491441,0.00961092637125205,,
27.5057911839643,0.222957000838639,0.00952230044918201,,
27.6029847923882,0.220133151232386,0.00942736774272879,,
27.7001784008121,0.217116204100678,0.00934842104846467,,
27.797372009236,0.214457482461877,0.0092851956138218,,
27.8945656176599,0.211341207540844,0.00920435782978757,,
27.9917592260838,0.208500683775012,0.00910407964291826,,
28.0889528345077,0.20556029434374,0.00900625987274939,,
28.1861464429316,0.202558407743265,0.00890295909406413,,
28.2833400513556,0.199494306805433,0.00881549934401882,,
28.3805336597795,0.196354006751242,0.00873879674294864,,
28.4777272682034,0.193220340502475,0.00865849791949902,,
28.5749208766273,0.19002697000489,0.00851539600478812,,
28.6721144850512,0.186798099683684,0.0084425890486437,,
28.7693080934751,0.183339556261169,0.00833115343213153,,
28.866501701899,0.180111761692194,0.00822898415549211,,
28.9636953103229,0.176695172606687,0.00811859494198552,,
29.0608889187468,0.173112357389992,0.00801824111152527,,
29.1580825271707,0.169606323988782,0.00791999269434207,,
29.2552761355946,0.166169474902925,0.00778719721887766,,
29.3524697440185,0.162574512650622,0.00768071940937931,,
29.4496633524424,0.158974126814155,0.00753035255813517,,
29.5468569608663,0.15537356168565,0.0074495399886314,,
29.6440505692902,0.151823422442971,0.00732631657921967,,
29.7412441777141,0.147916648924225,0.00718884696020705,,
29.838437786138,0.14422809622783,0.00710603929099607,,
29.9356313945619,0.140578405080778,0.00695568819883352,,
30.0328250029858,0.136646508265139,0.00680956999593985,,
30.1300186114097,0.132734199104705,0.00667585734193699,,
30.2272122198336,0.128952571428828,0.006557676838578,,
30.3244058282575,0.124995416847266,0.00642948931852017,,
30.4215994366814,0.121060337597944,0.00631604914685147,,
30.5187930451053,0.117092246202034,0.00615893110512866,,
30.6159866535292,0.113075185668112,0.00601819620444699,,
30.7131802619531,0.109124866595518,0.00590470875553395,,
30.810373870377,0.105021925175157,0.00575069840466691,,
30.9075674788009,0.100887988643642,0.00562113669270925,,
31.0047610872248,0.0968780997912592,0.0054727554857239,,
31.1019546956487,0.0927900844331032,0.00534659773535218,,
31.1991483040726,0.0885279540940665,0.00519152837421366,,
31.2963419124965,0.084522749246189,0.00503523610835721,,
31.3935355209204,0.0802448636192698,0.00490062833853022,,
31.4907291293443,0.0760167763560417,0.00476193581479967,,
31.5879227377682,0.0717722166367772,0.00458611489525218,,
31.6851163461921,0.0676181769854464,0.00445711735840915,,
31.782309954616,0.0633335006725693,0.00429300858817028,,
31.8795035630399,0.0590270627885201,0.00415391263195541,,
31.9766971714638,0.0547850131577945,0.00400684888417668,,
32.0738907798877,0.05048218352602,0.00383015806333464,,
32.1710843883116,0.0461949523015943,0.00369300047413423,,
32.2682779967355,0.0418214816066539,0.00353155183683862,,
32.3654716051594,0.0374938872620627,0.00338106206475963,,
32.4626652135834,0.0332120796218014,0.00320608583197579,,
32.5598588220073,0.0288557985510514,0.00308087362648912,,
32.6570524304312,0.0245048962414562,0.0028999057909509,,
32.7542460388551,0.0201014837760876,0.00276155366337916,,
32.851439647279,0.0157377172627305,0.00258898541823571,,
32.9486332557029,0.0114092488694516,0.00243333612290098,,
33.0458268641268,0.00696155127057544,0.00226756634548098,,
33.1430204725507,0.00260222223517109,0.00212284124538398,,
33.2402140809746,-0.00172622374660298,0.00192751688667547,,
33.3374076893985,-0.00613039820313519,0.00178235998774801,,
33.4346012978224,-0.0104970109776033,0.00159306505358936,,
33.5317949062463,-0.0148469944155012,0.00145465934514055,,
