Time domain (s),Current (AC) (A),Potential (AC) (V),Frequency (Hz),Column 5
0,0.151748138973219,0.00600708171960118,0.31623,0.4
0.00772034990355121,0.14633481781367,0.00581909227212263,,
0.0154406998071024,0.141049152750005,0.00567990219367065,,
0.0231610497106536,0.135643795456989,0.00547306222850708,,
0.0308813996142049,0.130295356386541,0.00529716602567865,,
0.0386017495177561,0.124722055202244,0.00512664234221649,,
0.0463220994213073,0.119328438756578,0.00495309331716109,,
0.0540424493248585,0.113902703334494,0.00478433610832019,,
0.0617627992284097,0.108416741171761,0.00462180419969727,,
0.0694831491319609,0.102955168350283,0.0044310127579914,,
0.0772034990355121,0.0973530859865696,0.00425871853904614,,
0.0849238489390633,0.0917221346066775,0.00405853432538761,,
0.0926441988426145,0.0862511925304554,0.00388438835373606,,
0.100364548746166,0.0806453039070026,0.00370160086945326,,
0.108084898649717,0.0750584465822481,0.00350486026609076,,
0.115805248553268,0.0693825520585072,0.00333542489343008,,
0.123525598456819,0.0636710250878192,0.00315054200476839,,
0.131245948360371,0.0579944571488936,0.00295562472808486,,
0.138966298263922,0.0522750248695156,0.00275093701935658,,
0.146686648167473,0.0465454620834459,0.00258843353676186,,
0.154406998071024,0.0407932081335437,0.00240850895962419,,
0.162127347974575,0.0351297278723383,0.00224898208828828,,
0.169847697878127,0.0293573300247372,0.00200838418397886,,
0.177568047781678,0.023697129002692,0.0018444715825483,,
0.185288397685229,0.0178804614264269,0.00167237634580175,,
0.19300874758878,0.0121366398057941,0.00148786299550929,,
0.200729097492332,0.0063539357779749,0.00126268012031039,,
0.208449447395883,0.000553664397511244,0.00109402443299977,,
0.216169797299434,-0.00520069763470822,0.000891614867403856,,
0.223890147202985,-0.0109295284477511,0.000708100488966412,,
0.231610497106536,-0.0167447906358047,0.000500631090317061,,
0.239330847010088,-0.0224646620989988,0.00031261727767129,,
0.247051196913639,-0.0282500012297147,0.000127864336568084,,
0.25477154681719,-0.0339715708703312,-5.41901622681529E-05,,
0.262491896720741,-0.0397285680054473,-0.000268589420553411,,
0.270212246624292,-0.0454805291661387,-0.000436822778299817,,
0.277932596527844,-0.0511884548295346,-0.000643065796867237,,
0.285652946431395,-0.0568707907159118,-0.000825739577036355,,
0.293373296334946,-0.0625527166973939,-0.00101601528936968,,
0.301093646238497,-0.068250804643309,-0.00120297530853453,,
0.308813996142049,-0.0738727088365892,-0.0014076447433875,,
0.3165343460456,-0.0795794047853,-0.00161989783652894,,
0.324254695949151,-0.0851284044651057,-0.00177245423961692,,
0.331975045852702,-0.0907532365504934,-0.001967883184812,,
0.339695395756253,-0.0963532401108102,-0.00215651627879065,,
0.347415745659805,-0.101914127032572,-0.002363508526249,,
0.355136095563356,-0.107387645653849,-0.00254873049682081,,
0.362856445466907,-0.112964226077306,-0.00271566437898318,,
0.370576795370458,-0.118392830833655,-0.00292981795516623,,
0.378297145274009,-0.123849192007182,-0.00309597215197854,,
0.386017495177561,-0.129310062134555,-0.00330572375462168,,
0.393737845081112,-0.134678703660544,-0.00346313897813388,,
0.401458194984663,-0.140003661036291,-0.0036386981294827,,
0.409178544888214,-0.145382550184656,-0.00382752817522958,,
0.416898894791766,-0.150569193937249,-0.00400549135640826,,
0.424619244695317,-0.155850525720595,-0.00421678608630716,,
0.432339594598868,-0.161096898472179,-0.00438722652211476,,
0.440059944502419,-0.166200799993816,-0.00456990436314531,,
0.44778029440597,-0.171263476794581,-0.00473691743210125,,
0.455500644309522,-0.176367085527008,-0.00489933563661049,,
0.463220994213073,-0.181658020796466,-0.00511349124322402,,
0.470941344116624,-0.186502803866598,-0.00525436860950412,,
0.478661694020175,-0.191566827497732,-0.00544116619422086,,
0.486382043923726,-0.196393223405429,-0.0056194237878362,,
0.494102393827278,-0.201294046330496,-0.00577518217997941,,
0.501822743730829,-0.206183391918502,-0.005969177641171,,
0.50954309363438,-0.2111041245099,-0.00612298885036955,,
0.517263443537931,-0.215634159178485,-0.00629674294891558,,
0.524983793441482,-0.22049838345221,-0.00643773604973985,,
0.532704143345034,-0.225113034202699,-0.00663260865695037,,
0.540424493248585,-0.229563430205962,-0.00677200990018489,,
0.548144843152136,-0.234077537141483,-0.00693230021342606,,
0.555865193055687,-0.238664724264004,-0.00708211350477406,,
0.563585542959239,-0.242803826778408,-0.0072555610082996,,
0.57130589286279,-0.247289123255591,-0.00738963440164087,,
0.579026242766341,-0.251491643913041,-0.0075348812545708,,
0.586746592669892,-0.256078421130668,-0.00770810541073041,,
0.594466942573443,-0.260090804474662,-0.00787778240463277,,
0.602187292476995,-0.26411771016351,-0.00801177458075042,,
0.609907642380546,-0.268263136924865,-0.00815767117147193,,
0.617627992284097,-0.272086964017143,-0.00829197400347104,,
0.625348342187648,-0.276082716933968,-0.0084505912418984,,
0.633068692091199,-0.280128068343092,-0.00858346262032494,,
0.640789041994751,-0.283708119138506,-0.00873025463094113,,
0.648509391898302,-0.287536162395419,-0.00885323375148728,,
0.656229741801853,-0.291016606301339,-0.00900161761969365,,
0.663950091705404,-0.294907130775823,-0.0091289174965552,,
0.671670441608956,-0.298240711613636,-0.00922938117218441,,
0.679390791512507,-0.301660782384302,-0.00939396178528185,,
0.687111141416058,-0.305338449102578,-0.00951840281585969,,
0.694831491319609,-0.308323962126662,-0.00965362746335074,,
0.70255184122316,-0.311516945585476,-0.00975222720368985,,
0.710272191126712,-0.315026961201682,-0.0098616917781662,,
0.717992541030263,-0.318014875097294,-0.00997305683568328,,
0.725712890933814,-0.321007122273225,-0.0101261025725456,,
0.733433240837365,-0.323901285063557,-0.0102106334592613,,
0.741153590740916,-0.326840830181555,-0.0103229081496869,,
0.748873940644468,-0.32951534250599,-0.0104258773766759,,
0.756594290548019,-0.332427306880336,-0.0105308587603887,,
0.76431464045157,-0.335099652564611,-0.0106451618509835,,
0.772034990355121,-0.337335156746461,-0.0107603928483622,,
0.779755340258672,-0.340053646010349,-0.0108459775285588,,
0.787475690162224,-0.342340622535447,-0.0109434097713028,,
0.795196040065775,-0.344569158334081,-0.0110203712127435,,
0.802916389969326,-0.346840499915325,-0.0110934484404472,,
0.810636739872877,-0.349134854728534,-0.0112059342956559,,
0.818357089776429,-0.351203527618104,-0.0112974153463128,,
0.82607743967998,-0.353102207091917,-0.0113619992828196,,
0.833797789583531,-0.354980039973925,-0.0114340430213482,,
0.841518139487082,-0.357009889014151,-0.0115115709529263,,
0.849238489390633,-0.35856635645845,-0.0115763335673256,,
0.856958839294185,-0.360050914872591,-0.0116604908548106,,
0.864679189197736,-0.361781240550228,-0.0117306280190066,,
0.872399539101287,-0.363147453565388,-0.0118153558574901,,
0.880119889004838,-0.36460232315356,-0.0118745144834351,,
0.887840238908389,-0.365924559229266,-0.0119071962943633,,
0.895560588811941,-0.36701039729622,-0.0119773030021006,,
0.903280938715492,-0.367973790915243,-0.012035180426337,,
0.911001288619043,-0.369450853925589,-0.0120850315584145,,
0.918721638522594,-0.370339761969399,-0.0121128220620288,,
0.926441988426146,-0.371325173337069,-0.0121678061226613,,
0.934162338329697,-0.372073308328354,-0.0122171516775191,,
0.941882688233248,-0.372814884841319,-0.0122463249043716,,
0.949603038136799,-0.3736365099245,-0.0123155077661861,,
0.95732338804035,-0.373867520611775,-0.0122961130931003,,
0.965043737943902,-0.374366667658246,-0.0123518281087485,,
0.972764087847453,-0.374497368761921,-0.0123968711811662,,
0.980484437751004,-0.374701618515334,-0.0124085644309884,,
0.988204787654555,-0.374910084433381,-0.0124345376992161,,
0.995925137558106,-0.375059524046544,-0.0124432624595019,,
1.00364548746166,-0.375172130776995,-0.0124670428626823,,
1.01136583736521,-0.37503680360379,-0.0124817452106529,,
1.01908618726876,-0.374724514631614,-0.0124639890950609,,
1.02680653717231,-0.374849886971653,-0.0124886304008154,,
1.03452688707586,-0.374362861398507,-0.0124847482175094,,
1.04224723697941,-0.373773125370232,-0.012500114516286,,
1.04996758688297,-0.373079097825091,-0.0124849938996121,,
1.05768793678652,-0.372740574939633,-0.0124885166967017,,
1.06540828669007,-0.372106744856221,-0.0124851238471702,,
1.07312863659362,-0.371490072220558,-0.0124591160616223,,
1.08084898649717,-0.370129656431771,-0.0124644621853904,,
1.08856933640072,-0.369284315422519,-0.0124377376578408,,
1.09628968630427,-0.368430776315367,-0.0124114577945926,,
1.10401003620782,-0.366869155780959,-0.0124121400192738,,
1.11173038611137,-0.365899203683616,-0.0123982660869881,,
1.11945073601493,-0.364541832902621,-0.0123262121963061,,
1.12717108591848,-0.363392693808305,-0.0122972156169157,,
1.13489143582203,-0.361796641262713,-0.0122796747269671,,
1.14261178572558,-0.360217687607029,-0.01223222762472,,
1.15033213562913,-0.358425817637294,-0.0122093568544477,,
1.15805248553268,-0.356601155275956,-0.0121734913283396,,
1.16577283543623,-0.354814204164962,-0.0121260279826472,,
1.17349318533978,-0.352831435629824,-0.0120663982968034,,
1.18121353524334,-0.350749118763034,-0.0120477670656229,,
1.18893388514689,-0.349102530799668,-0.0119617092950968,,
1.19665423505044,-0.34663865103344,-0.0119166662226791,,
1.20437458495399,-0.344451339955679,-0.0118617288619505,,
1.21209493485754,-0.342101706539482,-0.0117869602855571,,
1.21981528476109,-0.339591975982852,-0.0117120475485915,,
1.22753563466464,-0.337266292724094,-0.0116658999219275,,
1.23525598456819,-0.334757440535097,-0.0115935028884744,,
1.24297633447175,-0.331919551831069,-0.0115047994668771,,
1.2506966843753,-0.329392312479637,-0.011423825894572,,
1.25841703427885,-0.326570995644936,-0.011353993294966,,
1.2661373841824,-0.323821177935499,-0.0112884834821059,,
1.27385773408595,-0.320938492482227,-0.011187416768589,,
1.2815780839895,-0.31766229832972,-0.0111051599641447,,
1.28929843389305,-0.314456080798579,-0.0110358654286475,,
1.2970187837966,-0.311631309051192,-0.0109319581427219,,
1.30473913370016,-0.308358862600582,-0.0108182844856128,,
1.31245948360371,-0.30478706846091,-0.010748957463226,,
1.32017983350726,-0.301538279378528,-0.0106132597254054,,
1.32790018341081,-0.298104447514957,-0.0105382150104503,,
1.33562053331436,-0.294602629996653,-0.0104185028527386,,
1.34334088321791,-0.290882157495767,-0.010346804287412,,
1.35106123312146,-0.287109158610474,-0.0102290210387697,,
1.35878158302501,-0.283435473825464,-0.0100767712307022,,
1.36650193292856,-0.279635772564152,-0.00998629524319172,,
1.37422228283212,-0.275746360688668,-0.00985079445713888,,
1.38194263273567,-0.272152783031717,-0.00975237136426221,,
1.38966298263922,-0.267771426724347,-0.00963348762223504,,
1.39738333254277,-0.263610130787769,-0.00952462405521626,,
1.40510368244632,-0.259756087848943,-0.00938981970685893,,
1.41282403234987,-0.255485815768128,-0.00923175271512422,,
1.42054438225342,-0.251273164603986,-0.00912412568034027,,
1.42826473215697,-0.24693637081449,-0.00901519713954224,,
1.43598508206053,-0.242466299376265,-0.00886994825618181,,
1.44370543196408,-0.238285328004726,-0.00871678881520577,,
1.45142578186763,-0.233912872489362,-0.00856936127981189,,
1.45914613177118,-0.229248623246573,-0.00845710486326157,,
1.46686648167473,-0.224731471303261,-0.00831325494658364,,
1.47458683157828,-0.220059023962572,-0.00815822547902556,,
1.48230718148183,-0.215247443188938,-0.0080038640231348,,
1.49002753138538,-0.210695156540337,-0.00785603446248251,,
1.49774788128894,-0.205802473155328,-0.00769213607406583,,
1.50546823119249,-0.200977833982896,-0.00752820722919045,,
1.51318858109604,-0.195980976196706,-0.00739671654357155,,
1.52090893099959,-0.191088761274434,-0.00725330316947304,,
1.52862928090314,-0.186281630896804,-0.00707607094330998,,
1.53634963080669,-0.181125554337813,-0.00695885824566655,,
1.54406998071024,-0.176184619290874,-0.00675698471374897,,
1.55179033061379,-0.171037209292521,-0.00659399798867177,,
1.55951068051734,-0.165758336938545,-0.0064186987324395,,
1.5672310304209,-0.160795852605695,-0.00627505795011363,,
1.57495138032445,-0.155493147209965,-0.00612735630658889,,
1.582671730228,-0.15026937778545,-0.00595645902389652,,
1.59039208013155,-0.144938154720594,-0.00577631922111532,,
1.5981124300351,-0.139731015723249,-0.00561994560850021,,
1.60583277993865,-0.134326361124339,-0.00540574127155269,,
1.6135531298422,-0.12880453228329,-0.00524688038145316,,
1.62127347974575,-0.12352993465179,-0.00509183873131169,,
1.62899382964931,-0.118037970310237,-0.00491492934361393,,
1.63671417955286,-0.112557541863587,-0.00471781514102165,,
1.64443452945641,-0.107043794004754,-0.00454612192953396,,
1.65215487935996,-0.101537482991875,-0.00436175883110623,,
1.65987522926351,-0.0959658214271577,-0.00417911753782629,,
1.66759557916706,-0.0903347236526602,-0.00399930260394132,,
1.67531592907061,-0.0848190433850368,-0.00383283978167759,,
1.68303627897416,-0.0791606576560982,-0.00363244440323651,,
1.69075662887772,-0.0735538613860922,-0.00348510011549763,,
1.69847697878127,-0.067743459498937,-0.00326706435600865,,
1.70619732868482,-0.0621582710726836,-0.00309413664271663,,
1.71391767858837,-0.0564664488158785,-0.00287597093566916,,
1.72163802849192,-0.05069194288596,-0.00270042802776516,,
1.72935837839547,-0.0449900486803053,-0.00251788419515409,,
1.73707872829902,-0.0393132172310901,-0.00233582766588736,,
1.74479907820257,-0.0335424590030691,-0.00217098918810343,,
1.75251942810613,-0.0278136281900263,-0.00194845399440613,,
1.76023977800968,-0.0220744326389232,-0.00173576232825479,,
1.76796012791323,-0.0163058410510617,-0.00159147180813735,,
1.77568047781678,-0.0105353170544094,-0.00139070486089654,,
1.78340082772033,-0.00477457221739576,-0.00120120680348235,,
1.79112117762388,0.00100596517026395,-0.00101763963384949,,
1.79884152752743,0.00682453587639892,-0.000781656898292127,,
1.80656187743098,0.0125573193437868,-0.000633433434103381,,
1.81428222733453,0.0183154290779037,-0.000425923426842001,,
1.82200257723809,0.0240543318397961,-0.000250607927164914,,
1.82972292714164,0.0298403151067755,-5.30693645770519E-05,,
1.83744327704519,0.0355476259128289,0.000104148907166923,,
1.84516362694874,0.0412092030441646,0.000337421017873929,,
1.85288397685229,0.0469940151543011,0.000514100966913844,,
1.86060432675584,0.0526148653064226,0.000695560549584417,,
1.86832467665939,0.0583184284105785,0.000930176805348459,,
1.87604502656294,0.0640694819247166,0.00107792717920763,,
1.8837653764665,0.0697027463393736,0.00129370509987004,,
1.89148572637005,0.0753599023536271,0.00148104074869559,,
1.8992060762736,0.0810409792463981,0.00166441705785214,,
1.90692642617715,0.0866144853831428,0.00184231120439016,,
1.9146467760807,0.0921519491680453,0.0020299067483327,,
1.92236712598425,0.0977892247948894,0.00222948995453409,,
1.9300874758878,0.103329938540031,0.00242603157569743,,
1.93780782579135,0.108811655259209,0.00262531021730883,,
1.94552817569491,0.114294103951413,0.0027979820963453,,
1.95324852559846,0.119846295033616,0.00301382092992553,,
1.96096887550201,0.125235724593568,0.00317841575603728,,
1.96868922540556,0.130727044798857,0.00332355093528447,,
1.97640957530911,0.136119782876891,0.00351763979628394,,
1.98412992521266,0.141428344056836,0.00371741792382263,,
1.99185027511621,0.14662456201662,0.0039099271098153,,
1.99957062501976,0.151980760001152,0.00406478805163379,,
2.00729097492332,0.157179964410886,0.00427384118615093,,
2.01501132482687,0.162409413946089,0.00444020654774535,,
2.02273167473042,0.167688754762802,0.00464605972363774,,
2.03045202463397,0.172759366151178,0.00480144451655073,,
2.03817237453752,0.177831909948345,0.00498529188560681,,
2.04589272444107,0.182860184016848,0.00513110522867377,,
2.05361307434462,0.187826767398647,0.00531066026744265,,
2.06133342424817,0.192888536552859,0.00551649719988978,,
2.06905377415173,0.197641354531897,0.00563686112582396,,
2.07677412405528,0.20254425626036,0.00584662491105092,,
2.08449447395883,0.207309224991644,0.00599972749997013,,
2.09221482386238,0.212214732544083,0.00618426521542981,,
2.09993517376593,0.216798640427444,0.00632610297538339,,
2.10765552366948,0.221455628497806,0.00649243585008819,,
2.11537587357303,0.226121517360175,0.00666721531608694,,
2.12309622347658,0.230716668349229,0.00682176763245401,,
2.13081657338013,0.235145544345503,0.00699314409676832,,
2.13853692328369,0.239646270814092,0.00714331474390173,,
2.14625727318724,0.24393460798921,0.0072910651177609,,
2.15397762309079,0.248199697700996,0.00745992790899308,,
2.16169797299434,0.252638382135829,0.00759733120851758,,
2.16941832289789,0.256784980054028,0.00776689652873674,,
2.17713867280144,0.261069774479696,0.00788477520761699,,
2.18485902270499,0.265191543872824,0.00805476285740125,,
2.19257937260854,0.269018415972893,0.00820465736597331,,
2.2002997225121,0.272960061443573,0.00834643015214764,,
2.20802007241565,0.277056533848892,0.00848209540307909,,
2.2157404223192,0.280893243666442,0.00862239003577692,,
2.22346077222275,0.284604639701795,0.00876503996797062,,
2.2311811221263,0.28814926300271,0.00887929635866147,,
2.23890147202985,0.291900478370724,0.0090159687031699,,
2.2466218219334,0.295627567907773,0.0091449132288175,,
2.25434217183695,0.299018066968154,0.009269171520641,,
2.26206252174051,0.302363827837133,0.0093905587835974,,
2.26978287164406,0.305742146866347,0.00949875636937936,,
2.27750322154761,0.309017638324749,0.00963565612211514,,
2.28522357145116,0.312116285099863,0.00975861899921648,,
2.29294392135471,0.315269742015228,0.00991515301584878,,
2.30066427125826,0.318231363439716,0.0100112329918138,,
2.30838462116181,0.321295812435015,0.0101156011854857,,
2.31610497106536,0.324337306756193,0.0102021625028001,,
2.32382532096891,0.327147380485201,0.0103276106269554,,
2.33154567087247,0.329678250422846,0.0104407015504822,,
2.33926602077602,0.332477549508899,0.0105436159558447,,
2.34698637067957,0.335306361747394,0.0106452187030404,,
2.35470672058312,0.337764385729407,0.0107537249142737,,
2.36242707048667,0.340396443618284,0.0108302152958153,,
2.37014742039022,0.342410599156814,0.0109412879713262,,
2.37786777029377,0.344850118860708,0.0110304807266979,,
2.38558812019732,0.346974597373845,0.011113582190271,,
2.39330847010088,0.349182930716938,0.0111836361068125,,
2.40102882000443,0.351133609554579,0.0112777871737082,,
2.40874916990798,0.353199295994199,0.0113545536938111,,
2.41646951981153,0.355025832206485,0.0114570173435808,,
2.42418986971508,0.356472913601652,0.011499802577172,,
2.43191021961863,0.358369719224516,0.0115663682139435,,
2.43963056952218,0.360012383812458,0.0116423063183619,,
2.44735091942573,0.361631391032171,0.0117143297525848,,
2.45507126932929,0.362977518707474,0.0117644082928892,,
2.46279161923284,0.364381033068082,0.0118264907388972,,
2.47051196913639,0.365845681815893,0.0119043618132464,,
2.47823231903994,0.366870912516223,0.011950460709576,,
2.48595266894349,0.367751153999395,0.011999044852959,,
2.49367301884704,0.368843609102512,0.0120701748977181,,
2.50139336875059,0.369777255337723,0.0120718642159772,,
2.50911371865414,0.370790774469624,0.0121543606112318,,
2.5168340685577,0.371717862226514,0.0121806628092167,,
2.52455441846125,0.372472789927489,0.0122397524005211,,
2.5322747683648,0.372833740466491,0.0122571166430077,,
2.53999511826835,0.373395427288376,0.0123048277012328,,
2.5477154681719,0.373583983540093,0.0123337085460791,,
2.55543581807545,0.373835313798593,0.0123593934931621,,
2.563156167979,0.374367721699405,0.0123770298133485,,
2.57087651788255,0.374614367330533,0.0124168912268763,,
2.5785968677861,0.37461483579327,0.0124131552345736,,
2.58631721768966,0.374296749594721,0.0124399244315963,,
2.59403756759321,0.374259506807115,0.0124382351133376,,
2.60175791749676,0.374033473536423,0.0124535404991959,,
2.60947826740031,0.374019185422939,0.0124655768917896,,
2.61719861730386,0.373696648828386,0.012458620636556,,
2.62491896720741,0.372861613999353,0.0124707544898182,,
2.63263931711096,0.372407205144283,0.0124637576259725,,
