Time domain (s),Current (AC) (A),Potential (AC) (V),Frequency (Hz),Column 5
0,-0.348217692525888,-0.0110762395204524,1.5849,0.4
0.00154041658779734,-0.346425178419889,-0.0110411852304289,,
0.00308083317559467,-0.344051887635465,-0.0110190466755729,,
0.00462124976339201,-0.341598079818087,-0.0109401508504838,,
0.00616166635118935,-0.33925881113995,-0.0108926566432479,,
0.00770208293898669,-0.336617383996329,-0.0108357289307617,,
0.00924249952678402,-0.334037091239911,-0.0108003905703162,,
0.0107829161145814,-0.331363340167424,-0.0107251095413421,,
0.0123233327023787,-0.328683264847985,-0.0106724594559542,,
0.013863749290176,-0.325966649435046,-0.0106123903980562,,
0.0154041658779734,-0.323069910099658,-0.0105500653475596,,
0.0169445824657707,-0.320139968467773,-0.0104656964323482,,
0.018484999053568,-0.317006831123634,-0.0103954552861034,,
0.0200254156413654,-0.313807699091393,-0.0103287555511145,,
0.0215658322291627,-0.310537829185838,-0.0102494430894073,,
0.0231062488169601,-0.3076795037949,-0.0101517820457189,,
0.0246466654047574,-0.303999494762938,-0.0100874850730461,,
0.0261870819925547,-0.300837137055566,-0.010007052900427,,
0.0277274985803521,-0.297341936573425,-0.00990727079759068,,
0.0292679151681494,-0.293790989025558,-0.00980960738664871,,
0.0308083317559468,-0.289973251948864,-0.00972768147706304,,
0.0323487483437441,-0.286361638476531,-0.00966562155896034,,
0.0338891649315414,-0.282421398394063,-0.00954214798296338,,
0.0354295815193388,-0.278694074625646,-0.00945491705825452,,
0.0369699981071361,-0.275009146734944,-0.00931714053653065,,
0.0385104146949334,-0.270958583677868,-0.00922012338579803,,
0.0400508312827308,-0.266904214361053,-0.00911806635233559,,
0.0415912478705281,-0.263024932992261,-0.0089995545397028,,
0.0431316644583254,-0.258937595610317,-0.00891491812484402,,
0.0446720810461228,-0.254590085735708,-0.00879085510272271,,
0.0462124976339201,-0.250575301520185,-0.00867381808902845,,
0.0477529142217175,-0.245945015825842,-0.00854793701620915,,
0.0492933308095148,-0.241696058799569,-0.00843347794159088,,
0.0508337473973121,-0.237245370007095,-0.00831801278422928,,
0.0523741639851095,-0.232548855393283,-0.00820394667369406,,
0.0539145805729068,-0.228139449879523,-0.00808501585718968,,
0.0554549971607042,-0.223491831063905,-0.00793658196014935,,
0.0569954137485015,-0.21883314481612,-0.00779141960746443,,
0.0585358303362988,-0.214176683766337,-0.00768256382191224,,
0.0600762469240962,-0.209459966696984,-0.00756847877334899,,
0.0616166635118935,-0.204908382742489,-0.00742686256642688,,
0.0631570800996908,-0.200035199118915,-0.00729350097250547,,
0.0646974966874882,-0.195065980634219,-0.00715150363776784,,
0.0662379132752855,-0.190071465161715,-0.00700244005129314,,
0.0677783298630829,-0.185090769339957,-0.00687712948657015,,
0.0693187464508802,-0.180104217733985,-0.0067387114391444,,
0.0708591630386775,-0.175016712408149,-0.0066153893673726,,
0.0723995796264749,-0.169846289177832,-0.0064488838570127,,
0.0739399962142722,-0.164730207625027,-0.00628864920120886,,
0.0754804128020695,-0.159588594853047,-0.0061587153903746,,
0.0770208293898669,-0.154315344051917,-0.00600834744721412,,
0.0785612459776642,-0.149025931286354,-0.00587422833216866,,
0.0801016625654615,-0.143764333495812,-0.00570374820315989,,
0.0816420791532589,-0.138404007183408,-0.005542756026232,,
0.0831824957410562,-0.133107157571892,-0.00539492814609099,,
0.0847229123288536,-0.127643183878886,-0.00524743641594938,,
0.0862633289166509,-0.122170660740925,-0.00509769342771627,,
0.0878037455044482,-0.116702997903863,-0.00491870775683445,,
0.0893441620922456,-0.111289793859999,-0.00475285087393695,,
0.0908845786800429,-0.105770014543426,-0.00458508125020041,,
0.0924249952678402,-0.100213343786299,-0.00440847940360634,,
0.0939654118556376,-0.0946348309540501,-0.00425542462770867,,
0.0955058284434349,-0.0892001947399598,-0.00409210307332364,,
0.0970462450312323,-0.0835097778713662,-0.00397260411597555,,
0.0985866616190296,-0.0778303113192543,-0.00378585622082372,,
0.100127078206827,-0.0722362221009945,-0.00360234909573176,,
0.101667494794624,-0.0665307558669688,-0.00343101438820437,,
0.103207911382422,-0.0608567937520188,-0.00326526876622202,,
0.104748327970219,-0.0550752608810426,-0.00308874740624754,,
0.106288744558016,-0.0494846265754695,-0.00290701808854354,,
0.107829161145814,-0.0437471292017887,-0.00274136952395532,,
0.109369577733611,-0.0380845273082155,-0.00259465425296579,,
0.110909994321408,-0.0322719002230585,-0.00241851165355333,,
0.112450410909206,-0.026525794846582,-0.00223379249466227,,
0.113990827497003,-0.0207516402637164,-0.00206613176458781,,
0.1155312440848,-0.0150458226826378,-0.00191612364396132,,
0.117071660672598,-0.00920760582046212,-0.00174251874031484,,
0.118612077260395,-0.00348082453189447,-0.00154204077478637,,
0.120152493848192,0.00232735215725919,-0.00136693976691982,,
0.12169291043599,0.00810349770675779,-0.00119956547452027,,
0.123233327023787,0.01390400331859,-0.00100473340862051,,
0.124773743611584,0.0196384556844791,-0.000836147082422301,,
0.126314160199382,0.0252916297654665,-0.000664301048136196,,
0.127854576787179,0.0310396675507339,-0.000485469248732606,,
0.129394993374976,0.0368764790246981,-0.000295047376128288,,
0.130935409962774,0.0425594004894967,-0.000134339269622252,,
0.132475826550571,0.0482533015496982,2.09336228178536E-05,,
0.134016243138368,0.0539561619597483,0.000193042422243828,,
0.135556659726166,0.059630416863909,0.000392246805382079,,
0.137097076313963,0.0653702858301968,0.000576191872374121,,
0.13863749290176,0.070979131624678,0.000742268909848409,,
0.140177909489558,0.0765957948910859,0.000919088543765767,,
0.141718326077355,0.0822976890967406,0.00110977554876346,,
0.143258742665152,0.087976160165536,0.00124440599056808,,
0.14479915925295,0.0934501179706288,0.00144885620749191,,
0.146339575840747,0.0990227457397413,0.00164062268009157,,
0.147879992428544,0.104605650410151,0.00177171171064039,,
0.149420409016342,0.110128591850201,0.00196346397971903,,
0.150960825604139,0.115574002707246,0.00216299504384265,,
0.152501242191936,0.121028812097957,0.00229809893634947,,
0.154041658779734,0.126469509048709,0.00247246136112,,
0.155582075367531,0.131963171567685,0.00265830023092306,,
0.157122491955328,0.137300601763809,0.00281953860221629,,
0.158662908543126,0.142621635764132,0.00301986032901258,,
0.160203325130923,0.147913361564459,0.00317248189751806,,
0.16174374171872,0.153120588398567,0.00331842307660857,,
0.163284158306518,0.158472306708176,0.00347606322256189,,
0.164824574894315,0.1635584066458,0.00364705941283638,,
0.166364991482112,0.168743820683707,0.00385412307763877,,
0.16790540806991,0.173897145024118,0.0039818222011565,,
0.169445824657707,0.178927702848464,0.00417012301461295,,
0.170986241245504,0.184029291335337,0.00434866600908812,,
0.172526657833302,0.189020059105944,0.00449845160788431,,
0.174067074421099,0.194067481588829,0.0046398050496661,,
0.175607491008896,0.198788707612028,0.00481085805402515,,
0.177147907596694,0.203696528199232,0.00496135382887575,,
0.178688324184491,0.20842074067238,0.00513033785366401,,
0.180228740772288,0.213206087532731,0.0052614647602689,,
0.181769157360086,0.217927489229456,0.00545743547510824,,
0.183309573947883,0.222551450676847,0.00560132187814943,,
0.18484999053568,0.227336563305829,0.00574214978965149,,
0.186390407123478,0.231713879122091,0.00589463879195984,,
0.187930823711275,0.236179500164313,0.00604118125344311,,
0.189471240299073,0.240703415538394,0.00620056369798183,,
0.19101165688687,0.244944437977056,0.00633750457921556,,
0.192552073474667,0.249302546821094,0.00649677339558563,,
0.194092490062465,0.253541666129886,0.00663581639793875,,
0.195632906650262,0.257884315703597,0.00678922862911735,,
0.197173323238059,0.262082678754255,0.00691420541109489,,
0.198713739825857,0.265973964480687,0.00704400665573246,,
0.200254156413654,0.269902727226094,0.00719098942636887,,
0.201794573001451,0.274065018645988,0.00732696446816883,,
0.203334989589249,0.277888377275528,0.00748829279509566,,
0.204875406177046,0.281492026881329,0.00760820838906184,,
0.206415822764843,0.285492698656894,0.00774210024777,,
0.207956239352641,0.289071051274886,0.00788320749518689,,
0.209496655940438,0.292787600400348,0.00798416138851232,,
0.211037072528235,0.296396403096258,0.00811519360497659,,
0.212577489116033,0.299796505642751,0.00825534448197374,,
0.21411790570383,0.303154915005634,0.0083515449302447,,
0.215658322291627,0.30651472975673,0.00847576419109775,,
0.217198738879425,0.30958573723035,0.00861485927302841,,
0.218739155467222,0.31263847465722,0.00872273028111925,,
0.220279572055019,0.316062234571941,0.00884522144690791,,
0.221819988642817,0.319165800205796,0.00893407867478047,,
0.223360405230614,0.322030215612317,0.00905011197298533,,
0.224900821818411,0.324939134978871,0.00915044091138295,,
0.226441238406209,0.327843135486685,0.00926946641802839,,
0.227981654994006,0.33051056231222,0.00937099318670365,,
0.229522071581803,0.333310095629641,0.00946070736034832,,
0.231062488169601,0.335813092034424,0.00955220170863447,,
0.232602904757398,0.337987696060439,0.00965777648081767,,
0.234143321345195,0.340797769789447,0.00974229690025386,,
0.235683737932993,0.342960428015664,0.00984727039004474,,
0.23722415452079,0.345129410488834,0.00991226570250392,,
0.238764571108587,0.34767339738312,0.0100261400655044,,
0.240304987696385,0.349634616632348,0.0101120050849364,,
0.241845404284182,0.351539854584482,0.0101834203889237,,
0.243385820871979,0.353587270977351,0.0102560666647378,,
0.244926237459777,0.355273268368483,0.0103198688814263,,
0.246466654047574,0.357421404249847,0.0104054308924084,,
0.248007070635371,0.358793531607064,0.0104838295942598,,
0.249547487223169,0.360514195240747,0.0105339443511348,,
0.251087903810966,0.362027798344593,0.0106040150551263,,
0.252628320398763,0.363445600818685,0.0106701655873001,,
0.254168736986561,0.364640649261246,0.0107491797750647,,
0.255709153574358,0.365984200391494,0.0108024335100985,,
0.257249570162155,0.367311355325941,0.0108689580683272,,
0.258789986749953,0.368228371133982,0.0109396158511901,,
0.26033040333775,0.369033658579204,0.0109740073102307,,
0.261870819925547,0.36983660371074,0.0110455977909778,,
0.263411236513345,0.371099813481561,0.0110856469859146,,
0.264951653101142,0.371690310761784,0.0111333518787133,,
0.266492069688939,0.372711559528848,0.0111643202891734,,
0.268032486276737,0.373048384236885,0.0111945595855514,,
0.269572902864534,0.373507009256589,0.0112601230388538,,
0.271113319452331,0.373910824136043,0.0112555779121082,,
0.272653736040129,0.374131938547995,0.0113113504048799,,
0.274194152627926,0.374169649798339,0.0113482606216584,,
0.275734569215723,0.374331737905405,0.0113572751230366,,
0.277274985803521,0.374686364197454,0.0113861177398418,,
0.278815402391318,0.37439404344945,0.0114163049566427,,
0.280355818979115,0.374495231400682,0.0114045018306257,,
0.281896235566913,0.37441067387662,0.0114293343199794,,
0.28343665215471,0.3739663369704,0.0114534613677866,,
0.284977068742507,0.373241390884605,0.0114466436776683,,
0.286517485330305,0.372906440027517,0.0114785163789706,,
0.288057901918102,0.372509652089121,0.0114717176268804,,
0.289598318505899,0.371777679062269,0.0114891784887941,,
0.291138735093697,0.371014787494762,0.0114754673564454,,
0.292679151681494,0.370638143454065,0.0114802397395279,,
0.294219568269291,0.369699578360113,0.0114473065086518,,
0.295759984857089,0.36833518063806,0.0114355649312263,,
0.297300401444886,0.367192834253433,0.0114392767847349,,
0.298840818032683,0.36583850848023,0.0114068170045618,,
0.300381234620481,0.364872538316153,0.0114141223489033,,
0.301921651208278,0.363414448046663,0.0113790538553586,,
0.303462067796075,0.361895926084075,0.0113531276948815,,
0.305002484383873,0.360382557211597,0.0113579190159925,,
0.30654290097167,0.358932430808639,0.0112937380387415,,
0.308083317559468,0.356866510137651,0.0112706147064245,,
0.309623734147265,0.35546674347894,0.0112482678332593,,
0.311164150735062,0.353452353709042,0.0111995402869431,,
0.31270456732286,0.35182140068953,0.0111546429568112,,
0.314244983910657,0.349713084140826,0.0111427640786816,,
0.315785400498454,0.347447832575165,0.0110789808000211,,
0.317325817086252,0.345196869122989,0.011029874493143,,
0.318866233674049,0.343293739253172,0.0109856541975155,,
0.320406650261846,0.340893101956464,0.0109482942025698,,
0.321947066849644,0.338341853889752,0.0108951162196487,,
0.323487483437441,0.335825506296959,0.0108240938797444,,
0.325027900025238,0.333424166306146,0.0107731505841397,,
0.326568316613036,0.330473787987351,0.0107126861949047,,
0.328108733200833,0.327883423282083,0.010644712877526,,
0.32964914978863,0.325182969833576,0.0105981774079629,,
0.331189566376428,0.322220879946352,0.0104963334273167,,
0.332729982964225,0.319257150439547,0.0104089533656362,,
0.334270399552022,0.316418500483571,0.0103614189150907,,
0.33581081613982,0.313194539926259,0.0102845257864739,,
0.337351232727617,0.309953246247672,0.0101830226903332,,
0.338891649315414,0.306904490754068,0.0101267767468589,,
0.340432065903212,0.303220265557472,0.0100453053499479,,
0.341972482491009,0.299934233687483,0.00995275520659433,,
0.343512899078806,0.296632274084431,0.00985344418720713,,
0.345053315666604,0.292781276153396,0.00979138426910442,,
0.346593732254401,0.289269211012716,0.00969396705252779,,
0.348134148842198,0.285520103727019,0.00959467497116906,,
0.349674565429996,0.281817374252304,0.00947474517368141,,
0.351214982017793,0.278131509436128,0.0093963370028165,,
0.35275539860559,0.274281448430568,0.00929715854962598,,
0.354295815193388,0.270293659380275,0.00920841021541507,,
0.355836231781185,0.266136286819122,0.00907982100457616,,
0.357376648368982,0.262212911395192,0.00894337724658056,,
0.35891706495678,0.258082475441427,0.00883957791453227,,
0.360457481544577,0.253984831879264,0.00876437500492422,,
0.361997898132374,0.249607047600264,0.0086194043997736,,
0.363538314720172,0.245326937801968,0.00850943127056292,,
0.365078731307969,0.241148015954904,0.00837731958649668,,
0.366619147895766,0.236677944516679,0.00826227580026062,,
0.368159564483564,0.232081388139414,0.00813028721337705,,
0.369699981071361,0.227621154418669,0.00801522448911296,,
0.371240397659158,0.222841429111165,0.00790384994582238,,
0.372780814246956,0.218169684464581,0.00781936266793481,,
0.374321230834753,0.213548533793614,0.00764742904526905,,
0.37586164742255,0.2088285374851,0.00752982389073154,,
0.377402064010348,0.204096361145419,0.00737485400674132,,
0.378942480598145,0.199283140752206,0.0072328945480602,,
0.380482897185942,0.194252085186201,0.00708944371966513,,
0.38202331377374,0.189461614514662,0.00696293769191803,,
0.383563730361537,0.18430170241701,0.00681104523749498,,
0.385104146949334,0.179453552270955,0.00667817603230469,,
0.386644563537132,0.174172396161135,0.00653856962361532,,
0.388184980124929,0.16911296932061,0.00640599869236702,,
0.389725396712726,0.164013254684686,0.00626531755058268,,
0.391265813300524,0.158875418893524,0.00612242539401731,,
0.392806229888321,0.153637039287393,0.00596158472131414,,
0.394346646476118,0.148197249983194,0.00580011909368361,,
0.395887063063916,0.142978838601236,0.005646702127998,,
0.397427479651713,0.13770652472558,0.0054984552439854,,
0.39896789623951,0.132274699287913,0.00536441188105252,,
0.400508312827308,0.12694546718969,0.00517701535843784,,
0.402048729415105,0.121420446946244,0.00505007849055161,,
0.403589146002902,0.115973367190697,0.00486459944328255,,
0.4051295625907,0.110573602171606,0.00470294443537123,,
0.406669979178497,0.104946457051453,0.00455629308022631,,
0.408210395766294,0.0994607583990099,0.00438010313574377,,
0.409750812354092,0.0939131933863368,0.00424731441717263,,
0.411291228941889,0.0883458065440965,0.00408276189096091,,
0.412831645529686,0.0826888554822906,0.00391657595982498,,
0.414372062117484,0.0770309967739314,0.00373936336182457,,
0.415912478705281,0.0714354436096178,0.00357609388701663,,
0.417452895293078,0.0657621256309315,0.00340070880872867,,
0.418993311880876,0.0600845914876105,0.00323833415574892,,
0.420533728468673,0.0543323375377083,0.00308288608654905,,
0.42207414505647,0.048665343805974,0.00290909653712879,,
0.423614561644268,0.0429304229773477,0.00273859273558452,,
0.425154978232065,0.0372643661710877,0.00254616816650799,,
0.426695394819862,0.0315226233538512,0.00239119828251777,,
0.42823581140766,0.0257968375486001,0.00223240291685034,,
0.429776227995457,0.0200233271019982,0.00203261145484079,,
0.431316644583254,0.0142759627319154,0.00186002447020517,,
0.432857061171052,0.00845367360280403,0.00166299322579189,,
0.434397477758849,0.00270633851164235,0.00152903981849217,,
0.435937894346646,-0.00304287043046807,0.00133877418461958,,
0.437478310934444,-0.0088064260439048,0.00116295353168505,,
0.439018727522241,-0.0146134315762155,0.00101572930118987,,
0.440559144110038,-0.0203743520867556,0.000836575555308805,,
0.442099560697836,-0.026147686859831,0.000638635285546307,,
0.443639977285633,-0.0318369325715817,0.000474272139615373,,
0.445180393873431,-0.0376542442841105,0.000285100176866226,,
0.446720810461228,-0.0432995130564078,0.000133368695681924,,
0.448261227049025,-0.0490428662143034,-6.94362800497395E-05,,
0.449801643636823,-0.0547278957614194,-0.000232630002745093,,
0.45134206022462,-0.0604087677017429,-0.000426041716536485,,
0.452882476812417,-0.0661265310826197,-0.000594246914919161,,
0.454422893400215,-0.0718066417709953,-0.000753136970727208,,
0.455963309988012,-0.0774726985772552,-0.000919490976862836,,
0.457503726575809,-0.0830682517415688,-0.00109017942418088,,
0.459044143163607,-0.0887390517330428,-0.00126505317571013,,
0.460584559751404,-0.0943165105241325,-0.00142390535546211,,
0.462124976339201,-0.0998140964185321,-0.00163502886003952,,
0.463665392926999,-0.105390266937095,-0.00178632239932375,,
0.465205809514796,-0.110883695224702,-0.00195106430581671,,
0.466746226102593,-0.116405055603013,-0.00213662147245142,,
0.468286642690391,-0.121858606000118,-0.00231829160881736,,
0.469827059278188,-0.127324629217599,-0.00249782411526045,,
0.471367475865985,-0.132823210595315,-0.00263296351657027,,
0.472907892453783,-0.138068822094951,-0.00281869112545818,,
0.47444830904158,-0.143408301815551,-0.00300886680369716,,
0.475988725629377,-0.148677629241257,-0.00317589784433725,,
0.477529142217175,-0.153974771641983,-0.00331875212484656,,
0.479069558804972,-0.159233441540418,-0.00351028897385586,,
0.480609975392769,-0.164387058670039,-0.00367211442402038,,
0.482150391980567,-0.169531247987074,-0.00382945156152337,,
0.483690808568364,-0.174682698476536,-0.00399906054123944,,
0.485231225156161,-0.179700695643742,-0.00415785590690732,,
0.486771641743959,-0.184671729421545,-0.00434274787530464,,
0.488312058331756,-0.189796477534987,-0.00451004641559161,,
0.489852474919553,-0.194654201888233,-0.00464899472780411,,
0.491392891507351,-0.199642158882417,-0.00479985742694922,,
0.492933308095148,-0.20431554314858,-0.00496300617182754,,
0.494473724682945,-0.209287396736173,-0.00514740575149419,,
0.496014141270743,-0.213937767770373,-0.00528752822144929,,
0.49755455785854,-0.218563310279501,-0.00546105737298319,,
0.499094974446337,-0.223280320138065,-0.00559835807675046,,
0.500635391034135,-0.227971037525505,-0.00574171658225842,,
0.502175807621932,-0.232200319116817,-0.00590958563064214,,
0.503716224209729,-0.236827501245525,-0.00604082616541568,,
0.505256640797527,-0.24116534907618,-0.00618658980049291,,
0.506797057385324,-0.245795107749943,-0.00634911595769738,,
0.508337473973121,-0.250108419844737,-0.00648855902589451,,
0.509877890560919,-0.254374065856023,-0.00663977918031966,,
0.511418307148716,-0.258597725894489,-0.00681020249524433,,
0.512958723736513,-0.262737531102998,-0.00693462297264613,,
0.514499140324311,-0.266562763583487,-0.00706041172257876,,
0.516039556912108,-0.270729329725858,-0.0072007259400686,,
0.517579973499905,-0.274725258316209,-0.00734167931600682,,
0.519120390087703,-0.278676682946528,-0.00747415082260705,,
0.5206608066755,-0.282323489681991,-0.00759597915741228,,
