Time domain (s),Current (AC) (A),Potential (AC) (V),Frequency (Hz),Column 5
0,0.0657635895769852,-0.00403503006076855,0.0031623,0.4
0.772034990355121,0.0714056962258065,-0.00372080062120128,,
1.54406998071024,0.0771586821487355,-0.00343649160694692,,
2.31610497106536,0.082743929132831,-0.00313010775121603,,
3.08813996142049,0.0882928702547945,-0.00281082660031728,,
3.86017495177561,0.0938699191409892,-0.00254073060025872,,
4.63220994213073,0.0993867705654556,-0.00219729544694935,,
5.40424493248585,0.104981650314584,-0.00190834080748381,,
6.17627992284097,0.110502893577212,-0.00160712236719762,,
6.94831491319609,0.115945757168124,-0.00127932965122612,,
7.72034990355121,0.121382764974821,-0.000984706049526718,,
8.49238489390633,0.126759516761948,-0.000709753259474422,,
9.26441988426146,0.132428150113263,-0.000390311704558499,,
10.0364548746166,0.13762691533918,-7.2181807809546E-05,,
10.8084898649717,0.143012860707524,0.000231830504981545,,
11.5805248553268,0.148328009644711,0.000519083643604645,,
12.3525598456819,0.153624215119963,0.000852573747838203,,
13.1245948360371,0.158761143264572,0.00116376566322884,,
13.8966298263922,0.163965295811967,0.00146516278140796,,
14.6686648167473,0.169128926332595,0.00178408657652129,,
15.4406998071024,0.174160684592706,0.00209714648806347,,
16.2127347974575,0.179343961269375,0.00240792825647285,,
16.9847697878127,0.184338740252169,0.00268173588366682,,
17.7568047781678,0.189261375973436,0.00295852012211961,,
18.5288397685229,0.194271994852531,0.00327757386479099,,
19.300874758878,0.199178937072103,0.00357772023772096,,
20.0729097492332,0.203947185042547,0.00387502806867257,,
20.8449447395883,0.208936078962205,0.00420843695568207,,
21.6169797299434,0.21344620396446,0.00449933674766223,,
22.3890147202985,0.218291748286539,0.00482895685117324,,
23.1610497106536,0.222977751767686,0.00514043708770906,,
23.9330847010088,0.227806460710147,0.00539106938004119,,
24.7051196913639,0.23215353140094,0.00570101055018224,,
25.477154681719,0.236628550976827,0.00600842180379679,,
26.2491896720741,0.241055055380494,0.00627588636579812,,
27.0212246624292,0.245108429213992,0.00658889348614489,,
27.7932596527844,0.249625112694567,0.00685706057713364,,
28.5652946431395,0.253993761950192,0.00715542017113568,,
29.3373296334946,0.258049478097376,0.00742491516373667,,
30.1093646238497,0.262202634493895,0.00774539832955012,,
30.8813996142048,0.266527482483593,0.00802111456150767,,
31.65343460456,0.27033139990954,0.00831213211846249,,
32.4254695949151,0.274427169620754,0.00860159030471674,,
33.1975045852702,0.278291518739798,0.00886385290352232,,
33.9695395756253,0.28195817658375,0.0091414939836878,,
34.7415745659805,0.285738670872837,0.00941355137970534,,
35.5136095563356,0.289332248529788,0.00964402961790745,,
36.2856445466907,0.292830494019722,0.00995778799757563,,
37.0576795370458,0.296457098299644,0.0102128588111983,,
37.8297145274009,0.300120711135804,0.0104733874222718,,
38.6017495177561,0.303180709735101,0.0107398611341409,,
39.3737845081112,0.306576127654222,0.0110072566615016,,
40.1458194984663,0.309917906589936,0.0112712816740679,,
40.9178544888214,0.312865239900939,0.0115193678064283,,
41.6898894791766,0.316255270498583,0.0117345569022165,,
42.4619244695317,0.31924851315783,0.0120315723511619,,
43.2339594598868,0.322207792268632,0.0122714393004562,,
44.0059944502419,0.324939164257792,0.012494624231945,,
44.778029440597,0.327920226885873,0.0127609517528109,,
45.5500644309522,0.330583437546773,0.0129802666835772,,
46.3220994213073,0.333171928401092,0.0132029155813882,,
47.0941344116624,0.336063983109108,0.0134455357945749,,
47.8661694020175,0.338607267309288,0.0136879164169508,,
48.6382043923726,0.340746033935909,0.0139119135206798,,
49.4102393827278,0.343233336838996,0.0141257219236604,,
50.1822743730829,0.345625307575066,0.0143551159119228,,
50.954309363438,0.347696849798901,0.0145617041036918,,
51.7263443537931,0.349776355889268,0.014767098402269,,
52.4983793441482,0.351684638849193,0.0149696176111167,,
53.2704143345034,0.353762271088611,0.0151611440686996,,
54.0424493248585,0.355680625997386,0.0153500959402826,,
54.8144843152136,0.357598512443424,0.0155647652458373,,
55.5865193055687,0.359065503504921,0.0157647058078241,,
56.3585542959239,0.360528044170415,0.0159506770072868,,
57.130589286279,0.362032043788149,0.0161497729101443,,
57.9026242766341,0.363578439283599,0.0163207351666164,,
58.6746592669892,0.364901143822042,0.016480509750485,,
59.4466942573443,0.366131326969892,0.0166628058705629,,
60.2187292476995,0.367481670809829,0.0168444238268206,,
60.9907642380546,0.368516973459009,0.0170032034996956,,
61.7627992284097,0.369478493227083,0.0171530939474067,,
62.5348342187648,0.370396211729229,0.0173164096022411,,
63.3068692091199,0.37121508459383,0.0174804886989808,,
64.0789041994751,0.371999291215879,0.017630285746884,,
64.8509391898302,0.372484618611603,0.0177810695840588,,
65.6229741801853,0.373094557095419,0.0179628987050986,,
66.3950091705404,0.373377742820047,0.0180778860508055,,
67.1670441608955,0.374023050240521,0.0182466188944792,,
67.9390791512507,0.374359172254451,0.0183386583135512,,
68.7111141416058,0.374738392840203,0.0184646587148292,,
69.4831491319609,0.374325911400111,0.0185595407367405,,
70.255184122316,0.37470396082902,0.0187114981628014,,
71.0272191126711,0.374511422644036,0.0188307372301835,,
71.7992541030263,0.374408829304593,0.0189304719812271,,
72.5712890933814,0.374197318378754,0.019037759934101,,
73.3433240837365,0.373916006505074,0.0191173528135984,,
74.1153590740916,0.373377742820047,0.0192294000957975,,
74.8873940644468,0.373114466761749,0.0193062153462349,,
75.6594290548019,0.372281774246402,0.019405690202162,,
76.431464045157,0.371860157782935,0.0194983062635243,,
77.2034990355121,0.371184634515913,0.0195630851213684,,
77.9755340258672,0.370172286540855,0.0196279492572979,,
78.7475690162224,0.369291576594946,0.0197091827247196,,
79.5196040065775,0.368471532573502,0.0197646378452512,,
80.2916389969326,0.367223782073009,0.0198207102166852,,
81.0636739872877,0.366004842030852,0.0199055050593784,,
81.8357089776429,0.364811901670608,0.019948773535452,,
82.607743967998,0.363438837387917,0.0199821050841722,,
83.3797789583531,0.361992458686857,0.0200074164320245,,
84.1518139487082,0.360330352895322,0.0200815636966545,,
84.9238489390633,0.35889755961364,0.0200914234676453,,
85.6958839294185,0.357253958100224,0.0201127673541066,,
86.4679189197736,0.355441007307316,0.0201351345775898,,
87.2399539101287,0.353591282189539,0.020172380796506,,
88.0119889004838,0.35164692759885,0.0202019925963679,,
88.7840238908389,0.349648465562016,0.0201847745448847,,
89.5560588811941,0.347516725876453,0.0202342358342866,,
90.3280938715492,0.345232501569936,0.020208814843182,,
91.1001288619043,0.343112239221434,0.0201785695489729,,
91.8721638522594,0.340712070387463,0.0201674265458434,,
92.6441988426145,0.338156137693378,0.0201733391597489,,
93.4162338329697,0.335943119722914,0.0201468461012873,,
94.1882688233248,0.333225333153131,0.0201324219223089,,
94.9603038136799,0.330588356405514,0.020081385018762,,
95.732338804035,0.327806390440737,0.0200594726117327,,
96.5043737943902,0.325015757915322,0.0200072864844665,,
97.2764087847453,0.322341069917361,0.0199934105217499,,
98.0484437751004,0.319082911580235,0.0199024147440059,,
98.8204787654555,0.316060155768545,0.0198786668277151,,
99.5925137558106,0.312855402183458,0.0197994516083089,,
100.364548746166,0.309741296138017,0.0197552369515757,,
101.136583736521,0.306587604991283,0.0197238383727862,,
101.908618726876,0.303194529385848,0.019645268830311,,
102.680653717231,0.300018352027729,0.0195629551738099,,
103.452688707586,0.296386126194961,0.0194815267850506,,
104.224723697941,0.293073157717584,0.0194061937489507,,
104.996758688297,0.289389869446462,0.0193260323488853,,
105.768793678652,0.285540511135008,0.0192328274626492,,
106.540828669007,0.28160191067212,0.0191240938431885,,
107.312863659362,0.278009504172012,0.0190475060009785,,
108.084898649717,0.274172325891725,0.0189289288539718,,
108.856933640072,0.270202806888182,0.0187772800533619,,
109.628968630427,0.266128118000142,0.0186673931493209,,
110.401003620782,0.261991592030793,0.0185770308659237,,
111.173038611137,0.257897227707791,0.0184709733539932,,
111.945073601493,0.253699567351239,0.0183081531242251,,
112.717108591848,0.249427889882212,0.0181862257667298,,
113.489143582203,0.245299562010764,0.0180540569172907,,
114.261178572558,0.240696417876257,0.0179344442506784,,
115.033213562913,0.236241161572095,0.0177700443459039,,
115.805248553268,0.231867066437151,0.0176286938892942,,
116.577283543623,0.22725180082932,0.0174858774617914,,
117.349318533978,0.222749873924966,0.0173232277881938,,
118.121353524334,0.218084453525334,0.0171531954689366,,
118.893388514689,0.213300512053195,0.0170135465131693,,
119.665423505044,0.208650550923891,0.0168485171749091,,
120.437458495399,0.203862188334669,0.0166597724072473,,
121.209493485754,0.198955948809203,0.0164641526015763,,
121.981528476109,0.19405278357045,0.0163150946304111,,
122.753563466464,0.189122711003229,0.0161355923828381,,
123.525598456819,0.184220921873767,0.0159301452930656,,
124.297633447175,0.179114414528154,0.0157511100445307,,
125.06966843753,0.174062336696818,0.0155695408186074,,
125.841703427885,0.168902658830534,0.0153779169003556,,
126.61373841824,0.163921728777408,0.0151344926366517,,
127.385773408595,0.158518245335341,0.0149572401061828,,
128.15780839895,0.153258345722221,0.014754688410445,,
128.929843389305,0.147912951659564,0.0145456190324831,,
129.70187837966,0.142737375339138,0.0143086434163631,,
130.473913370015,0.137380972402157,0.0141042359070576,,
131.245948360371,0.13201563939425,0.0138843443340004,,
132.017983350726,0.126605363242493,0.0136495494003439,,
132.790018341081,0.121203812209216,0.0134253573752776,,
133.562053331436,0.115704733089842,0.013198627311962,,
134.334088321791,0.11023707025278,0.0129569898271855,,
135.106123312146,0.104814409117409,0.0127238029945635,,
135.878158302501,0.0991572238242347,0.0124814670416606,,
136.650193292856,0.0935801749380399,0.0122222419670317,,
137.422228283212,0.0881120436382409,0.011977579140662,,
138.194263273567,0.0823893321197025,0.0117386340068601,,
138.966298263922,0.0767827408021441,0.0114607127272719,,
139.738333254277,0.0711607194931795,0.0112286142054514,,
140.510368244632,0.0654623680369748,0.0109646379232196,,
141.282403234987,0.0597030578670938,0.0107359302205001,,
142.054438225342,0.054090405812873,0.0104677347034832,,
142.826473215697,0.0483997547129108,0.0101842865918029,,
143.598508206053,0.0426538250099607,0.00992144735070699,,
144.370543196408,0.0369706985927145,0.0096912980422621,,
145.142578186763,0.0311767221802818,0.00938751313769837,,
145.914613177118,0.0254438801550518,0.00912666371858961,,
146.686648167473,0.0196876735508047,0.00885134545102995,,
147.458683157828,0.013988150937757,0.00854897778702446,,
148.230718148183,0.00816138213372128,0.00828643498879611,,
149.002753138538,0.00246695405294051,0.00801992879003732,,
149.774788128894,-0.00335671118546135,0.00772709196726584,,
150.546823119249,-0.00912700095074512,0.00742597098764808,,
151.318858109604,-0.014907596896247,0.00715980590123033,,
152.090893099959,-0.0206698642371565,0.00685923719873616,,
152.862928090314,-0.0264280325291155,0.00656016289316286,,
153.634963080669,-0.032135782518985,0.00628470655632229,,
154.406998071024,-0.0379573689539906,0.00598876723559449,,
155.179033061379,-0.0436360742541546,0.00567874484822894,,
155.951068051735,-0.0492810502372412,0.00538555066967161,,
156.72310304209,-0.0550358807321979,0.0050984477829128,,
157.495138032445,-0.0607443334161732,0.00478129858414356,,
158.2671730228,-0.066428894500552,0.00450933052707247,,
159.039208013155,-0.0720607535269974,0.00419147879931581,,
159.81124300351,-0.0777975482065724,0.00389235576340807,,
160.583277993865,-0.0833743628613985,0.00358262169718815,,
161.35531298422,-0.089030347718809,0.00328692602813208,,
162.127347974575,-0.094557739554862,0.00296992302036614,,
162.899382964931,-0.100039514831882,0.00267362634385293,,
163.671417955286,-0.105719332731046,0.00235207111068281,,
164.443452945641,-0.111257030747318,0.00207776805842252,,
165.215487935996,-0.116607109437346,0.00175400777762125,,
165.987522926351,-0.122238324327528,0.00144170724712334,,
166.759557916706,-0.127601227184986,0.00112653568775789,,
167.531592907061,-0.133035629167708,0.000841333284039791,,
168.303627897416,-0.138351275846553,0.000523790181734096,,
169.075662887772,-0.143746268401509,0.000225300640173565,,
169.847697878127,-0.148868732759107,-0.000110808719532951,,
170.619732868482,-0.154247387676104,-0.000366805409508952,,
171.391767858837,-0.159525088873237,-0.00071162125562596,,
172.163802849192,-0.164692467095763,-0.00100925192504286,,
172.935837839547,-0.169768260853169,-0.00130731710660825,,
173.707872829902,-0.174892013483295,-0.00161477302969626,,
174.479907820257,-0.179931325705042,-0.00191801987015117,,
175.251942810613,-0.18492701233439,-0.00222395093985872,,
176.023977800968,-0.189721025755379,-0.00252732975830261,,
176.796012791323,-0.194876985198686,-0.0028371247374408,,
177.568047781678,-0.199733479837247,-0.00314021320430902,,
178.340082772033,-0.204580195316169,-0.00344358999232286,,
179.112117762388,-0.209387384251641,-0.00376080822573233,,
179.884152752743,-0.21406445766186,-0.00404820146406726,,
180.656187743098,-0.218791480911432,-0.00437956976832421,,
181.428222733453,-0.223486004558611,-0.00463936945481258,,
182.200257723809,-0.228182284941055,-0.0049432660330595,,
182.972292714164,-0.232581384274596,-0.00526452888422346,,
183.744327704519,-0.237184264898813,-0.00554005019484327,,
184.516362694874,-0.241547761064329,-0.00582752871126324,,
185.288397685229,-0.245926716500171,-0.00612632281741377,,
186.060432675584,-0.250113777887294,-0.00643893197336265,,
186.832467665939,-0.254528863511742,-0.00672128974381092,,
187.604502656294,-0.258596759690093,-0.00699949122282195,,
188.37653764665,-0.263092538021021,-0.00730641111223163,,
189.148572637005,-0.266849140710513,-0.00758490497324882,,
189.92060762736,-0.270913172071282,-0.00785959786818413,,
190.692642617715,-0.274850308588117,-0.00815932191154944,,
191.46467760807,-0.278649541386692,-0.00840831767681838,,
192.236712598425,-0.282592533687741,-0.00871723550993764,,
193.00874758878,-0.28629701989772,-0.00898973553982563,,
193.780782579135,-0.28991864676106,-0.00926844056562537,,
194.552817569491,-0.293538458331294,-0.00950054517873777,,
195.324852559846,-0.297302732098106,-0.00979643373870021,,
196.096887550201,-0.30066658734031,-0.0100407351484235,,
196.868922540556,-0.303955957007301,-0.0103317689488232,,
197.640957530911,-0.30738129798376,-0.0105970751630973,,
198.412992521266,-0.310519764091535,-0.0108492038827812,,
199.185027511621,-0.313848894533344,-0.0111197546992936,,
199.957062501976,-0.316892262705471,-0.0113859197857114,,
200.729097492332,-0.319972639433835,-0.0116109402264621,,
201.501132482687,-0.322979467512461,-0.0118549167672892,,
202.273167473042,-0.325922584658829,-0.0121166149063883,,
203.045202463397,-0.328462765293376,-0.0123273736026088,,
203.817237453752,-0.331283672223181,-0.0125764018547674,,
204.589272444107,-0.333853190336644,-0.0128242605789008,,
205.361307434462,-0.336520617162179,-0.0130766674675766,,
206.133342424817,-0.338808120707857,-0.0132795318496268,,
206.905377415173,-0.341722427395888,-0.0135267570794131,,
207.677412405528,-0.343973156616697,-0.0137574485128282,,
208.449447395883,-0.346068180535233,-0.0139725909087129,,
209.221482386238,-0.348430345329649,-0.0141963930911042,,
209.993517376593,-0.350486018378262,-0.0143742912985037,,
210.765552366948,-0.352276190170574,-0.014613540996895,,
211.537587357303,-0.354540973273498,-0.0148031040280885,,
212.309622347658,-0.355943550708632,-0.0150184088584209,,
213.081657338013,-0.357779163386452,-0.0152456688641229,,
213.853692328369,-0.359682586045479,-0.0154107692674543,,
214.625727318724,-0.361096933606884,-0.0156035464702864,,
215.397762309079,-0.362711490430595,-0.0158318805737756,,
216.169797299434,-0.364230656529445,-0.0160076996202414,,
216.941832289789,-0.365689449493041,-0.0161842313478471,,
217.713867280144,-0.36707961266564,-0.0163418780404481,,
218.485902270499,-0.368029420865283,-0.0165345070218463,,
219.257937260854,-0.36916356915201,-0.0167076458999205,,
220.02997225121,-0.369633671508776,-0.0168772294940154,,
220.802007241565,-0.37104772628097,-0.0170192926317654,,
221.57404223192,-0.371962341217483,-0.0171861940270386,,
222.346077222275,-0.372369728125308,-0.0173262937383987,,
223.11811221263,-0.372999342044086,-0.0174878997706687,,
223.890147202985,-0.373411120790072,-0.0176627279670014,,
224.66218219334,-0.374170733118418,-0.0177793559006325,,
225.434217183695,-0.374494909332551,-0.0179308097799051,,
226.206252174051,-0.374458837701787,-0.0180668486300668,,
226.978287164406,-0.37498281327333,-0.0181990377838117,,
227.750322154761,-0.375070181573815,-0.0183187682153991,,
228.522357145116,-0.375047402573219,-0.0184242369024554,,
229.294392135471,-0.37516381556341,-0.0185087515457263,,
230.066427125826,-0.375064091558231,-0.0186667190463616,,
230.838462116181,-0.374489053548336,-0.0187733247745538,,
231.610497106536,-0.374176998807528,-0.0188796056338503,,
232.382532096891,-0.373774647874128,-0.0189804124522506,,
233.154567087247,-0.373553943367071,-0.0190660478932121,,
233.926602077602,-0.372792749976987,-0.0191689988463257,,
234.698637067957,-0.372212558876982,-0.0192472110330155,,
235.470672058312,-0.371248228332486,-0.0193220445831881,,
236.242707048667,-0.370636825902616,-0.0193824701978271,,
237.014742039022,-0.369768295987874,-0.0194788912861323,,
237.786777029377,-0.368492964743729,-0.0195396742565568,,
238.558812019732,-0.367338262654408,-0.0196195595180608,,
239.330847010088,-0.366178524590663,-0.0196431287564591,,
240.102882000443,-0.36480241530018,-0.0197094669850033,,
240.874916990798,-0.363820283171671,-0.0197407518596795,,
241.646951981153,-0.362090074609718,-0.0198153255147351,,
242.418986971508,-0.360671335210151,-0.0198214492934232,,
243.191021961863,-0.359032593997634,-0.019886471802939,,
243.963056952218,-0.357463243828062,-0.0198890220237722,,
244.735091942573,-0.355399197008022,-0.0199367127776915,,
245.507126932929,-0.353564931160572,-0.0199307839203411,,
246.279161923284,-0.35167608940424,-0.0199087902960882,,
247.051196913639,-0.349175435313143,-0.0199631408623735,,
247.823231903994,-0.347184058775209,-0.0199574881435849,,
248.595266894349,-0.345077323288243,-0.0199498862114207,,
249.367301884704,-0.342818337411692,-0.019970320464973,,
250.139336875059,-0.340529252804276,-0.0199396365977544,,
250.911371865414,-0.338242451952705,-0.0198846038067875,,
251.68340685577,-0.335464526479036,-0.0199160023855773,,
252.455441846125,-0.332825207417733,-0.0198645106655757,,
253.22747683648,-0.330374151818935,-0.0198645431524653,,
253.999511826835,-0.327375463280368,-0.0198201335743948,,
254.77154681719,-0.324817012599071,-0.0197601465327653,,
255.543581807545,-0.321776220971999,-0.0197345143768781,,
256.3156167979,-0.318678979585097,-0.0196908519972681,,
257.087651788255,-0.315901464016323,-0.0196367288392096,,
257.85968677861,-0.312577720895991,-0.0195808513891134,,
258.631721768966,-0.30949359646573,-0.0195545207650998,,
259.403756759321,-0.305922739251532,-0.0194585707366937,,
260.175791749676,-0.302805822429668,-0.0193805534713412,,
260.947826740031,-0.299130439467236,-0.0192999534982663,,
261.719861730386,-0.295733206255008,-0.0192305127717658,,
262.491896720741,-0.292152042860593,-0.0191432042559905,,
263.263931711096,-0.288435493735131,-0.0190773046004553,,
264.035966701451,-0.284728840884992,-0.0189416880798583,,
264.808001691807,-0.281117578759712,-0.0188740991060645,,
265.580036682162,-0.277261954759148,-0.0187465718209761,,
266.352071672517,-0.273278850336227,-0.0186506542794591,,
267.124106662872,-0.269046816526335,-0.0185482718469134,,
267.896141653227,-0.265188967327769,-0.0184209557266071,,
268.668176643582,-0.2612121871518,-0.01831629921179,,
