Time domain (s),Current (AC) (A),Potential (AC) (V),Frequency (Hz),Column 5
0,0.043808104627662,0.000127482859394679,316.23,0.3
9.88204787654555E-05,0.0978780787244447,0.00109393611300934,,
0.000197640957530911,0.148096366781309,0.00201299102620522,,
0.000296461436296367,0.192216193029394,0.00282119229690325,,
0.000395281915061822,0.229037398974539,0.00357613221218456,,
0.000494102393827278,0.256750210780203,0.00413151372122389,,
0.000592922872592733,0.274928630562928,0.00457829679362254,,
0.000691743351358189,0.282603584854664,0.0048312960353325,,
0.000790563830123644,0.279565660554452,0.00489724324884477,,
0.0008893843088891,0.265510778365009,0.00474956758313505,,
0.000988204787654555,0.241472377596205,0.00447327235104078,,
0.00108702526642001,0.208336340210229,0.00400019415059427,,
0.00118584574518547,0.166894061264986,0.00340243714140387,,
0.00128466622395092,0.119176560972516,0.00262893794838792,,
0.00138348670271638,0.0665959434279831,0.00176804497634819,,
0.00148230718148183,0.0120040277956447,0.000845706098451249,,
0.00158112766024729,-0.043487395993809,-0.000103031953900157,,
0.00167994813901274,-0.0976975988761975,-0.00106455600901301,,
0.0017787686177782,-0.147860642573701,-0.00197836438216825,,
0.00187758909654365,-0.192172669887051,-0.00280965355043827,,
0.00197640957530911,-0.229167071941379,-0.00352646045778782,,
0.00207523005407457,-0.257228965345987,-0.00412163711609992,,
0.00217405053284002,-0.275632889690125,-0.00455929791982124,,
0.00227287101160548,-0.283119452872415,-0.00479793875745305,,
0.00237169149037093,-0.2799701882163,-0.00486970996856151,,
0.00247051196913639,-0.265988995054677,-0.00478724278687892,,
0.00256933244790184,-0.241329885248613,-0.00443970698034857,,
0.0026681529266673,-0.208048755780487,-0.00398911320831674,,
0.00276697340543275,-0.16654520378109,-0.00334878951370365,,
0.00286579388419821,-0.118627972157739,-0.00260422432571694,,
0.00296461436296367,-0.0662674804134654,-0.00176211433118567,,
0.00306343484172912,-0.0114699616359861,-0.000855297876537708,,
0.00316225532049458,0.0437600543613461,0.000100649291194355,,
0.00326107579926003,0.0979991232619318,0.00108122424331203,,
0.00335989627802549,0.147954546778862,0.00197432738160153,,
0.00345871675679094,0.192381500288884,0.00283919232520402,,
0.0035575372355564,0.228985404283376,0.00354486626707295,,
0.00365635771432185,0.257154514327003,0.004135183958208,,
0.00375517819308731,0.275076725786722,0.00456596469330872,,
0.00385399867185277,0.28275383158292,0.00481948676821009,,
0.00395281915061822,0.279356247453493,0.00487690997988155,,
0.00405163962938368,0.265367703318292,0.00480106014964354,,
0.00415046010814913,0.241490306800054,0.0044985036045837,,
0.00424928058691459,0.208071525869376,0.00398334123392363,,
0.00434810106568004,0.166821268697358,0.00337673767903235,,
0.0044469215444455,0.119065579200689,0.00261229832685039,,
0.00454574202321095,0.0667465487403165,0.00175994756477271,,
0.00464456250197641,0.0119369725732486,0.000829203037822079,,
0.00474338298074187,-0.0435033081622252,-9.92134507864506E-05,,
0.00484220345950732,-0.0978080427719087,-0.00108523002995709,,
0.00494102393827278,-0.147940024123744,-0.00198771685352028,,
0.00503984441703823,-0.192245103870601,-0.00281154719503407,,
0.00513866489580369,-0.229145198312683,-0.00352145582564178,,
0.00523748537456914,-0.256983335253252,-0.00411870300744077,,
0.0053363058533346,-0.275436968315063,-0.00456288752084077,,
0.00543512633210005,-0.283095965615373,-0.00481403473651731,,
0.00553394681086551,-0.279914831799415,-0.0049039100223327,,
0.00563276728963096,-0.265815440361417,-0.00478105332628065,,
0.00573158776839642,-0.241375604718429,-0.00445617752647598,,
0.00583040824716188,-0.207989992814872,-0.00399832131527988,,
0.00592922872592733,-0.166499663603313,-0.00336683116056724,,
0.00602804920469279,-0.1187004509643,-0.00265149260812736,,
0.00612686968345824,-0.0661465031104927,-0.00176428890107871,,
0.0062256901622237,-0.011530024468881,-0.000859220426057572,,
0.00632451064098915,0.0437613094056155,0.000125485168392725,,
0.00642333111975461,0.0980333680412838,0.0010687568826695,,
0.00652215159852006,0.147897890494698,0.00197108373488275,,
0.00662097207728552,0.192174597276464,0.00280354862754439,,
0.00671979255605098,0.229050845877426,0.00353101769038622,,
0.00681861303481643,0.257017714501633,0.00411723595311075,,
0.00691743351358189,0.27512101092023,0.00457536008380321,,
0.00701625399234734,0.282736619547225,0.00483558274727436,,
0.0071150744711128,0.279587354891109,0.0048640810579772,,
0.00721389494987825,0.265544843852323,0.00477523583158446,,
0.00731271542864371,0.241466819543012,0.00447673449521258,,
0.00741153590740916,0.208168881446277,0.00399175598703838,,
0.00751035638617462,0.166581017365779,0.00336693910871322,,
0.00760917686494007,0.118961410526325,0.00262002897484326,,
0.00770799734370553,0.0665792692684033,0.00176286346531107,,
0.00780681782247099,0.0119574118656368,0.000838161433409645,,
0.00790563830123644,-0.0434794623211058,-0.000110179942017119,,
0.0080044587800019,-0.0977619647180162,-0.00106991569952086,,
0.00810327925876735,-0.147800938324883,-0.00195907287784891,,
0.00820209973753281,-0.192265363870951,-0.00283187786283712,,
0.00830092021629826,-0.229152011410145,-0.00355337726311333,,
0.00839974069506372,-0.257318252781156,-0.00412714247157675,,
0.00849856117382918,-0.275547053626697,-0.00453213140312014,,
0.00859738165259463,-0.283158717828845,-0.00480939426679328,,
0.00869620213136009,-0.280097171802562,-0.00488723138339298,,
0.00879502261012554,-0.265900021380576,-0.00476210517510189,,
0.008893843088891,-0.241869374992436,-0.00448247005336366,,
0.00899266356765645,-0.207968298478214,-0.0039960413984006,,
0.00909148404642191,-0.166456274929998,-0.00339337599999023,,
0.00919030452518736,-0.118560423882237,-0.00261746943324681,,
0.00928912500395282,-0.0662372248819698,-0.00178789833126203,,
0.00938794548271828,-0.0114719338484095,-0.000826768351913199,,
0.00948676596148373,0.0438011122381608,0.00011597532685137,,
0.00958558644024919,0.0978899119989852,0.00108060776835428,,
0.00968440691901464,0.147875478989887,0.00196803257401657,,
0.0097832273977801,0.192055905946982,0.00282127553402844,,
0.00988204787654555,0.228805215784692,0.00352146883144222,,
0.00998086835531101,0.257064330431641,0.00414888947108638,,
0.0100796888340765,0.275066685432567,0.00455572912808266,,
0.0101785093128419,0.282331419540232,0.00480549252655438,,
0.0102773297916074,0.279442486924007,0.00490080943942273,,
0.0103761502703728,0.265432427744188,0.00476674824598566,,
0.0104749707491383,0.241465026622627,0.00448637179360167,,
0.0105737912279037,0.208129975073924,0.00399670079250036,,
0.0106726117066692,0.166733415598497,0.00336408823717926,,
0.0107714321854347,0.118988125040061,0.00260201854190178,,
0.0108702526642001,0.0666395113933367,0.00175579611315912,,
0.0109690731429656,0.0119945253176046,0.000839056232504465,,
0.011067893621731,-0.0435182342244297,-0.000120199610949889,,
0.0111667141004965,-0.0978107321524861,-0.00109311674755919,,
0.0112655345792619,-0.147843251245968,-0.00197503359658491,,
0.0113643550580274,-0.192116192894925,-0.00280555412202732,,
0.0114631755367928,-0.229088004152404,-0.00353566856475052,,
0.0115619960155583,-0.257297813488768,-0.00414200940246579,,
0.0116608164943238,-0.275615722477439,-0.00456519735106165,,
0.0117596369730892,-0.283114253403299,-0.00479990523453333,,
0.0118584574518547,-0.280142174104223,-0.00487906374049363,,
0.0119572779306201,-0.265927094478388,-0.00477186472801883,,
0.0120560984093856,-0.24145628613575,-0.00445477420056983,,
0.012154918888151,-0.207971525734907,-0.00398958141714534,,
0.0122537393669165,-0.166337762892554,-0.00332786708196453,,
0.0123525598456819,-0.118808698532539,-0.00261075844003633,,
0.0124513803244474,-0.0661621015178416,-0.00175416518573979,,
0.0125502008032129,-0.0115339688937278,-0.000846433122715595,,
0.0126490212819783,0.0437417665734199,0.000124840080673483,,
0.0127478417607438,0.0979037398974539,0.00106426467907506,,
0.0128466622395092,0.148092960232578,0.00197523518649678,,
0.0129454827182747,0.192095170903412,0.0028115393915531,,
0.0130443031970401,0.228989528000262,0.00354400268190025,,
0.0131431236758056,0.256844697684488,0.00413094926946922,,
0.013241944154571,0.274823386136333,0.00456607914435558,,
0.0133407646333365,0.282675839546176,0.00479380811511998,,
0.013439585112102,0.279257278248245,0.00489854382892441,,
0.0135384055908674,0.265486573939813,0.00474080687571954,,
0.0136372260696329,0.241385062373459,0.00449071052874706,,
0.0137360465483983,0.208249921447676,0.00400299299892515,,
0.0138348670271638,0.166773935599196,0.00336875731966435,,
0.0139336875059292,0.119007488580218,0.00259802576105761,,
0.0140325079846947,0.0666300089152966,0.00174899407934337,,
0.0141313284634601,0.0120201864906138,0.00087059269827261,,
0.0142301489422256,-0.0434904439584634,-9.80169171134193E-05,,
0.0143289694209911,-0.097825254807604,-0.00106625196543675,,
0.0144277898997565,-0.147877316733281,-0.00197689732783868,,
0.014526610378522,-0.192178407232282,-0.00279576335518872,,
0.0146254308572874,-0.229134261498335,-0.00354824777527973,,
0.0147242513360529,-0.257415429066019,-0.00410623824795842,,
0.0148230718148183,-0.275513167431422,-0.0045448770878993,,
0.0149218922935838,-0.283115149863492,-0.00481345207664141,,
0.0150207127723492,-0.279514562323481,-0.0048964915135592,,
0.0151195332511147,-0.2657152161119,-0.0047607005486161,,
0.0152183537298802,-0.241491427375295,-0.0044644804297036,,
0.0153171742086456,-0.207923834052668,-0.00399337781039755,,
0.0154159946874111,-0.166494643426235,-0.00336247291672054,,
0.0155148151661765,-0.118541911979263,-0.00259164511518772,,
0.015613635644942,-0.0662786413428615,-0.00174718497245285,,
0.0157124561237074,-0.0114868150876043,-0.000830160264760682,,
0.0158112766024729,0.0437458902903052,0.000108608841280944,,
0.0159100970812383,0.0980335473333223,0.00105572246911256,,
0.0160089175600038,0.14791904695524,0.00200422251530918,,
0.0161077380387693,0.192329505597722,0.00280345238461877,,
0.0162065585175347,0.229088676497548,0.00354966280640623,,
0.0163053789963002,0.257055007245639,0.00411076426663515,,
0.0164041994750656,0.275237730037288,0.00457771413374708,,
0.0165030199538311,0.28268964503314,0.00481659427811332,,
0.0166018404325965,0.279488744269938,0.00486979320568626,,
0.016700660911362,0.265337402963787,0.00478783845255526,,
0.0167994813901274,0.241439387861122,0.00447078564192882,,
0.0168983018688929,0.208090172241379,0.00399242188403903,,
0.0169971223476584,0.166787561794122,0.00335432608310215,,
0.0170959428264238,0.119015198137873,0.00262281741853343,,
0.0171947633051893,0.0666708875000728,0.00176346693446794,,
0.0172935837839547,0.0119825127510257,0.00086334066374949,,
0.0173924042627202,-0.0434801794892597,-0.000114435440037308,,
0.0174912247414856,-0.0977770252492495,-0.00107468102493202,,
0.0175900452202511,-0.147888253547629,-0.00197422333519537,,
0.0176888656990165,-0.192262674490374,-0.00281670919736943,,
0.017787686177782,-0.22921691512808,-0.00352836450702387,,
0.0178865066565474,-0.257350525348084,-0.00412654940706059,,
0.0179853271353129,-0.275662338407447,-0.004552867851908,,
0.0180841476140784,-0.283359569734966,-0.00479526476480929,,
0.0181829680928438,-0.279801832992156,-0.00489774007043531,,
0.0182817885716093,-0.265608358056958,-0.00475556195672189,,
0.0183806090503747,-0.241506622375557,-0.0044691417087086,,
0.0184794295291402,-0.208177352995096,-0.0040052924245062,,
0.0185782500079056,-0.166403204486604,-0.0033659168527711,,
0.0186770704866711,-0.118696641008482,-0.00261604399747961,,
0.0187758909654366,-0.0662164270055047,-0.00176991911224311,,
0.018874711444202,-0.0115026376100013,-0.000843114042353044,,
0.0189735319229675,0.0437824658661576,0.000108619245921648,,
0.0190723524017329,0.0979589394338047,0.00106107045439963,,
0.0191711728804984,0.148077384236734,0.00199563608562414,,
0.0192699933592638,0.19235227568661,0.00283905706487575,,
0.0193688138380293,0.229167923578562,0.00357383278660395,,
0.0194676343167947,0.256974505120356,0.00412185561355338,,
0.0195664547955602,0.275046784016294,0.00458591038940792,,
0.0196652752743256,0.282565216358426,0.00482029833017972,,
0.0197640957530911,0.279319134001525,0.00488093657580757,,
0.0198629162318566,0.265295986502895,0.00477214825447581,,
0.019961736710622,0.241539074234524,0.0044652399684697,,
0.0200605571893875,0.208058975426681,0.0040014739213925,,
0.0201593776681529,0.166723913120457,0.00335510903230984,,
0.0202581981469184,0.119005874951871,0.00262430528214441,,
0.0203570186256838,0.0666377184729518,0.00176588081109585,,
0.0204558391044493,0.0120398862033432,0.000867649485552846,,
0.0205546595832148,-0.0435499240922332,-0.000118295561713389,,
0.0206534800619802,-0.0977377602928197,-0.00105486928858056,,
0.0207523005407457,-0.147984174788222,-0.00197597131482219,,
0.0208511210195111,-0.192074417849957,-0.0027944003472653,,
0.0209499414982766,-0.229250756500345,-0.00354806049174838,,
0.021048761977042,-0.257258189948261,-0.00410606136906777,,
0.0211475824558075,-0.27551334672346,-0.00457938928088941,,
0.0212464029345729,-0.283190990395774,-0.00481726017511441,,
0.0213452234133384,-0.279938319056458,-0.00486334232849206,,
0.0214440438921038,-0.265748385139021,-0.00477245909311508,,
0.0215428643708693,-0.24156565427923,-0.00446839257458276,,
0.0216416848496348,-0.20802347560306,-0.00399318142280558,,
0.0217405053284002,-0.166531577586164,-0.00334989370619132,,
0.0218393258071657,-0.118620621184161,-0.00263027624529011,,
0.0219381462859311,-0.06621104824435,-0.00176588211167594,,
0.0220369667646966,-0.0114739060608329,-0.000835289752594282,,
0.022135787243462,0.0437471453345746,9.31384412350411E-05,,
0.0222346077222275,0.0980027091027016,0.00108438725406534,,
0.0223334282009929,0.148106048551388,0.00196858662113009,,
0.0224322486797584,0.192264064003672,0.00279792752044061,,
0.0225310691585239,0.229103557736743,0.00354292059927408,,
0.0226298896372893,0.257048732024292,0.0041281504211379,,
0.0227287101160548,0.274933830032044,0.00456415688699785,,
0.0228275305948202,0.282619541846089,0.00481133993459215,,
0.0229263510735857,0.279186278601002,0.00487539090234845,,
0.0230251715523511,0.265723777306738,0.00478802573608661,,
0.0231239920311166,0.241360678656224,0.00446538563343868,,
0.023222812509882,0.208114735250653,0.00397341260559658,,
0.0233216329886475,0.166683751703835,0.00334494109724837,,
0.023420453467413,0.118963562030787,0.00260626623644145,,
0.0235192739461784,0.0666561855529165,0.00173580879849711,,
0.0236180944249439,0.0120237499198789,0.00085083428570476,,
0.0237169149037093,-0.0434805380733367,-0.000116412321758297,,
0.0238157353824748,-0.0978048155152158,-0.0010518935613586,,
0.0239145558612402,-0.147772968766879,-0.00199122321741463,,
0.0240133763400057,-0.192130894842082,-0.00280337044807411,,
0.0241121968187711,-0.229310684864211,-0.00352335987487828,,
0.0242110172975366,-0.257342457206352,-0.00413032499103139,,
0.0243098377763021,-0.275472826722761,-0.0045345140658255,,
0.0244086582550675,-0.283221694157366,-0.0048206624926026,,
0.024507478733833,-0.27973119192899,-0.00486897253965646,,
0.0246062992125984,-0.265742065094664,-0.00474003693231273,,
0.0247051196913639,-0.241908281364789,-0.00447757987226449,,
0.0248039401701293,-0.208001422682325,-0.00398207837066655,,
0.0249027606488948,-0.166585365197712,-0.00335223344975466,,
0.0250015811276602,-0.118646797821781,-0.0026068046765948,,
0.0251004016064257,-0.0662773862985921,-0.00175600680713206,,
0.0251992220851912,-0.0114844842911039,-0.000836590332673914,,
0.0252980425639566,0.0437550341842683,0.000105549876933786,,
0.0253968630427221,0.0980218933508203,0.00108181470666802,,
0.0254956835214875,0.147897173326544,0.00196804297865683,,
0.025594504000253,0.192323588960451,0.00282393912203149,,
0.0256933244790184,0.228907053662555,0.00354330557097748,,
0.0257921449577839,0.257035285121405,0.00414427761412428,,
0.0258909654365493,0.274967178351203,0.00453734412807849,,
0.0259897859153148,0.282642491227016,0.00481645901778505,,
0.0260886063940803,0.279595781616918,0.00490062215589138,,
0.0261874268728457,0.265458425089769,0.004784828910251,,
0.0262862473516112,0.241401377948962,0.00446578100978279,,
0.0263850678303766,0.207811193829485,0.00399458604929137,,
0.0264838883091421,0.166679090110834,0.00338364636041488,,
0.0265827087879075,0.119003902739448,0.00262037232798429,,
0.026681529266673,0.0667164276778499,0.00178799847592792,,
0.0267803497454384,0.0119217327499768,0.000842697856727082,,
0.0268791702242039,-0.0434111520544402,-9.73926386751423E-05,,
0.0269779907029694,-0.0978611132153024,-0.00109224275774578,,
0.0270768111817348,-0.147831955847543,-0.00196035394922722,,
0.0271756316605003,-0.192264108826682,-0.00283809983793759,,
0.0272744521392657,-0.229064516895361,-0.003525565658693,,
0.0273732726180312,-0.257192972469259,-0.00411130530794823,,
0.0274720930967966,-0.275323835038774,-0.00454642737935407,,
0.0275709135755621,-0.28313437893462,-0.00481141276707664,,
0.0276697340543275,-0.279943877109651,-0.00488727300195535,,
0.027768554533093,-0.265715709165006,-0.00477114680781465,,
0.0278673750118585,-0.241739746848606,-0.00448338696231954,,
0.0279661954906239,-0.208092323745841,-0.00398986234244259,,
0.0280650159693894,-0.166524585196663,-0.00337643724503423,,
0.0281638364481548,-0.118642674104896,-0.00262193302407976,,
0.0282626569269203,-0.0662646117408495,-0.00173298133740429,,
0.0283614774056857,-0.0115264834511207,-0.000836226170251475,,
0.0284602978844512,0.0437414079893429,9.9069086397563E-05,,
0.0285591183632166,0.0980401587272417,0.00107065312842547,,
0.0286579388419821,0.147950064477899,0.00198525225426938,,
0.0287567593207476,0.192309962765526,0.00282224576676793,,
0.028855579799513,0.229059451895274,0.00353664660097008,,
0.0289544002782785,0.256756306709511,0.00414333339298656,,
0.0290532207570439,0.274866954101686,0.00456365746424758,,
0.0291520412358094,0.282745046273034,0.00481355612304757,,
0.0292508617145748,0.279550958607295,0.0048892212709144,,
0.0293496821933403,0.265605623853371,0.00475897337827025,,
0.0294485026721057,0.241311373345639,0.00446654054854934,,
0.0295473231508712,0.208080669763339,0.00400245195761206,,
0.0296461436296367,0.166615441437169,0.00334284196099999,,
0.0297449641084021,0.118959079729825,0.00260965554812875,,
0.0298437845871676,0.0665885924544049,0.00176371404468334,,
0.029942605065933,0.0120024141672983,0.00083782848490932,,
0.0300414255446985,-0.0435258989590753,-0.000127784593973779,,
0.0301402460234639,-0.0978431840114532,-0.00110606012051084,,
0.0302390665022294,-0.147955308770025,-0.00196541060457633,,
0.0303378869809948,-0.192206556082326,-0.00283067222510347,,
0.0304367074597603,-0.229320859687395,-0.00352320510584869,,
0.0305355279385258,-0.257288535125776,-0.00411601861015676,,
0.0306343484172912,-0.275692100885837,-0.00455965167760297,,
0.0307331688960567,-0.283045584552557,-0.00479353759446388,,
0.0308319893748221,-0.279938677640535,-0.00488863600987877,,
0.0309308098535876,-0.265734400360018,-0.00474554228778912,,
0.031029630332353,-0.241763771981764,-0.00444905034763998,,
0.0311284508111185,-0.208113480206383,-0.00400049588517293,,
0.0312272712898839,-0.16653086041801,-0.00334897679723545,,
0.0313260917686494,-0.11865168352983,-0.00263218159510625,,
0.0314249122474149,-0.0661909675360388,-0.00177437099785527,,
0.0315237327261803,-0.0115453091151624,-0.000826861993679096,,
0.0316225532049458,0.0437686603791937,9.30447994691441E-05,,
0.0317213736837112,0.0980114944125877,0.00105501495354954,,
0.0318201941624767,0.148057101824879,0.00199234041570273,,
0.0319190146412421,0.19233327073053,0.00280768967451772,,
0.0320178351200076,0.229168640746715,0.00351993674810869,,
0.032116655598773,0.256982931846166,0.00412086977385284,,
0.0322154760775385,0.275054134989872,0.00458291645406517,,
0.032314296556304,0.282798833884582,0.00479175840091495,,
0.0324131170350694,0.279111693112989,0.00488335045243549,,
0.0325119375138349,0.265301723848127,0.00475221036185669,,
