Time domain (s),Current (AC) (A),Potential (AC) (V),Frequency (Hz),Column 5
0,0.309526418136254,0.00506086732041799,1000,0.4
3.125E-05,0.265346839270201,0.00442324174177644,,
6.25E-05,0.210762205269597,0.00362827512323527,,
9.375E-05,0.14808019285674,0.00268453321853812,,
0.000125,0.0798325210579856,0.00167656401152882,,
0.00015625,0.00919703612995437,0.000585711151066981,,
0.0001875,-0.0624419252600495,-0.000538065334674709,,
0.00021875,-0.132887302153547,-0.00163816711687925,,
0.00025,-0.197682784205217,-0.00269574605014133,,
0.00028125,-0.254693528163863,-0.0036389062317399,,
0.0003125,-0.301682390228055,-0.00443536757747953,,
0.00034375,-0.336926950028846,-0.00505485671009298,,
0.000375,-0.358981765790649,-0.00546116414058728,,
0.00040625,-0.367664254161647,-0.00566661859446471,,
0.0004375,-0.36228232000549,-0.00565859335182894,,
0.00046875,-0.342661987973156,-0.00546021150957321,,
0.0005,-0.309782403743205,-0.00501798941432607,,
0.00053125,-0.264995550775154,-0.00441686973399502,,
0.0005625,-0.210551338480021,-0.00360369851113385,,
0.00059375,-0.147526411343544,-0.00266190308045555,,
0.000625,-0.0790943116209443,-0.00164346285767447,,
0.00065625,-0.00830918212730334,-0.000550690469494963,,
0.0006875,0.0627515498504081,0.000538960902932484,,
0.00071875,0.132885691812888,0.00167585389722902,,
0.00075,0.197720671129087,0.00270211488776928,,
0.00078125,0.254420707177294,0.00363253897918847,,
0.0008125,0.301206285692469,0.00441854991515145,,
0.00084375,0.33640016368088,0.00507111008516503,,
0.000875,0.358480686335387,0.00547066667457941,,
0.00090625,0.366687567912457,0.00569054849532868,,
0.0009375,0.361545720909108,0.00570563525405055,,
0.00096875,0.342141672266748,0.00549036283594484,,
0.001,0.309724138690267,0.00504541282393367,,
0.00103125,0.265258592602083,0.00443851870968581,,
0.0010625,0.210782437004059,0.00363433962616355,,
0.00109375,0.148213441226548,0.00268568081396969,,
0.001125,0.0798334872623811,0.00164897099872929,,
0.00115625,0.00917967372975743,0.000569671761331048,,
0.0011875,-0.0625240233547413,-0.000539986447468443,,
0.00121875,-0.132843735118988,-0.00166883993344014,,
0.00125,-0.197693734521698,-0.00268786029424284,,
0.00128125,-0.254708518971453,-0.00364159769174321,,
0.0013125,-0.301595548948149,-0.00443127015456568,,
0.00134375,-0.336908621424253,-0.00506413099306036,,
0.001375,-0.359257046206588,-0.00547628894114638,,
0.00140625,-0.367751095441553,-0.0057056241585145,,
0.0014375,-0.362141956857861,-0.00567695012349922,,
0.00146875,-0.342540890355594,-0.00545587156994509,,
0.0015,-0.309826205009131,-0.00504327614072775,,
0.00153125,-0.264889502523023,-0.00440806938892013,,
0.0015625,-0.210442596567152,-0.00360454969724788,,
0.00159375,-0.147631112765305,-0.0026839705163586,,
0.001625,-0.0791195500509102,-0.00167038538308839,,
0.00165625,-0.00831966398104787,-0.00058413241481059,,
0.0016875,0.0627579619341234,0.000516264191634086,,
0.00171875,0.132884725608492,0.00164298257947593,,
0.00175,0.197598607307129,0.00269302288860684,,
0.00178125,0.254482544258603,0.00362725750408233,,
0.0018125,0.301210823925235,0.00443219108404813,,
0.00184375,0.336352116971398,0.00506683037844624,,
0.001875,0.358602984388714,0.00548074142121058,,
0.00190625,0.366930758630899,0.00570157428789742,,
0.0019375,0.361293248772686,0.00569355063033816,,
0.00196875,0.342260398291704,0.00541783607275148,,
0.002,0.309635189328044,0.00504718810968408,,
0.00203125,0.265372311931535,0.00443688291067312,,
0.0020625,0.210894985176668,0.003612826967057,,
0.00209375,0.14808757114485,0.00271070917289151,,
0.002125,0.0798534554865536,0.00165717852516956,,
0.00215625,0.00920915760327905,0.000568899829044955,,
0.0021875,-0.0624395829463636,-0.000551915733677966,,
0.00221875,-0.132927238601892,-0.00164629538949157,,
0.00225,-0.197739936659153,-0.00270013671221925,,
0.00228125,-0.254719000825197,-0.00362960341739482,,
0.0023125,-0.30179511407419,-0.00442848676012186,,
0.00234375,-0.337012327362698,-0.00505016805362146,,
0.002375,-0.359288667441348,-0.00549817409324493,,
0.00240625,-0.36759673696965,-0.00569956916604575,,
0.0024375,-0.36210295733499,-0.00567206650260976,,
0.00246875,-0.342361879032147,-0.00546893260082015,,
0.0025,-0.309703116424936,-0.00504406233870247,,
0.00253125,-0.265122679850457,-0.00439446626186113,,
0.0025625,-0.210337426682654,-0.00363505291061639,,
0.00259375,-0.147571676555525,-0.00271438496543963,,
0.002625,-0.0791421533779794,-0.00167432588342287,,
0.00265625,-0.00836891112629451,-0.000585292690854278,,
0.0026875,0.0628029636358143,0.000530422095490479,,
0.00271875,0.132896407898001,0.00164840354131979,,
0.00275,0.197747812688922,0.00268226655905401,,
0.00278125,0.254402144341333,0.00360119567524153,,
0.0028125,0.301117307051325,0.00441871793326731,,
0.00284375,0.33644513610365,0.00506441155161186,,
0.002875,0.358713395200084,0.00549159919566389,,
0.00290625,0.366954533114811,0.0056820461446474,,
0.0029375,0.361409603205035,0.00567144515259743,,
0.00296875,0.341972000919124,0.00548039270436673,,
0.003,0.309821227592549,0.00505423218992762,,
0.00303125,0.265394915258604,0.00442737562145146,,
0.0030625,0.210886172221425,0.0036177882566979,,
0.00309375,0.14807258033726,0.00270813500855382,,
0.003125,0.0797996701085405,0.00165650645270743,,
0.00315625,0.00923700185722052,0.000569002859021506,,
0.0031875,-0.0624145787477663,-0.000534112153728117,,
0.00321875,-0.132875649142959,-0.0016543333127399,,
0.00325,-0.197698009244175,-0.00270468429687742,,
0.00328125,-0.254658803363469,-0.00363228378186164,,
0.0033125,-0.30162857557112,-0.00440575200698579,,
0.00334375,-0.336898139570509,-0.00504542708962274,,
0.003375,-0.359339846995385,-0.00548512415790592,,
0.00340625,-0.367810180304281,-0.00568305583841777,,
0.0034375,-0.362152438711606,-0.00569042485935656,,
0.00346875,-0.34262966404429,-0.00547467850335881,,
0.0035,-0.309681274349815,-0.0050593916141386,,
0.00353125,-0.265210926518575,-0.00442428947738405,,
0.0035625,-0.210308850455685,-0.00358708215352932,,
0.00359375,-0.147514289870219,-0.00270151731390555,,
0.003625,-0.0791990716005475,-0.00165130740158226,,
0.00365625,-0.00838911358183564,-0.000590857894665398,,
0.0036875,0.0628367515107338,0.000526480010079489,,
0.00371875,0.132928995337156,0.00165697246521646,,
0.00375,0.197773285350257,0.00270350658499119,,
0.00378125,0.254397869618856,0.00361367656809453,,
0.0038125,0.301336196265275,0.00441426069797357,,
0.00384375,0.336365673111855,0.00503974141999342,,
0.003875,0.358696267031256,0.00548554737334817,,
0.00390625,0.367058063379729,0.00567747161368803,,
0.0039375,0.361310845404252,0.00568242022271637,,
0.00396875,0.342573536352591,0.00544813639631991,,
0.004,0.3096187345744,0.00506139673599026,,
0.00403125,0.265170521607492,0.00441789369345447,,
0.0040625,0.21101444317465,0.00363325860394781,,
0.00409375,0.148148471300684,0.00269148853449463,,
0.004125,0.0798836713331021,0.00163649961633539,,
0.00415625,0.00923319559748089,0.00058541474174989,,
0.0041875,-0.0623703090191023,-0.000560546475560475,,
0.00421875,-0.132857554769735,-0.00166907135461791,,
0.00425,-0.197676811305318,-0.00269264088515531,,
0.00428125,-0.254801567382626,-0.00362383373870712,,
0.0043125,-0.301514094989721,-0.00442644042627949,,
0.00434375,-0.336931458982691,-0.00504213013037313,,
0.004375,-0.359406017357013,-0.00546237672415772,,
0.00440625,-0.367747523413182,-0.00570964391267692,,
0.0044375,-0.36217000606425,-0.00568507839611154,,
0.00446875,-0.342321942583802,-0.00544905574072629,,
0.0045,-0.309758395027924,-0.00503454236886824,,
0.00453125,-0.265060257190727,-0.00443299630294192,,
0.0045625,-0.210312890946794,-0.00363505291061639,,
0.00459375,-0.147540699457028,-0.00269464917716,,
0.004625,-0.0792102561483978,-0.00165840537442907,,
0.00465625,-0.00835392031870457,-0.000597491440079256,,
0.0046875,0.0627627343982584,0.000556919820385637,,
0.00471875,0.132972064630056,0.00165581218917277,,
0.00475,0.197656930917908,0.0027004917693696,,
0.00478125,0.25441022532355,0.00363179082305098,,
0.0048125,0.301471377043874,0.00441642591255764,,
0.00484375,0.336365673111855,0.00504249628305908,,
0.004875,0.358521618267049,0.00547266387104806,,
0.00490625,0.367226534291589,0.00570130482488196,,
0.0049375,0.361519545553668,0.0057021163840818,,
0.00496875,0.342219700591411,0.00548387036234477,,
0.005,0.309565212706677,0.00503823559725891,,
0.00503125,0.265424428411047,0.00441697751920156,,
0.0050625,0.210829312556699,0.00362631279845083,,
0.00509375,0.148191072130847,0.00269267734191647,,
0.005125,0.079857964440399,0.00164370220423526,,
0.00515625,0.00914512460288999,0.000577646281517019,,
0.0051875,-0.0623705432504709,-0.000551243661215395,,
0.00521875,-0.132877054531171,-0.00166172769490425,,
0.00525,-0.19775920218922,-0.00269624693433501,,
0.00528125,-0.254900588693699,-0.00362267346266343,,
0.0053125,-0.301406582791537,-0.00441999867512965,,
0.00534375,-0.337109943285559,-0.00503454236886824,,
0.005375,-0.35917096617863,-0.00545437525767012,,
0.00540625,-0.367808950589596,-0.00568811698788174,,
0.0054375,-0.361974657102844,-0.00569812674637404,,
0.00546875,-0.342349054864716,-0.00545952834157459,,
0.0055,-0.309819763646495,-0.0050258846806841,,
0.00553125,-0.265224746169322,-0.00440034055560146,,
0.0055625,-0.210444763207311,-0.00363867322548517,,
0.00559375,-0.147531622991495,-0.00270970898958023,,
0.005625,-0.0791714322990535,-0.00166493588986638,,
0.00565625,-0.00835198790991368,-0.000595481562998046,,
0.0056875,0.0627065774276383,0.000544128252526477,,
0.00571875,0.133021311775303,0.00166565234447269,,
0.00575,0.197817057337262,0.00270864857336006,,
0.00578125,0.254551086212837,0.00362845582196325,,
0.0058125,0.301443298558564,0.00440162446761727,,
0.00584375,0.336450640540812,0.00506779727514939,,
0.005875,0.358628457050048,0.00547506050681079,,
0.00590625,0.367006181131586,0.00569025050093508,,
0.0059375,0.36143674476487,0.00569921886412539,,
0.00596875,0.34240175692265,0.00550324633824495,,
0.006,0.309826263566974,0.00504550158822159,,
0.00603125,0.265451540691962,0.00442251894686407,,
0.0060625,0.210826238269986,0.00362715288902882,,
0.00609375,0.148144899272313,0.00270324980258829,,
0.006125,0.0797948976444054,0.0016594039726634,,
0.00615625,0.00918989207321229,0.00056713563883104,,
0.0061875,-0.0624754789036004,-0.000555406072268561,,
0.00621875,-0.132860424104001,-0.00167641342925551,,
0.00625,-0.197647122479348,-0.00269935209932104,,
0.00628125,-0.254703073092133,-0.00362780118534323,,
0.0063125,-0.301809402187674,-0.00442774018906089,,
0.00634375,-0.336878639809073,-0.00503689937771679,,
0.006375,-0.358975324428013,-0.00546495247357148,,
0.00640625,-0.367668587441966,-0.00568386739761761,,
0.0064375,-0.361972021999947,-0.00569042485935656,,
0.00646875,-0.342559394633712,-0.00547038928618093,,
0.0065,-0.3099550908197,-0.00502459759851526,,
0.00653125,-0.265055279774145,-0.00440353606995147,,
0.0065625,-0.210429069705616,-0.00359836631357746,,
0.00659375,-0.147721526073582,-0.00270861370167585,,
0.006625,-0.0791054961687946,-0.00166636562892597,,
0.00665625,-0.00838887935046705,-0.000574831185542024,,
0.0066875,0.0627051720394268,0.000555605791915603,,
0.00671875,0.132931132698395,0.00163494307115108,,
0.00675,0.197690953024196,0.00269557486187244,,
0.00678125,0.254342883805079,0.00364647497232573,,
0.0068125,0.301353119481655,0.0044398850456826,,
0.00684375,0.336586260503227,0.00506177081405879,,
0.006875,0.358792389729142,0.00547206154195434,,
0.00690625,0.36727317561286,0.00570270920271598,,
0.0069375,0.36126610721285,0.00569449216581619,,
0.00696875,0.342423628276692,0.0054564326870481,,
0.007,0.309472632758241,0.0050597228951399,,
0.00703125,0.265444865097957,0.0043989203270014,,
0.0070625,0.210745077100768,0.00362543783618863,,
0.00709375,0.1480687447986,0.00268618169816337,,
0.007125,0.0798736872210158,0.00166132508545713,,
0.00715625,0.00918942361047511,0.000567432048148131,,
0.0071875,-0.0624460243089999,-0.000537886221023243,,
0.00721875,-0.132863469111792,-0.00165992387777614,,
0.00725,-0.197619483177854,-0.00269141720604926,,
0.00728125,-0.254754955340276,-0.00363769523324597,,
0.0073125,-0.301848226037018,-0.00444240056218748,,
0.00734375,-0.336667128883234,-0.00505783189880082,,
0.007375,-0.359145200728085,-0.00546464338364183,,
0.00740625,-0.367653128171639,-0.00568798859668007,,
0.0074375,-0.36192113523512,-0.00571229733084255,,
0.00746875,-0.342360473643935,-0.0054635354151249,,
0.0075,-0.309742935757597,-0.00504097143940552,,
0.00753125,-0.26510312153118,-0.00441876231541105,,
0.0075625,-0.210404709643282,-0.00361944149155224,,
0.00759375,-0.147633513636833,-0.00270400271395532,,
0.007625,-0.0791690314275254,-0.00164994265066198,,
0.00765625,-0.00831509646936031,-0.000570308962108967,,
0.0076875,0.0627536872116465,0.000509939736149878,,
0.00771875,0.132941116810481,0.00163295855529499,,
0.00775,0.197754254051559,0.00268060539881665,,
0.00778125,0.254533255349903,0.0036405372755226,,
0.0078125,0.301308849752991,0.00441659393067351,,
0.00784375,0.336261703663121,0.00504016622051218,,
0.007875,0.35862631968881,0.00547029259651044,,
0.00790625,0.366962379865659,0.00569077991650691,,
0.0079375,0.361474104668161,0.00567601651340377,,
0.00796875,0.34205313280942,0.00547208690317946,,
0.008,0.309716057708051,0.00503741135744651,,
0.00803125,0.265608124361866,0.0044267447609796,,
0.0080625,0.210771252456209,0.00361571497655389,,
0.00809375,0.1481194558899,0.00270243824338845,,
0.008125,0.0798641715716667,0.00164711645915094,,
0.00815625,0.00920034464803575,0.000577028101657717,,
0.0081875,-0.0625197486322645,-0.000549428748551239,,
0.00821875,-0.132866104214689,-0.0016650008780057,,
0.00825,-0.197441291664197,-0.00268954998585835,,
0.00828125,-0.254576998057988,-0.00363442205014453,,
0.0083125,-0.30164192675913,-0.00441990832576566,,
0.00834375,-0.336945747096175,-0.0050515454851543,,
0.008375,-0.359367193507669,-0.00547594022430298,,
0.00840625,-0.36760218284897,-0.00567223452072563,,
0.0084375,-0.362177852815098,-0.0056688725733367,,
0.00846875,-0.342349289096085,-0.00546670398317328,,
0.0085,-0.309929442484839,-0.00505309251987907,,
0.00853125,-0.265003163294633,-0.00443079463159668,,
0.0085625,-0.210273891423923,-0.00363622586727264,,
0.00859375,-0.147628301988882,-0.00270280439607395,,
0.008625,-0.0791023926031608,-0.00167730265720722,,
0.00865625,-0.00833869527974604,-0.000576195936462298,,
0.0086875,0.0627917790879639,0.000526326257653142,,
0.00871875,0.133081538515952,0.00164564867825412,,
0.00875,0.197627915507124,0.00266630800822254,,
0.00878125,0.254548011926124,0.0036235452547726,,
0.0088125,0.301235564613543,0.00443725698874209,,
0.00884375,0.336847047853234,0.00504775556709314,,
0.008875,0.358739102092787,0.00546494771834194,,
0.00890625,0.366941708947381,0.00568683941617243,,
0.0089375,0.361588058228981,0.00569696488525384,,
0.00896875,0.342139769136878,0.00545921608149191,,
0.009,0.309495938779416,0.00502647432916525,,
0.00903125,0.26555290431672,0.00441412121123586,,
0.0090625,0.210769583557707,0.00361431059871986,,
0.00909375,0.148241051249121,0.00268059271820409,,
0.009125,0.0798256112326121,0.00165793619176657,,
0.00915625,0.0092239141795004,0.000590051090695098,,
0.0091875,-0.06244766392858,-0.000561164655420221,,
0.00921875,-0.132925364750943,-0.0016756288163573,,
0.00925,-0.197803237686516,-0.00270204514440087,,
0.00928125,-0.254611254395644,-0.00363242643875239,,
0.0093125,-0.301596017410886,-0.00444895802392642,,
0.00934375,-0.336958571263606,-0.00505488365639462,,
0.009375,-0.359428386452714,-0.00547994571277632,,
0.00940625,-0.3679017647694,-0.00570974694265347,,
0.0094375,-0.362231374682821,-0.00567178435898175,,
0.00946875,-0.342332658668915,-0.0054687661677808,,
0.0095,-0.309633666824148,-0.00503835447800105,,
0.00953125,-0.265143350768736,-0.00440504347776249,,
0.0095625,-0.210175338575588,-0.00362773619720391,,
0.00959375,-0.147528050963124,-0.00270427217697122,,
0.009625,-0.0790691317488206,-0.00168326730031199,,
0.00965625,-0.00832938458284447,-0.000585549473257618,,
0.0096875,0.062757025008649,0.000539697963534369,,
0.00971875,0.132928263364129,0.00163693709746671,,
0.00975,0.197541513411034,0.00267944512277252,,
0.00978125,0.25443804029857,0.00363024378832577,,
0.0098125,0.301305980418726,0.00442093704045465,,
0.00984375,0.336462527782768,0.00501641226314664,,
0.009875,0.358641076265031,0.0054753585012044,,
0.00990625,0.367263659963511,0.00567430463071616,,
0.0099375,0.361537142185233,0.00567147051382255,,
0.00996875,0.34228537321138,0.00547583402417295,,
0.01,0.309525715442148,0.00505302119143369,,
0.01003125,0.265507697662582,0.00444374629218913,,
0.0100625,0.210739367711159,0.00363718642366972,,
0.01009375,0.148132514288699,0.00269204648144461,,
0.010125,0.0798622684417969,0.0016307552988728,,
0.01015625,0.00922318220647354,0.00058550509111388,,
0.0101875,-0.06246265473617,-0.000524037407096944,,
0.01021875,-0.132844672044463,-0.0016647948180526,,
0.01025,-0.197765877783225,-0.00269861820887263,,
0.01028125,-0.254626010971866,-0.00364695683560079,,
0.0103125,-0.301412321460067,-0.00442564154769221,,
0.01034375,-0.336938603039433,-0.00501192174124476,,
0.010375,-0.359303424017569,-0.00546660095319673,,
0.01040625,-0.367640245446367,-0.00569141553220831,,
0.0104375,-0.362083457573555,-0.00569142821282087,,
0.01046875,-0.342398126336436,-0.00545768648260925,,
0.0105,-0.309720273872685,-0.00505150744331662,,
0.01053125,-0.264948470270066,-0.0044222922809154,,
0.0105625,-0.21053277564406,-0.00363733383579001,,
0.01059375,-0.147534023863023,-0.00267814853014459,,
0.010625,-0.0790517400697026,-0.0016620367848339,,
0.01065625,-0.00835175367854509,-0.000583564957401084,,
0.0106875,0.0627996258388118,0.000533565302313743,,
0.01071875,0.132966121009078,0.00166653047688836,,
0.01075,0.197780897869736,0.00269984822828517,,
0.01078125,0.254508719614043,0.00363295109909467,,
0.0108125,0.301452550697623,0.00445043531528277,,
0.01084375,0.336584591604726,0.00505369326389626,,
0.010875,0.358570396949558,0.00549002996986703,,
0.01090625,0.367223664957324,0.00566741271782245,,
0.0109375,0.361496210253572,0.00568242022271637,,
0.01096875,0.342125715254763,0.00546195826394502,,
0.011,0.309835749937402,0.00503967801693062,,
0.01103125,0.265317823859416,0.00442553376248567,,
0.0110625,0.210817191083374,0.00363446960244129,,
0.01109375,0.148096384100094,0.00269750548512571,,
0.011125,0.0798644058030353,0.00167808251487589,,
0.01115625,0.00913514049080372,0.000551739790179528,,
0.0111875,-0.0623759891297907,-0.000560519529259285,,
0.01121875,-0.132853280047259,-0.00167079750299459,,
0.01125,-0.197741342047365,-0.00270280439607395,,
0.01128125,-0.254675258117112,-0.00363382923151034,,
0.0113125,-0.301675246171313,-0.00442077060741575,,
0.01134375,-0.337031592892764,-0.00504292900896042,,
0.011375,-0.35934078392086,-0.00546344506576046,,
0.01140625,-0.367704717630572,-0.00570148869376297,,
0.0114375,-0.362027476276461,-0.00568993507069893,,
0.01146875,-0.342823783291012,-0.00545806056067777,,
0.0115,-0.309906136463664,-0.00503170825197463,,
0.01153125,-0.265281840065416,-0.00442678755804682,,
0.0115625,-0.210501622872037,-0.00364278174393506,,
0.01159375,-0.147433597163739,-0.00270307544416637,,
0.011625,-0.079115509559802,-0.00166849121659629,,
0.01165625,-0.00835292483538805,-0.0005822905558448,,
0.0116875,0.0627772567431112,0.000526969798737564,,
0.01171875,0.132941351041849,0.0016434834636696,,
0.01175,0.197854680750843,0.00270108458800378,,
0.01178125,0.254347392758925,0.00364842144634459,,
0.0118125,0.301331218848692,0.00441360447627659,,
0.01184375,0.336201242691103,0.00507211502370586,,
0.011875,0.358439285940988,0.00548387036234477,,
0.01190625,0.367069482158948,0.0057024365695475,,
0.0119375,0.361264936056008,0.00569030122338487,,
0.01196875,0.342164012083528,0.00547808800304495,,
0.012,0.309676326212153,0.005047923585209,,
0.01203125,0.265435847190266,0.00441534489034234,,
0.0120625,0.210867638664385,0.00362399541651648,,
0.01209375,0.148083296422374,0.00270175666046635,,
0.012125,0.0798729552479889,0.0016669933192448,,
