Time domain (s),Current (AC) (A),Potential (AC) (V),Frequency (Hz),Column 5
0,0.318492648531381,0.0102221175747315,0.15849,0.4
0.0154041658779734,0.321380487074762,0.0103628467195778,,
0.0308083317559467,0.3244618007286,0.0104573551422589,,
0.0462124976339201,0.32704021963407,0.0105722572098803,,
0.0616166635118935,0.329683286397271,0.010640073591901,,
0.0770208293898669,0.332488675498907,0.0107482874211282,,
0.0924249952678402,0.335007131174017,0.0108922490114889,,
0.107829161145814,0.337517622982595,0.0109956750853626,,
0.123233327023787,0.3402382203288,0.0110688314998599,,
0.13863749290176,0.342471850659701,0.0111668931760898,,
0.154041658779734,0.344575482581033,0.0112835901443611,,
0.169445824657707,0.346971903713106,0.0113420990325142,,
0.18484999053568,0.348935933738757,0.011467502487196,,
0.200254156413654,0.350969530480879,0.0115240134316394,,
0.215658322291627,0.353117197899507,0.0116093727340392,,
0.231062488169601,0.354903914779133,0.0116858428112749,,
0.246466654047574,0.356657605035787,0.0117605951442235,,
0.261870819925547,0.358387403692845,0.011867343002558,,
0.277274985803521,0.360223543391244,0.0119146967049977,,
0.292679151681494,0.361533365204415,0.0120142527781488,,
0.308083317559468,0.363160804753398,0.0120738337336581,,
0.323487483437441,0.364494283934797,0.0121198514127636,,
0.338891649315414,0.365729620172755,0.0121791359254058,,
0.354295815193388,0.367041784299612,0.0122283413805522,,
0.369699981071361,0.368172419115809,0.0123156702006337,,
0.385104146949334,0.368966931918076,0.0123238081664763,,
0.400508312827308,0.370122161027976,0.0123844611893422,,
0.415912478705281,0.370550570201132,0.0124566754840414,,
0.431316644583254,0.371574395513251,0.0125266197573306,,
0.446720810461228,0.372139361574297,0.0125196553803746,,
0.462124976339201,0.372704327635343,0.0125528732249811,,
0.477529142217175,0.373388751694371,0.0126146754715664,,
0.492933308095148,0.373972456264904,0.0126482344285139,,
0.508337473973121,0.373792800805194,0.0126698706969814,,
0.523741639851095,0.374302254031883,0.0126698382100918,,
0.539145805729068,0.374581692054614,0.0126854319170953,,
0.554549971607041,0.374468089840847,0.0127160670539794,,
0.569954137485015,0.374590358615252,0.0127472057376523,,
0.585358303362988,0.374503458777504,0.0127727729197602,,
0.600762469240962,0.374130562438705,0.0127672988788645,,
0.616166635118935,0.374005248656507,0.0127765413989529,,
0.631570800996908,0.373700045183231,0.0127529721605546,,
0.646974966874882,0.373239780543946,0.0127567568831921,,
0.662379132752855,0.372537789132274,0.0127636603472303,,
0.677783298630828,0.371996714670824,0.0127817393012877,,
0.693187464508802,0.371295660184626,0.0127535569245674,,
0.708591630386775,0.370535110930805,0.0127318881692102,,
0.723995796264749,0.369719517305365,0.012748752925769,,
0.739399962142722,0.368382758884806,0.0127127371477966,,
0.754804128020695,0.367508841648586,0.0127284445589138,,
0.770208293898669,0.366226659136909,0.0126808025353289,,
0.785612459776642,0.365207049989424,0.012640827417687,,
0.801016625654615,0.363795337530916,0.012656242446798,,
0.816420791532589,0.362558127442008,0.0125637847590223,,
0.831824957410562,0.360832779180954,0.0125440977039304,,
0.847229123288536,0.359418724408759,0.012523667511239,,
0.862633289166509,0.357597809749319,0.0124694915619852,,
0.878037455044482,0.355900569252495,0.01246432614654,,
0.893441620922456,0.354024610221435,0.0123872672444305,,
0.908845786800429,0.352094309512862,0.0123372699213502,,
0.924249952678402,0.350287214504169,0.0123182691518009,,
0.939654118556376,0.348069277674963,0.0122456528318429,,
0.955058284434349,0.345830494253953,0.012192390576359,,
0.970462450312323,0.343707186897659,0.0121154331957793,,
0.985866616190296,0.341563032949561,0.0120894599275516,,
1.00127078206827,0.338963064758181,0.0120193166720637,,
1.01667494794624,0.33652635583071,0.0119180753415149,,
1.03207911382422,0.333856586691489,0.0118493005962512,,
1.04748327970219,0.331292924362241,0.0118074899693479,,
1.06288744558016,0.328616128281962,0.0116920315637419,,
1.07829161145814,0.325728055507213,0.0116447022264694,,
1.09369577733611,0.322866919339852,0.0115704006491137,,
1.10909994321408,0.31974789443567,0.0114730699279,,
1.12450410909206,0.316982558898063,0.0113789229218657,,
1.13990827497003,0.313919983753712,0.0112796429872759,,
1.155312440848,0.310632546495512,0.0111949496661126,,
1.17071660672598,0.307412333640098,0.0110622569655789,,
1.18612077260395,0.304114355970312,0.0110004953276053,,
1.20152493848192,0.30063578591534,0.0109060437569815,,
1.2169291043599,0.297319538198803,0.0107874016361955,,
1.23233327023787,0.29390772408388,0.0106930109784895,,
1.24773743611584,0.290002384475332,0.0105708277867382,,
1.26314160199382,0.28657557955282,0.0104705245151266,,
1.27854576787179,0.28285692234504,0.0103147011492042,,
1.29394993374976,0.278980861657566,0.0102423853329747,,
1.30935409962774,0.275234565148293,0.0100905091241379,,
1.32475826550571,0.271293153908982,0.0100019336196682,,
1.34016243138368,0.267162015261111,0.00988046513948815,,
1.35556659726166,0.263150100379853,0.00974502729678406,,
1.37097076313963,0.259273336998273,0.00965206606221969,,
1.3863749290176,0.254724095357464,0.00947231610211352,,
1.40177909489558,0.25066158650059,0.009364865714792,,
1.41718326077355,0.246527402844927,0.00918976137989747,,
1.43258742665152,0.241950551181545,0.00907618721388781,,
1.4479915925295,0.237762699263553,0.00896599168439582,,
1.46339575840747,0.233097249585001,0.00883376598289987,,
1.47879992428544,0.22870825147923,0.00868010705599653,,
1.49420409016342,0.224095298906163,0.00849077346346094,,
1.50960825604139,0.219472742846984,0.00835799954570327,,
1.52501242191936,0.214669828633988,0.00821133748264558,,
1.54041658779734,0.209896896036173,0.00807572096204856,,
1.55582075367531,0.205174557413973,0.00791608038659897,,
1.57122491955328,0.200384057463513,0.00774433438391586,,
1.58662908543126,0.195498459577404,0.00760935541852703,,
1.60203325130923,0.190641701428554,0.00746318065881324,,
1.6174374171872,0.185555103749271,0.0072811728598805,,
1.63284158306518,0.180493861615639,0.00710394063371789,,
1.64824574894315,0.175504704185691,0.00696241556007626,,
1.66364991482112,0.170307578579354,0.00678964622037137,,
1.6790540806991,0.165327585451702,0.00661988597881447,,
1.69445824657707,0.160023884572655,0.00646791230930832,,
1.70986241245504,0.154764687653641,0.00630734991836679,,
1.72526657833302,0.149560271595957,0.00612592282258539,,
1.74067074421099,0.144195231377259,0.00592534876625184,,
1.75607491008896,0.138934629070034,0.00576814470752174,,
1.77147907596694,0.133561566426962,0.00557401929877166,,
1.78688324184491,0.128111763731755,0.00540685800838192,,
1.80228740772288,0.122692323277703,0.00521538028113344,,
1.81769157360086,0.117300785635433,0.00504261500228953,,
1.83309573947883,0.111759369196186,0.00488336426951541,,
1.8484999053568,0.106231245387106,0.00467619537459463,,
1.86390407123478,0.10067434039861,0.00453707026992189,,
1.87930823711275,0.0951682343381781,0.00432358267497568,,
1.89471240299073,0.0895860909197165,0.00413397294387874,,
1.9101165688687,0.0839809049903696,0.00394764844949158,,
1.92552073474667,0.0783972976258543,0.00377154920360345,,
1.94092490062465,0.0727733731870199,0.00357162082420004,,
1.95632906650262,0.0671258499377999,0.00337046606471469,,
1.97173323238059,0.0614124783950841,0.00320194032496213,,
1.98713739825857,0.055698140647973,0.00301821478174258,,
2.00254156413654,0.0499709494545103,0.00283608921783518,,
2.01794573001451,0.0442782195511518,0.00263234362890508,,
2.03334989589249,0.0385603976124328,0.002422368678896,,
2.04875406177046,0.0328458549128741,0.0022290391989408,,
2.06415822764843,0.0270943036570778,0.00205143743440894,,
2.07956239352641,0.0213244823545312,0.00185585011562717,,
2.09496655940438,0.0155738680242092,0.00168956597125636,,
2.11037072528235,0.00980029901976515,0.001473520033755,,
2.12577489116033,0.00408692747704943,0.00128046669236159,,
2.1411790570383,-0.00172599239731824,0.00108373014986052,,
2.15658322291627,-0.0075112144123498,0.000871525787053073,,
2.17198738879425,-0.0133127740653407,0.000704559418001072,,
2.18739155467222,-0.0190112719161508,0.000490889084300949,,
2.20279572055019,-0.0247880030440709,0.000312393930305355,,
2.21819988642817,-0.030540666898868,8.07786509673392E-05,,
2.23360405230614,-0.0362779300411802,-0.000117649240222839,,
2.24900821818411,-0.0420318821685046,-0.000307669118300602,,
2.26441238406209,-0.0477594832668624,-0.000509394428784393,,
2.27981654994006,-0.0534020583784209,-0.000703536080979283,,
2.29522071581803,-0.0591410196981554,-0.000882475899276258,,
2.31062488169601,-0.0648457246802332,-0.00107383789198057,,
2.32602904757398,-0.0704731333106754,-0.00127439570486931,,
2.34143321345195,-0.0761712798144325,-0.00147576568999819,,
2.35683737932993,-0.0817516079397875,-0.00166724341724667,,
2.3722415452079,-0.0874249844763161,-0.00186803066879326,,
2.38764571108587,-0.0929483358212609,-0.00206192663888594,,
2.40304987696385,-0.098576915608546,-0.00226196466154116,,
2.41845404284182,-0.104160288741693,-0.0024542220741397,,
2.43385820871979,-0.10966870783689,-0.00262612645040994,,
2.44926237459777,-0.115075704749486,-0.00281256870977176,,
2.46466654047574,-0.120618145950971,-0.00300822100233233,,
2.48007070635371,-0.126007516953081,-0.00319773327276041,,
2.49547487223169,-0.131415450791152,-0.00339268506676449,,
2.51087903810966,-0.136870230902941,-0.00358624398537755,,
2.52628320398763,-0.142179494776992,-0.00378784137873334,,
2.54168736986561,-0.147399867846662,-0.00396850097174806,,
2.55709153574358,-0.152852305644765,-0.00415510566555755,,
2.57249570162155,-0.157904207802575,-0.00435452643731127,,
2.58789986749953,-0.163158075957954,-0.00452045322589623,,
2.6033040333775,-0.168335233340118,-0.00472596528944802,,
2.61870819925547,-0.173410558634787,-0.00488825151596828,,
2.63411236513345,-0.17865716561774,-0.00507331511295295,,
2.64951653101142,-0.183621640917222,-0.00524978389721076,,
2.66492069688939,-0.188616859083832,-0.00541390766342342,,
2.68032486276737,-0.193582622655842,-0.00558669121614308,,
2.69572902864534,-0.19827983996376,-0.00578497291632996,,
2.71113319452331,-0.203286067004694,-0.0059384734696466,,
2.72653736040129,-0.208190227726763,-0.00612165079660443,,
2.74194152627926,-0.212714348053291,-0.00630053985413648,,
2.75734569215723,-0.217591982072868,-0.00648420245400771,,
2.77274985803521,-0.222313149538225,-0.00664089078336572,,
2.78815402391318,-0.226839963525491,-0.00682058998270652,,
2.80355818979115,-0.231363146926545,-0.00697033830027571,,
2.81896235566913,-0.235734138495855,-0.0071568780203064,,
2.8343665215471,-0.240244087824583,-0.00729934927460674,,
2.84977068742507,-0.244672875984094,-0.00747913172160253,,
2.86517485330305,-0.248851739273316,-0.00762449227864614,,
2.88057901918102,-0.253193334805868,-0.00778127806867257,,
2.89598318505899,-0.257543948246111,-0.00795681894614608,,
2.91138735093697,-0.261692595688784,-0.00812172239770925,,
2.92679151681494,-0.265766289093508,-0.00822853929068401,,
2.94219568269291,-0.269907324016703,-0.00837817390413953,,
2.95759984857089,-0.273623404679427,-0.008562731923905,,
2.97300401444886,-0.277821065035979,-0.0086861151001405,,
2.98840818032683,-0.281563086822776,-0.00882407473764912,,
3.00381234620481,-0.285637424363763,-0.00896893174790403,,
3.01921651208278,-0.289077756147812,-0.009109778657725,,
3.03462067796075,-0.292534484127663,-0.00925195753001917,,
3.05002484383873,-0.296153651561632,-0.0093953384172285,,
3.0654290097167,-0.299659216781834,-0.00952658545117524,,
3.08083317559468,-0.303031621468991,-0.00967389725202494,,
3.09623734147265,-0.306460066011084,-0.00977930096530244,,
3.11164150735062,-0.30987305128285,-0.00993631213312574,,
3.12704567322859,-0.313013801146469,-0.0100240084611456,,
3.14244983910657,-0.315987192697228,-0.0101616716557866,,
3.15785400498454,-0.319200378611584,-0.0102775666039716,,
3.17325817086251,-0.322024506222708,-0.0103864829621858,,
3.18866233674049,-0.325061315916513,-0.0104766807807044,,
3.20406650261846,-0.327861727601567,-0.0106408532772515,,
3.21947066849643,-0.330605396737579,-0.0107242146359416,,
3.23487483437441,-0.333374187187872,-0.0108499064117686,,
3.25027900025238,-0.336024983586237,-0.0109579740499925,,
3.26568316613036,-0.338671563819967,-0.0110352766037738,,
3.28108733200833,-0.340768168800241,-0.0111582557243199,,
3.2964914978863,-0.343253597852379,-0.0112517022317973,,
3.31189566376428,-0.345487462414649,-0.0113262291869494,,
3.32729982964225,-0.347534410344782,-0.0114384896643611,,
3.34270399552022,-0.349748599472089,-0.0115221251311821,,
3.3581081613982,-0.351935149297903,-0.0116054702464274,,
3.37351232727617,-0.353731001200904,-0.0117023299077426,,
3.38891649315414,-0.355653572274314,-0.0117786395809607,,
3.40432065903212,-0.357496973145139,-0.0118001479323007,,
3.41972482491009,-0.358933982591456,-0.0119154763903482,,
3.43512899078806,-0.360549944803378,-0.0119526901223743,,
3.45053315666604,-0.362344625549536,-0.0120515314839547,,
3.46593732254401,-0.363693329769893,-0.0121382877226068,,
3.48134148842198,-0.364930305627432,-0.0121840150501367,,
3.49674565429996,-0.366664788911862,-0.0122499776490201,,
3.51214982017793,-0.36755557080662,-0.0123261106747763,,
3.5275539860559,-0.368855086439573,-0.0123735415335786,,
3.54295815193388,-0.369606032207282,-0.0124030883596618,,
3.55836231781185,-0.370511336446893,-0.0124617901387216,,
3.57376648368982,-0.371548278715653,-0.0125198462408513,,
3.5891706495678,-0.372306954118525,-0.0125489220070349,,
3.60457481544577,-0.372903541414331,-0.0126005924049291,,
3.61997898132374,-0.373838827269122,-0.0126314549500406,,
3.63538314720172,-0.37428691187724,-0.0126448557919967,,
3.65078731307969,-0.374176061882054,-0.0126774076553668,,
3.66619147895766,-0.374707357183864,-0.0127451265767187,,
3.68159564483564,-0.374940885858351,-0.0127477905016651,,
3.69699981071361,-0.374986268186016,-0.0127879767840891,,
3.71240397659158,-0.375172950586785,-0.0127967157573892,,
3.72780814246956,-0.374947444336672,-0.0128098546737978,,
3.74321230834753,-0.374828689032795,-0.0128184982168595,,
3.7586164742255,-0.374585088409459,-0.0128341893845323,,
3.77402064010348,-0.374607106158107,-0.0128856811045335,,
3.78942480598145,-0.37406175697418,-0.0128598195099885,,
3.80482897185942,-0.373584217771462,-0.0128250930554468,,
3.8202331377374,-0.373103340771741,-0.0128542500388544,,
3.83563730361537,-0.372463186441377,-0.012859123072293,,
3.85104146949334,-0.371582008032731,-0.0128410278747908,,
3.86644563537132,-0.370641334856462,-0.0128240372315349,,
3.88184980124929,-0.369793417302156,-0.012810311520683,,
3.89725396712726,-0.368808005934486,-0.0128087988498864,,
3.91265813300524,-0.367618579044772,-0.012794293453684,,
3.92806229888321,-0.36652571403676,-0.0127633029914449,,
3.94346646476118,-0.36542172303874,-0.0127150762038473,,
3.95887063063916,-0.363974465970047,-0.0126930176058151,,
3.97427479651713,-0.362490785923538,-0.0126428903351763,,
3.9896789623951,-0.360964534325787,-0.0126046695095727,,
4.00508312827308,-0.359431665691874,-0.012567244612764,,
4.02048729415105,-0.357698646353498,-0.0125403312551686,,
4.03589146002902,-0.355813786530431,-0.0125037327436139,,
4.051295625907,-0.354133176460778,-0.0124591769745401,,
4.06669979178497,-0.352184137242717,-0.0124214089349604,,
4.08210395766294,-0.349906002951784,-0.0123577021444725,,
4.09750812354092,-0.347798154865817,-0.0122939324106364,,
4.11291228941889,-0.345925065169022,-0.0122322073204137,,
4.12831645529686,-0.343639376916452,-0.0121919073338765,,
4.14372062117484,-0.341204073377192,-0.0121028140696042,,
4.15912478705281,-0.338761040202769,-0.0120511091543896,,
4.17452895293078,-0.336091271063549,-0.0119925048359986,,
4.18993311880876,-0.333461555488357,-0.01191331601219,,
4.20533728468673,-0.331299599956246,-0.0117992220559473,,
4.2207414505647,-0.328088287892838,-0.0117386015199705,,
4.23614561644268,-0.325476842364397,-0.0116531447569019,,
4.25154978232065,-0.322562535676365,-0.0115887394982881,,
4.26695394819862,-0.319438826144812,-0.0114963467842917,,
4.2823581140766,-0.316397624612845,-0.0114105346958682,,
4.29776227995457,-0.31328995993004,-0.0113086700231255,,
4.31316644583254,-0.309988761578935,-0.0112046794895453,,
4.32857061171052,-0.307021050138864,-0.0111171598089874,,
4.34397477758849,-0.303431922877916,-0.0110189844286439,,
4.35937894346646,-0.300167967314418,-0.0109257490859491,,
4.37478310934444,-0.296639681651462,-0.0108244346598987,,
4.39018727522241,-0.293176336635449,-0.0107015712738967,,
4.40559144110038,-0.289634758342326,-0.010618599757882,,
4.42099560697836,-0.285851921739552,-0.0104887009298529,,
4.43639977285633,-0.281928019295043,-0.0103769967904253,,
4.45180393873431,-0.278216447586164,-0.0102430025838776,,
4.46720810461228,-0.274372710827556,-0.0101391095109657,,
4.48261227049025,-0.270445119238992,-0.010004776222508,,
4.49801643636822,-0.266177892165968,-0.00990827594740873,,
4.5134206022462,-0.262177454621771,-0.00976018243077847,,
4.52882476812417,-0.258117288078584,-0.00963860024648477,,
4.54422893400215,-0.253922438498455,-0.00950231774465093,,
4.55963309988012,-0.249656148350906,-0.00937404326110158,,
4.57503726575809,-0.245244634754829,-0.00924903370995622,,
4.59044143163607,-0.24090666980849,-0.0091021767255608,,
4.60584559751404,-0.236406148292348,-0.00894286101900743,,
4.62124976339201,-0.231949662273501,-0.00881088303004463,,
4.63665392926999,-0.227409145751172,-0.00867728069660201,,
4.65205809514796,-0.222743666793698,-0.00853571907521022,,
4.66746226102593,-0.218163272380866,-0.00838257587767899,,
4.68286642690391,-0.213428987958868,-0.00820165435911679,,
4.69827059278188,-0.20864018618583,-0.00804354066747814,,
4.71367475865985,-0.203793353591224,-0.00790168869451069,,
4.72907892453783,-0.199085127408982,-0.0077704254171187,,
4.7444830904158,-0.194081242681734,-0.00757651117315117,,
4.75988725629377,-0.189203608662157,-0.00741261481516542,,
4.77529142217175,-0.184156391131719,-0.00727655972155894,,
4.79069558804972,-0.179064903872617,-0.00710108178743418,,
4.80609975392769,-0.173980677785942,-0.00697560117638929,,
4.82150391980567,-0.168987567701649,-0.00677440986915334,,
4.83690808568364,-0.163853684564832,-0.00662157529707308,,
4.85231225156161,-0.158593082257606,-0.00644403444545949,,
4.86771641743959,-0.153382839694628,-0.00628905573866634,,
4.88312058331756,-0.14815081361437,-0.00610675555772744,,
4.89852474919553,-0.142846175809849,-0.00593088778092721,,
4.91392891507351,-0.137528421048687,-0.00575836615375502,,
4.92933308095148,-0.132050452031407,-0.00557952785698834,,
4.94473724682945,-0.12670968403828,-0.00537534572547926,,
4.96014141270743,-0.121301106063946,-0.00523125215712961,,
4.9755455785854,-0.115815231737976,-0.00502632485759058,,
4.99094974446337,-0.11031776295926,-0.00484079020070682,,
5.00635391034135,-0.104784808128203,-0.00466066664137044,,
5.02175807621932,-0.099286168192645,-0.00449587892435144,,
5.03716224209729,-0.0936863988636968,-0.00430712603496763,,
5.05256640797527,-0.0881117508490302,-0.00411379858544292,,
5.06797057385324,-0.0824879728048012,-0.00390526524115931,,
5.08337473973121,-0.0769173067234006,-0.00372666856563386,,
5.09877890560919,-0.0711540438991746,-0.00352984674504775,,
5.11418307148716,-0.0655455494517463,-0.0033575850129921,,
5.12958723736513,-0.0598802538974343,-0.00316094187029892,,
5.14499140324311,-0.0541891343347349,-0.00297586406029993,,
5.16039556912108,-0.0484464838709451,-0.00278479241917129,,
5.17579973499905,-0.0427216935490105,-0.00255338830461582,,
5.19120390087703,-0.0370363126548416,-0.00238150220222133,,
5.206608066755,-0.0312934865175253,-0.00221131557023879,,
5.22201223263297,-0.0254765847098916,-0.00200835575795022,,
5.23741639851095,-0.0197433035008455,-0.00180575127101701,,
5.25282056438892,-0.0140039908340581,-0.00162658607492361,,
5.26822473026689,-0.00823861992751476,-0.00140721835296143,,
5.28362889614487,-0.00243518642357511,-0.00121755786109956,,
5.29903306202284,0.00331091895290146,-0.000996096765189414,,
