Time domain (s),Current (AC) (A),Potential (AC) (V),Frequency (Hz),Column 5
0,0.275307437108467,0.00991019035443008,1,0.5
0.00244140625,0.269521713464557,0.00972465264522526,,
0.0048828125,0.26385402433137,0.00956785299776808,,
0.00732421875,0.258146467348338,0.00938921690703287,,
0.009765625,0.252219494551263,0.00923271083190036,,
0.01220703125,0.246164966030666,0.00909300776909783,,
0.0146484375,0.240249154805149,0.00890724053971192,,
0.01708984375,0.234244015347197,0.00870210287457462,,
0.01953125,0.228251677819561,0.00851329850604765,,
0.02197265625,0.221975558226567,0.00834294115486856,,
0.0244140625,0.215628368307327,0.0081716443722506,,
0.02685546875,0.209369900400982,0.00799311503508759,,
0.029296875,0.203266624697256,0.00780304563672507,,
0.03173828125,0.196921431736506,0.00759986689964576,,
0.0341796875,0.190399365309536,0.0074102565416454,,
0.03662109375,0.184005425165657,0.00721323214802716,,
0.0390625,0.17763024216759,0.00704434799614972,,
0.04150390625,0.171014283031637,0.00682394457012903,,
0.0439453125,0.164311099601657,0.0066120173777735,,
0.04638671875,0.157771060548281,0.00641947663420472,,
0.048828125,0.151179956413528,0.00622153415986215,,
0.05126953125,0.144496421628687,0.00601756544634524,,
0.0537109375,0.137765815679448,0.0058310509419508,,
0.05615234375,0.131046050362009,0.00563167796973474,,
0.05859375,0.124098631776759,0.00541629196162674,,
0.06103515625,0.11741712961038,0.00519386021772572,,
0.0634765625,0.11052929884006,0.00497734262174809,,
0.06591796875,0.103578742177183,0.00479096689699787,,
0.068359375,0.0968213199282265,0.00459353683980357,,
0.07080078125,0.0899931482927823,0.00433954873983788,,
0.0732421875,0.0829398909075841,0.00412685825943848,,
0.07568359375,0.0759531037121105,0.00393462176355186,,
0.078125,0.0689566170039732,0.00372137082689594,,
0.08056640625,0.0619258967217288,0.00349659050439755,,
0.0830078125,0.0549807960347251,0.00329560555323516,,
0.08544921875,0.0479058217259527,0.00303598086463541,,
0.087890625,0.040874780503951,0.00284139579015141,,
0.09033203125,0.0338789000153552,0.00262754703348911,,
0.0927734375,0.0267700130722329,0.00242587352178303,,
0.09521484375,0.0197081616335349,0.00218040435691202,,
0.09765625,0.0126506607115463,0.00195254419384394,,
0.10009765625,0.00558399517648941,0.00174672330584214,,
0.1025390625,-0.00154286439303909,0.00155300827297467,,
0.10498046875,-0.00856359988283559,0.00128393055551967,,
0.107421875,-0.015623418703071,0.00106905162688165,,
0.10986328125,-0.0227291675685668,0.000850356258022433,,
0.1123046875,-0.0297915539068603,0.000617521378470265,,
0.11474609375,-0.0368319737017684,0.000402332864471333,,
0.1171875,-0.0438129839816114,0.000141491185143838,,
0.11962890625,-0.0509701545282139,-7.69479751410174E-05,,
0.1220703125,-0.0579084441603692,-0.000262461664792379,,
0.12451171875,-0.0649311766086553,-0.000505499517046815,,
0.126953125,-0.0718940003022539,-0.000730279839545211,,
0.12939453125,-0.0788559681564999,-0.000948825753402716,,
0.1318359375,-0.0858665048940104,-0.00117326713330801,,
0.13427734375,-0.0927975912116139,-0.00138818075685743,,
0.13671875,-0.0997554938289347,-0.00159182120313872,,
0.13916015625,-0.106641719900469,-0.00181873926592857,,
0.1416015625,-0.113383665721131,-0.00201525391123747,,
0.14404296875,-0.120343280017157,-0.00228113169035327,,
0.146484375,-0.12705120622355,-0.00249525800630446,,
0.14892578125,-0.133905266999412,-0.00273227228822437,,
0.1513671875,-0.140655271973978,-0.00292797293754266,,
0.15380859375,-0.147361343861774,-0.00312858425120055,,
0.15625,-0.15400971791321,-0.00336675147170507,,
0.15869140625,-0.160701026572172,-0.00358288475482116,,
0.1611328125,-0.167340913550027,-0.00379397926931047,,
0.16357421875,-0.17395334234865,-0.00403048380292104,,
0.166015625,-0.180300033028267,-0.00422981140486867,,
0.16845703125,-0.186989843968362,-0.00446532846793257,,
0.1708984375,-0.193063165294744,-0.00465840564820352,,
0.17333984375,-0.199578955566461,-0.00485515248253332,,
0.17578125,-0.206041398518528,-0.00506041825195735,,
0.17822265625,-0.212160649890171,-0.00529627959529311,,
0.1806640625,-0.2185152570838,-0.00551593574630571,,
0.18310546875,-0.224787133140004,-0.0056914172689706,,
0.185546875,-0.23091572742458,-0.00591056100283449,,
0.18798828125,-0.23682344383622,-0.00611495139296325,,
0.1904296875,-0.24314060805817,-0.00631530649804724,,
0.19287109375,-0.248904400818667,-0.00650236010798366,,
0.1953125,-0.254776599897171,-0.00670359059236292,,
0.19775390625,-0.260610571484588,-0.00693511774065048,,
0.2001953125,-0.26644247479357,-0.00713914516863223,,
0.20263671875,-0.272201275157844,-0.00729118093791126,,
0.205078125,-0.277782417536491,-0.00750840577630774,,
0.20751953125,-0.28332625958335,-0.00769992168557909,,
0.2099609375,-0.288814186792502,-0.00785763941376061,,
0.21240234375,-0.294328145781964,-0.00805391653237075,,
0.21484375,-0.299740973087918,-0.00825119713456335,,
0.21728515625,-0.304879147281608,-0.00841367607208365,,
0.2197265625,-0.310283273554143,-0.00861512006360821,,
0.22216796875,-0.31555010893052,-0.008784900945495,,
0.224609375,-0.320408067056154,-0.00898049484124064,,
0.22705078125,-0.325300900635411,-0.00913029145433386,,
0.2294921875,-0.330522733125826,-0.00932028879403513,,
0.23193359375,-0.335348739915627,-0.00947028290123786,,
0.234375,-0.340063273629742,-0.00966824405745559,,
0.23681640625,-0.344908750764817,-0.00982813955851869,,
0.2392578125,-0.349458963323219,-0.0100016995168764,,
0.24169921875,-0.354039772138478,-0.0101647549236885,,
0.244140625,-0.358698319694939,-0.0103138896646318,,
0.24658203125,-0.36298322205401,-0.0104586902105268,,
0.2490234375,-0.36719851614573,-0.0106017613485454,,
0.25146484375,-0.371321379587361,-0.0107886868541942,,
0.25390625,-0.375836217452519,-0.0109321876753428,,
0.25634765625,-0.379649837608049,-0.0110833907667556,,
0.2587890625,-0.383650957901762,-0.0112127120446215,,
0.26123046875,-0.387726964138833,-0.0113583452683828,,
0.263671875,-0.391370272263181,-0.0115143122379733,,
0.26611328125,-0.395022424060839,-0.0116130619614818,,
0.2685546875,-0.398371537407704,-0.0117694532765236,,
0.27099609375,-0.401671939231412,-0.0118939919943362,,
0.2734375,-0.405328156265996,-0.0120388565923748,,
0.27587890625,-0.408412102053422,-0.0121562214701076,,
0.2783203125,-0.411710720878479,-0.0122815288136433,,
0.28076171875,-0.414449121527262,-0.012400922009256,,
0.283203125,-0.418126021346203,-0.0125272995573571,,
0.28564453125,-0.420667436303978,-0.0126294814082248,,
0.2880859375,-0.423645685931349,-0.0127506894145721,,
0.29052734375,-0.42637617006612,-0.0128280190337353,,
0.29296875,-0.428956169114712,-0.0129503639656305,,
0.29541015625,-0.431186201188005,-0.0130636481880502,,
0.2978515625,-0.434102331142361,-0.0131356427974221,,
0.30029296875,-0.435940103512343,-0.0132700882467733,,
0.302734375,-0.438276259665368,-0.013353804398418,,
0.30517578125,-0.440472700044069,-0.013419884859867,,
0.3076171875,-0.44228643759223,-0.0135019116362249,,
0.31005859375,-0.444248306668351,-0.0136173789692049,,
0.3125,-0.445762571763021,-0.0137223390818,,
0.31494140625,-0.447627730992289,-0.0137462518820657,,
0.3173828125,-0.449159112874013,-0.0138557169954252,,
0.31982421875,-0.450767520297478,-0.0139048449895425,,
0.322265625,-0.451856433233868,-0.0139864474204496,,
0.32470703125,-0.453549497433302,-0.0140117693678739,,
0.3271484375,-0.454560600308544,-0.0140889522008747,,
0.32958984375,-0.455443826520507,-0.0141252057141346,,
0.33203125,-0.456541797090046,-0.0142174194501594,,
0.33447265625,-0.457428731939204,-0.014241180126584,,
0.3369140625,-0.457880971717148,-0.0143109115602162,,
0.33935546875,-0.458866684691594,-0.0143640134560745,,
0.341796875,-0.459126004015456,-0.0143813956065353,,
0.34423828125,-0.459674597040522,-0.0144102617725705,,
0.3466796875,-0.459703980858297,-0.0144572306756818,,
0.34912109375,-0.46022604286343,-0.014499312934007,,
0.3515625,-0.459781006400038,-0.0145134684577357,,
0.35400390625,-0.46019095344997,-0.014565372044741,,
0.3564453125,-0.459919581055226,-0.0145625110489949,,
0.35888671875,-0.459567046561869,-0.0145769468008519,,
0.361328125,-0.459164516786326,-0.0145441948047735,,
0.36376953125,-0.458870393328789,-0.0145874913849866,,
0.3662109375,-0.458371082386448,-0.0146085858909357,,
0.36865234375,-0.45740854839447,-0.0146021379751495,,
0.37109375,-0.456521042985744,-0.0146316686821741,,
0.37353515625,-0.455774394470479,-0.0146150124560069,,
0.3759765625,-0.454881540065798,-0.0145935336371967,,
0.37841796875,-0.453565829700949,-0.0145870643706965,,
0.380859375,-0.452598945192262,-0.0145638347932953,,
0.38330078125,-0.451114705794881,-0.0145509416305627,,
0.3857421875,-0.450093118887569,-0.0145459215438106,,
0.38818359375,-0.448171759540808,-0.0145270475121722,,
0.390625,-0.446714336443145,-0.0144896410603277,,
0.39306640625,-0.444637143014251,-0.0144448259105441,,
0.3955078125,-0.443168879284786,-0.0144117109523187,,
0.39794921875,-0.441108802642946,-0.0143819053548446,,
0.400390625,-0.439230520543604,-0.0143282723599629,,
0.40283203125,-0.436690959904426,-0.0142715862129044,,
0.4052734375,-0.434620969790083,-0.0142516446455399,,
0.40771484375,-0.432114715565714,-0.0141925885691694,,
0.41015625,-0.429651110669086,-0.0141484352915358,,
0.41259765625,-0.427045650399752,-0.0140846820579701,,
0.4150390625,-0.424300688315931,-0.013995115810546,,
0.41748046875,-0.421775177706127,-0.0139764979874819,,
0.419921875,-0.418876949058231,-0.0138784128049632,,
0.42236328125,-0.415807053300177,-0.0138331279394599,,
0.4248046875,-0.41273487530385,-0.013747895887084,,
0.42724609375,-0.409199973497508,-0.0136765631498625,,
0.4296875,-0.406282131864447,-0.0135733324451439,,
0.43212890625,-0.402940079192242,-0.013487011506327,,
0.4345703125,-0.399407459624174,-0.0133940504952941,,
0.43701171875,-0.396016338829082,-0.0132921862363049,,
0.439453125,-0.392192163321535,-0.0132278565334469,,
0.44189453125,-0.388390239637158,-0.0131148925717448,,
0.4443359375,-0.384929011335093,-0.0130076025624275,,
0.44677734375,-0.380840595427407,-0.0128899147551373,,
0.44921875,-0.37663699780684,-0.0128174504300462,,
0.45166015625,-0.372762898337054,-0.0127132375924592,,
0.4541015625,-0.368483131014099,-0.0125703399289963,,
0.45654296875,-0.364382448075692,-0.0124385633189603,,
0.458984375,-0.359917320212936,-0.0123260904236924,,
0.46142578125,-0.355442992077139,-0.0122225794908455,,
0.4638671875,-0.350849702271319,-0.0120834128647451,,
0.46630859375,-0.34636745762151,-0.0119924187882874,,
0.46875,-0.341645720592843,-0.0118534683381717,,
0.47119140625,-0.336843035425402,-0.0117129806366103,,
0.4736328125,-0.332079148308615,-0.0115561596384386,,
0.47607421875,-0.326926353525983,-0.0114398596275924,,
0.478515625,-0.322251830301606,-0.0112748212731688,,
0.48095703125,-0.317117079465326,-0.0111537200203942,,
0.4833984375,-0.311985181426888,-0.0110037339197095,,
0.48583984375,-0.306667851528704,-0.0108503290358617,,
0.48828125,-0.301178212640847,-0.0106980957724732,,
0.49072265625,-0.295993252562544,-0.0105358089913836,,
0.4931640625,-0.290606670996738,-0.0103753583717432,,
0.49560546875,-0.285109543514546,-0.010235041475898,,
0.498046875,-0.279417070700104,-0.0100455538845066,,
0.50048828125,-0.273981920251035,-0.00987737430620861,,
0.5029296875,-0.268281459602635,-0.00970065444210189,,
0.50537109375,-0.262493703340263,-0.0095490857197027,,
0.5078125,-0.256454045028419,-0.00938453309403453,,
0.51025390625,-0.250715570848771,-0.0092412911502997,,
0.5126953125,-0.244755006357103,-0.00904042629690638,,
0.51513671875,-0.238731038433392,-0.00884560102688425,,
0.517578125,-0.2327492205978,-0.00867434427685554,,
0.52001953125,-0.226519922549391,-0.00850364798308334,,
0.5224609375,-0.220402668136238,-0.00836824175157869,,
0.52490234375,-0.214369499939485,-0.00814147581262947,,
0.52734375,-0.207996135600043,-0.00797577024837715,,
0.52978515625,-0.201565929263594,-0.00778150276577172,,
0.5322265625,-0.195347329207094,-0.00759165488107216,,
0.53466796875,-0.188912344434259,-0.007392514097877,,
0.537109375,-0.182457889316151,-0.00718712022416534,,
0.53955078125,-0.175952868356288,-0.00698629540336215,,
0.5419921875,-0.169476232734957,-0.00679830236198686,,
0.54443359375,-0.162711393211611,-0.00661274330206751,,
0.546875,-0.156042692975549,-0.00640895073194514,,
0.54931640625,-0.149466423389576,-0.00620212636036088,,
0.5517578125,-0.142908411709794,-0.0059967778569181,,
0.55419921875,-0.136120393203979,-0.00577765280492892,,
0.556640625,-0.129190162725729,-0.00557155435763823,,
0.55908203125,-0.122454207780535,-0.00534620023468735,,
0.5615234375,-0.11571069292106,-0.00517643803467527,,
0.56396484375,-0.108855704985899,-0.0049584899408246,,
0.56640625,-0.101838321533567,-0.00475288255996809,,
0.56884765625,-0.095011362337206,-0.0045055985843625,,
0.5712890625,-0.0881161499524688,-0.00429059688911559,,
0.57373046875,-0.0811022611774937,-0.00408409277824884,,
0.576171875,-0.0741793766536867,-0.00387579787620185,,
0.57861328125,-0.0671860280231758,-0.0036585943885199,,
0.5810546875,-0.060187544356549,-0.00343509510889284,,
0.58349609375,-0.0531742261411423,-0.00323273570548333,,
0.5859375,-0.0461009991710483,-0.00299774707260347,,
0.58837890625,-0.0390562288594307,-0.00277595585013879,,
0.5908203125,-0.0319924874421622,-0.00256697772522685,,
0.59326171875,-0.0249751753097764,-0.00234146880959552,,
0.595703125,-0.0178905371483133,-0.00214226664309569,,
0.59814453125,-0.0108478351151314,-0.00187491299583842,,
0.6005859375,-0.00368588613214317,-0.00168008772581585,,
0.60302734375,0.00334255191182743,-0.00146412524841555,,
0.60546875,0.0104089321671001,-0.00122570181933712,,
0.60791015625,0.0175489146067029,-0.00100800993406036,,
0.6103515625,0.0245528185892301,-0.00078021916081461,,
0.61279296875,0.0316168809462559,-0.000542863267462224,,
0.615234375,0.0386807293434436,-0.000329631012681464,,
0.61767578125,0.0456971856364767,-9.7466011797831E-05,,
0.6201171875,0.0527415993483639,0.000117557034163607,,
0.62255859375,0.0597589114807497,0.000330978776535762,,
0.625,0.0667488367538498,0.000591243986570955,,
0.62744140625,0.0737276361153651,0.000791519026475562,,
0.6298828125,0.0807363898542242,0.00102319029208608,,
0.63232421875,0.0876567068599732,0.00124679632528579,,
0.634765625,0.0946991236133709,0.00145938538979129,,
0.63720703125,0.101502796847345,0.00168002367367226,,
0.6396484375,0.108394550214698,0.00190778775852518,,
0.64208984375,0.11528805092073,0.00214220259095166,,
0.64453125,0.122105952483942,0.00235069231826879,,
0.64697265625,0.128849396023471,0.002558925837012,,
0.6494140625,0.135742896729503,0.00278793360098595,,
0.65185546875,0.142400756333764,0.00302029342713972,,
0.654296875,0.149057760098673,0.00323866319760224,,
0.65673828125,0.155721040018834,0.00346981137070701,,
0.6591796875,0.162347518846831,0.00367480491852135,,
0.66162109375,0.168804826762781,0.0038992649803018,,
0.6640625,0.175555723236673,0.0040944265240781,,
0.66650390625,0.181956510095374,0.00433114189599459,,
0.6689453125,0.188517659852783,0.00454377366192915,,
0.67138671875,0.194790677028124,0.00474303988057256,,
0.673828125,0.201283930196887,0.00496957629934025,,
0.67626953125,0.207448255774437,0.00515874363001423,,
0.6787109375,0.21380172184893,0.00539037219419569,,
0.68115234375,0.220149197047953,0.0055898519199844,,
0.68359375,0.22614378115389,0.00578245137801758,,
0.68603515625,0.232197132895377,0.00598644144224902,,
0.6884765625,0.23838057221847,0.00618950808807739,,
0.69091796875,0.244162908164943,0.00637818435231763,,
0.693359375,0.250253916837947,0.00660734690897158,,
0.69580078125,0.256212555691071,0.00680041608272441,,
0.6982421875,0.262184887973838,0.00700734720788132,,
0.70068359375,0.267865414697315,0.00718957555633537,,
0.703125,0.273586629450017,0.00741166035112517,,
0.70556640625,0.279143059467356,0.00757188145058452,,
0.7080078125,0.284875150511831,0.00777412075622497,,
0.71044921875,0.290168837847898,0.00796136118491342,,
0.712890625,0.295609123333083,0.00811506497876424,,
0.71533203125,0.301090489107198,0.00835049930780984,,
0.7177734375,0.306284578138596,0.00852147582970986,,
0.72021484375,0.311435019363009,0.00870062967527252,,
0.72265625,0.316691014107585,0.00890631712130885,,
0.72509765625,0.321776696820978,0.00904336735783184,,
0.7275390625,0.326717742683768,0.00922715964612442,,
0.72998046875,0.331770903501759,0.00940533135881916,,
0.732421875,0.336397285762549,0.0095762224778615,,
0.73486328125,0.341209099883085,0.0097420321268471,,
0.7373046875,0.345892252820936,0.00989471108640094,,
0.73974609375,0.350271297508801,0.010076576472708,,
0.7421875,0.354785279534606,0.0102397332954145,,
0.74462890625,0.359361737833156,0.0103816354818127,,
0.7470703125,0.363926784940337,0.0105511654928043,,
0.74951171875,0.36793838926612,0.0107115734110157,,
0.751953125,0.372069525821493,0.0108353008016766,,
0.75439453125,0.376153305932685,0.010986138262103,,
0.7568359375,0.380303556233602,0.0111368316052065,,
0.75927734375,0.384051847318545,0.0112931828876586,,
0.76171875,0.387835798376515,0.0113962000852319,,
0.76416015625,0.391814880806897,0.011574606655786,,
0.7666015625,0.395267336755597,0.0117089667022796,,
0.76904296875,0.398658172270905,0.0118462944980915,,
0.771484375,0.402301480395252,0.0119752314630959,,
0.77392578125,0.405818124295403,0.0120791026892504,,
0.7763671875,0.408665787101545,0.0122293903687778,,
0.77880859375,0.411998425540871,0.0123314467841982,,
0.78125,0.415268302427667,0.0124562630612997,,
0.78369140625,0.418127376425178,0.0125779621340807,,
0.7861328125,0.421062049565508,0.012647778970571,,
0.78857421875,0.423672359591174,0.0127931559857579,,
0.791015625,0.426332308299295,0.0129012760041025,,
0.79345703125,0.42913289994104,0.0129999963703784,,
0.7958984375,0.43138974831405,0.0130824101284373,,
0.79833984375,0.433883093628183,0.0131917684882241,,
0.80078125,0.43606006366161,0.0132902806850335,,
0.80322265625,0.438132906573795,0.0133708476062857,,
0.8056640625,0.440189773818063,0.0134509074480684,,
0.80810546875,0.442223248120024,0.0135493128913051,,
0.810546875,0.443919521717031,0.0136089080732176,,
0.81298828125,0.446076522165562,0.0137348986396177,,
0.8154296875,0.447421045788618,0.0137486484997704,,
0.81787109375,0.4488645614968,0.013869893869868,,
0.8203125,0.450483524272282,0.0139285869840919,,
0.82275390625,0.451645754113217,0.0139875363068898,,
0.8251953125,0.452997980290448,0.0140563496597976,,
0.82763671875,0.454313690655297,0.0141011861602958,,
0.830078125,0.455127308599909,0.0141621638009735,,
0.83251953125,0.455895567058829,0.0142456023933297,,
0.8349609375,0.456640717855227,0.014247203696919,,
0.83740234375,0.457813503048179,0.0143263934970848,,
0.83984375,0.458252548636102,0.0143649101860843,,
0.84228515625,0.458488475017657,0.0143981959500255,,
0.8447265625,0.459069019378556,0.0144379669935031,,
0.84716796875,0.459228205498154,0.0144862889981474,,
0.849609375,0.459269285787083,0.0144922832112497,,
0.85205078125,0.459181704893326,0.0145137673677387,,
0.8544921875,0.459397946969769,0.0145428683916333,,
0.85693359375,0.459197965841027,0.0145290544793371,,
0.859375,0.458809414774911,0.0145530473447821,,
0.86181640625,0.458618562599264,0.0145637013513293,,
0.8642578125,0.4582996198005,0.0145792927106099,,
0.86669921875,0.457545340051007,0.0145964319966931,,
0.869140625,0.456853251294475,0.0145756630891407,,
0.87158203125,0.456026225200004,0.0145843314792371,,
0.8740234375,0.455096783662997,0.0145826180843969,,
0.87646484375,0.453709182792522,0.0145703681119391,,
0.87890625,0.452938927375113,0.0145411389837573,,
0.88134765625,0.451684552163872,0.014549294956705,,
0.8837890625,0.450309503603904,0.0145102231491276,,
0.88623046875,0.448979529249843,0.0144948452969924,,
0.888671875,0.447312068911044,0.0144794354187856,,
0.89111328125,0.445522508824595,0.014421980646004,,
0.8935546875,0.443996547258771,0.0144159330561155,,
0.89599609375,0.442088881341654,0.0143718865320546,,
0.8984375,0.440073664945883,0.0143187926427144,,
0.90087890625,0.43798541692535,0.0142919974959881,,
0.9033203125,0.435798462099475,0.0142144089994116,,
