Time domain (s),Current (AC) (A),Potential (AC) (V),Frequency (Hz),Column 5
0,0.200801604156951,0.00268801109739503,7943.3,0.4
3.93413316883411E-06,0.186762712848973,0.00232257056210949,,
7.86826633766822E-06,0.165219253443728,0.00184245978513609,,
1.18023995065023E-05,0.137469336185959,0.0012851816501227,,
1.57365326753364E-05,0.104461510281703,0.000688901833111544,,
1.96706658441706E-05,0.0674549742895938,7.80219737182009E-05,,
2.36047990130047E-05,0.028293187638299,-0.000501257146820144,,
2.75389321818388E-05,-0.0109631406491441,-0.00107527544220343,,
3.14730653506729E-05,-0.0506186870254326,-0.00166380073136096,,
3.5407198519507E-05,-0.0891352833719386,-0.00217069805535397,,
3.93413316883411E-05,-0.124292884777139,-0.00259291541983409,,
4.32754648571752E-05,-0.154713566657446,-0.00291606035239234,,
4.72095980260093E-05,-0.179113331208074,-0.00312914309664292,,
5.11437311948435E-05,-0.196302692981468,-0.0032006402156517,,
5.50778643636776E-05,-0.20602060111733,-0.00314987718957971,,
5.90119975325117E-05,-0.207553294077718,-0.00298613740648879,,
6.29461307013458E-05,-0.201286433811017,-0.00271316428346147,,
6.68802638701799E-05,-0.186888992835565,-0.00231644510065676,,
7.0814397039014E-05,-0.165337774516236,-0.00184428067482223,,
7.47485302078481E-05,-0.137503651081458,-0.00130809021745648,,
7.86826633766822E-05,-0.104297372650162,-0.000697672738069866,,
8.26167965455164E-05,-0.0671694169723581,-7.63542563557706E-05,,
8.65509297143505E-05,-0.0277310616325973,0.000533519246552316,,
9.04850628831846E-05,0.0117066202919788,0.00108189764007216,,
9.44191960520187E-05,0.0510927713154644,0.00165169582319535,,
9.83533292208528E-05,0.0893352876817957,0.00217386457106628,,
0.000102287462389687,0.124337125226882,0.00259025852419192,,
0.000106221595558521,0.154522550976358,0.00291780107712381,,
0.000110155728727355,0.178680735149204,0.00311765517232532,,
0.000114089861896189,0.195937350604305,0.00318188161624278,,
0.000118023995065023,0.205493521980155,0.00314259792538607,,
0.000121958128233857,0.207228093101347,0.00296470902778356,,
0.000125892261402692,0.200848538267433,0.0026979315105442,,
0.000129826394571526,0.186547073595262,0.00231779215820005,,
0.00013376052774036,0.165236645122846,0.00183186942200786,,
0.000137694660909194,0.137457009760187,0.0013100070187857,,
0.000141628794078028,0.104477965035347,0.000717877169698955,,
0.000145562927246862,0.0674774897798998,6.24413421577152E-05,,
0.000149497060415696,0.0282878881535846,-0.000505346991028777,,
0.00015343119358453,-0.0109959915985893,-0.00109510052181427,,
0.000157365326753364,-0.0506708620627867,-0.00166296329388693,,
0.000161299459922199,-0.0891500985060021,-0.00215183066064872,,
0.000165233593091033,-0.124436527163929,-0.00258870819122725,,
0.000169167726259867,-0.154740620380518,-0.00290609413069731,,
0.000173101859428701,-0.178979877885818,-0.00310210603413985,,
0.000177035992597535,-0.196429880614614,-0.00319660906364216,,
0.000180970125766369,-0.20591373305541,-0.00315179255939091,,
0.000184904258935203,-0.207607694313073,-0.00298527563322493,,
0.000188838392104037,-0.201115210680576,-0.00269394187252869,,
0.000192772525272871,-0.186818606309303,-0.00230221152663912,,
0.000196706658441706,-0.165406404307234,-0.00183708157558282,,
0.00020064079161054,-0.137477592841702,-0.00129339569494924,,
0.000204574924779374,-0.104251638975444,-0.000718442618933057,,
0.000208509057948208,-0.0671143140428967,-6.19675100139716E-05,,
0.000212443191117042,-0.0277109762927405,0.000524440565427664,,
0.000216377324285876,0.0117165165673018,0.0010827021526536,,
0.00022031145745471,0.0510889064978827,0.00166768014256347,,
0.000224245590623544,0.0893524744084662,0.00216053428430651,,
0.000228179723792378,0.124285623604713,0.00257738632288751,,
0.000232113856961213,0.154524014922412,0.00290695876699543,,
0.000236047990130047,0.178753288315626,0.00312143724036895,,
0.000239982123298881,0.195989320689212,0.00318463585504514,,
0.000243916256467715,0.20548795898515,0.00314093163954121,,
0.000247850389636549,0.207113963867001,0.00299194507115619,,
0.000251784522805383,0.200707560262461,0.00269205656457538,,
0.000255718655974217,0.186523357669192,0.00229850103444873,,
0.000259652789143051,0.165225548411759,0.00182237560093945,,
0.000263586922311885,0.137441989673676,0.00129208728836705,,
0.00026752105548072,0.104527768480094,0.000717108445043912,,
0.000271455188649554,0.067482291522956,8.66282542162367E-05,,
0.000275389321818388,0.0282914894608767,-0.000534403924087989,,
0.000279323454987222,-0.0109462174327633,-0.00109349292816807,,
0.000283257588156056,-0.0506754881323164,-0.00166194548526555,,
0.00028719172132489,-0.0890891983501679,-0.00214899339385788,,
0.000291125854493724,-0.12437603691299,-0.00258540854442968,,
0.000295059987662558,-0.154608396772948,-0.00290129568554942,,
0.000298994120831392,-0.178941463941369,-0.00311171867112314,,
0.000302928254000227,-0.196160748772101,-0.00320602987734109,,
0.000306862387169061,-0.205996650959892,-0.00315310526052492,,
0.000310796520337895,-0.207636270540042,-0.00299481383132205,,
0.000314730653506729,-0.201139160838014,-0.00269749060329305,,
0.000318664786675563,-0.186910190774423,-0.0022994801921099,,
0.000322598919844397,-0.165333675467286,-0.00184624471621309,,
0.000326533053013231,-0.137494223268872,-0.00128950626312729,,
0.000330467186182065,-0.104301003236375,-0.000686902003793843,,
0.000334401319350899,-0.0671123816341058,-0.000113771248980932,,
0.000338335452519734,-0.0277027781948397,0.000538520967121148,,
0.000342269585688568,0.0116635802779998,0.0010955170932756,,
0.000346203718857402,0.0511142913224539,0.00167303401632646,,
0.000350137852026236,0.08938992214852,0.00218567458672014,,
0.00035407198519507,0.124414245904992,0.00259832369124524,,
0.000358006118363904,0.154574784571555,0.00290562173007158,,
0.000361940251532738,0.178763184590949,0.00312532524067377,,
0.000365874384701572,0.195905670811703,0.00320996798074313,,
0.000369808517870407,0.205616815516798,0.00314548100072276,,
0.000373742651039241,0.207261471071372,0.00301114171478245,,
0.000377676784208075,0.200746032764752,0.00269155839664226,,
0.000381610917376909,0.186617167332313,0.00232303151059909,,
0.000385545050545743,0.165211523808565,0.00184656537603223,,
0.000389479183714577,0.137471737057487,0.00126928322177733,,
0.000393413316883411,0.104522176206169,0.000717746901647498,,
0.000397347450052245,0.0675202662835891,9.65944759108162E-05,,
0.000401281583221079,0.0282733950876529,-0.000522535216235465,,
0.000405215716389913,-0.0109648388265664,-0.00110973635212241,,
0.000409149849558748,-0.0506406462162382,-0.00166753699085831,,
0.000413083982727582,-0.0892158589627345,-0.00219337042237466,,
0.000417018115896416,-0.124330888816694,-0.00261502233762112,,
0.00042095224906525,-0.154799880916772,-0.00291272491766836,,
0.000424886382234084,-0.179065957913776,-0.00313143495543811,,
0.000428820515402918,-0.196293557958093,-0.00320404436319421,,
0.000432754648571752,-0.206033893747498,-0.0031714644666776,,
0.000436688781740586,-0.207623856277506,-0.00298490916486038,,
0.000440622914909421,-0.201165511866981,-0.00270258394095313,,
0.000444557048078255,-0.186666765824613,-0.00231086504720013,,
0.000448491181247089,-0.165464962149382,-0.00185897519732947,,
0.000452425314415923,-0.137391220024533,-0.0013218614114674,,
0.000456359447584757,-0.104282908863151,-0.000704575513279959,,
0.000460293580753591,-0.0671462280668674,-7.65790045327286E-05,,
0.000464227713922425,-0.027708809652581,0.000533602274540801,,
0.000468161847091259,0.0117278767886786,0.00107525540096498,,
0.000472095980260093,0.0511515341100602,0.00163942485905189,,
0.000476030113428928,0.0893435150586176,0.00215715017800289,,
0.000479964246597762,0.124327199672638,0.00257245617817103,,
0.000483898379766596,0.154450993293253,0.00291360100610216,,
0.00048783251293543,0.178651485507051,0.00311913249792006,,
0.000491766646104264,0.195985221640261,0.00320014491075327,,
0.000495700779273098,0.205369232960195,0.00314979845614216,,
0.000499634912441932,0.206918585626673,0.00299799752523944,,
0.000503569045610766,0.200726415887633,0.00270741101644223,,
0.0005075031787796,0.186587683458792,0.00233454663374078,,
0.000511437311948435,0.165293241277282,0.00183968264206102,,
0.000515371445117269,0.137453876915632,0.00129040668735136,,
0.000519305578286103,0.104414605450142,0.000724852952278532,,
0.000523239711454937,0.0675596757113548,7.96181152278308E-05,,
0.000527173844623771,0.0283253651725594,-0.000527665773338626,,
0.000531107977792605,-0.0109653072893036,-0.00107600981044964,,
0.000535042110961439,-0.0506837447880593,-0.00167092968626426,,
0.000538976244130273,-0.08918248099271,-0.00216315682353985,,
0.000542910377299107,-0.124342483269439,-0.00258323407003225,,
0.000546844510467942,-0.154770426322172,-0.00292225452666273,,
0.000550778643636776,-0.178920383118196,-0.0031110315429399,,
0.00055471277680561,-0.19633437277407,-0.00319257791163219,,
0.000558646909974444,-0.206036294619026,-0.00317225609560579,,
0.000562581043143278,-0.207693540109662,-0.0030027587509438,,
0.000566515176312112,-0.201181732389256,-0.00271302256327388,,
0.000570449309480946,-0.186823935072938,-0.00230729627519688,,
0.00057438344264978,-0.165232077611159,-0.00183833415300061,,
0.000578317575818614,-0.137502948387352,-0.00129588939764869,,
0.000582251708987449,-0.104316696738071,-0.000694290063283365,,
0.000586185842156283,-0.0671779078594696,-7.25607361760083E-05,,
0.000590119975325117,-0.0277037151203141,0.000541522858372723,,
0.000594054108493951,0.0116611501275507,0.00110298674923692,,
0.000597988241662785,0.0511795833164492,0.00165619078672874,,
0.000601922374831619,0.0894015166012654,0.00216793236441548,,
0.000605856508000453,0.124324066828083,0.00257595480583861,,
0.000609790641169287,0.154515084851484,0.00290393253995402,,
0.000613724774338121,0.178792697743392,0.00312031493100218,,
0.000617658907506956,0.195910531112601,0.00322260827628496,,
0.00062159304067579,0.205579104266454,0.00315441939317607,,
0.000625527173844624,0.207277398804436,0.00295003884106571,,
0.000629461307013458,0.200860601182915,0.00272401088814167,,
0.000633395440182292,0.186589118125924,0.002305876210285,,
0.000637329573351126,0.165040564188413,0.00185109183294108,,
0.00064126370651996,0.137457243991555,0.00130492227022749,,
0.000645197839688794,0.104519775334641,0.000722983391012733,,
0.000649131972857628,0.0675802295139488,0.000105731849234125,,
0.000653066106026463,0.0282808904914479,-0.000538518104086894,,
0.000657000239195297,-0.0109797710763142,-0.00110736003382117,,
0.000660934372364131,-0.0506539388464058,-0.00166532672853492,,
0.000664868505532965,-0.0892707276608274,-0.00216302512397171,,
0.000668802638701799,-0.124361338894611,-0.00260383932643471,,
0.000672736771870633,-0.154753034643054,-0.00290611846648714,,
0.000676670905039467,-0.17892541909262,-0.00312902571224472,,
0.000680605038208301,-0.196390236955479,-0.0032037609228186,,
0.000684539171377135,-0.206080095884953,-0.00319028462131987,,
0.000688473304545969,-0.207542168087709,-0.00297934056354032,,
0.000692407437714804,-0.201061805928536,-0.00271292808314882,,
0.000696341570883638,-0.186993167236747,-0.00228732947539845,,
0.000700275704052472,-0.165417998759979,-0.00182901927156331,,
0.000704209837221306,-0.137407440546808,-0.00128094722269179,,
0.00070814397039014,-0.104257201970448,-0.000702637239195614,,
0.000712078103558974,-0.067066238054493,-6.54446649259732E-05,,
0.000716012236727808,-0.0277112105241091,0.000534253614798086,,
0.000719946369896642,0.0116942938662066,0.00108878896314568,,
0.000723880503065477,0.0511075278916858,0.00167943003450111,,
0.000727814636234311,0.0893614044793938,0.00217000233806841,,
0.000731748769403145,0.124344854862046,0.00258348744855041,,
0.000735682902571979,0.154595836115807,0.00291173717090487,,
0.000739617035740813,0.178780869059278,0.00311414509252161,,
0.000743551168909647,0.195979922155547,0.00319155008239136,,
0.000747485302078481,0.205437657798745,0.0031367916922358,,
0.000751419435247315,0.207197145281772,0.0029822737419738,,
0.000755353568416149,0.200805995995112,0.00272162025467004,,
0.000759287701584984,0.186613770977469,0.00231716801676685,,
0.000763221834753818,0.165259629075889,0.00184165813558845,,
0.000767155967922652,0.1373963145568,0.00129854056722367,,
0.000771090101091486,0.104422100853937,0.000709862105741976,,
0.00077502423426032,0.0676041503924664,8.48803718995761E-05,,
0.000778958367429154,0.028316903564369,-0.000499944445686129,,
0.000782892500597988,-0.0109599785256681,-0.00108253466515862,,
0.000786826633766822,-0.0506363129359192,-0.00167454712984716,,
0.000790760766935656,-0.089207368075623,-0.00217905525188566,,
0.000794694900104491,-0.124400748322376,-0.00260321232196725,,
0.000798629033273325,-0.154606932826894,-0.00292485559314093,,
0.000802563166442159,-0.179027251180116,-0.00310601980175163,,
0.000806497299610993,-0.196214680544719,-0.00320506217181604,,
0.000810431432779827,-0.206059483524517,-0.00314642723349179,,
0.000814365565948661,-0.207552064363032,-0.00300858645685009,,
0.000818299699117495,-0.201098346022037,-0.0027033540971253,,
0.000822233832286329,-0.186961018981407,-0.00232694241517661,,
0.000826167965455163,-0.1654033007416,-0.00186154047588083,,
0.000830102098623998,-0.137490124219922,-0.00128194069552379,,
0.000834036231792832,-0.104230616710113,-0.000703145427748186,,
0.000837970364961666,-0.0671718764017284,-8.87211321414227E-05,,
0.0008419044981305,-0.0277105078300033,0.000529310586428355,,
0.000845838631299334,0.01161860785523,0.00109324670723598,,
0.000849772764468168,0.0511258857751993,0.00168753814706646,,
0.000853706897637002,0.0894573807826747,0.00217613495710589,,
0.000857641030805836,0.124253475349374,0.00257355558326466,,
0.00086157516397467,0.154525713099834,0.00288966317800998,,
0.000865509297143505,0.178778438908829,0.00310854213479184,,
0.000869443430312339,0.196046883048043,0.00318455282705621,,
0.000873377563481173,0.205508249277455,0.00313055027790243,,
0.000877311696650007,0.207331096345686,0.00298313837827147,,
0.000881245829818841,0.200813725630276,0.0026935195749993,,
0.000885179962987675,0.186584287103947,0.00233254537290639,,
0.000889114096156509,0.165345709103847,0.00185343093179924,,
0.000893048229325343,0.137489421525816,0.00130775953701878,,
0.000896982362494177,0.104519775334641,0.000709482753724178,,
0.000900916495663012,0.0675282594290423,7.24419202615678E-05,,
0.000904850628831846,0.0283123067737604,-0.000533069750198401,,
0.00090878476200068,-0.0109780728988919,-0.00106395071082943,,
0.000912718895169514,-0.0506174573107475,-0.00166760856671111,,
0.000916653028338348,-0.0891369815493609,-0.00218431607704028,,
0.000920587161507182,-0.124264659897224,-0.00260451213944757,,
0.000924521294676016,-0.154701035279226,-0.00292257375496474,,
0.00092845542784485,-0.179082178436051,-0.00312913164450634,,
0.000932389561013684,-0.196266445677178,-0.00317175935918979,,
0.000936323694182519,-0.205937156192269,-0.00316052910794085,,
0.000940257827351353,-0.207619522997187,-0.00296990543467057,,
0.000944191960520187,-0.201213880644595,-0.00269420240863161,,
0.000948126093689021,-0.186961487444145,-0.00229477622708707,,
0.000952060226857855,-0.16533871144171,-0.00185521603355898,,
0.000955994360026689,-0.137421260197555,-0.00130405906544695,,
0.000959928493195523,-0.104265400068349,-0.000705355690071574,,
0.000963862626364357,-0.0671242688760619,-7.46765183743392E-05,,
0.000967796759533191,-0.027716305056376,0.000537266958186233,,
0.000971730892702026,0.0116548844384408,0.00108896647125967,,
0.00097566502587086,0.0511089918377395,0.00164495910396312,,
0.000979599159039694,0.0893425488542221,0.00213917032386846,,
0.000983533292208528,0.124432164604689,0.00258102810226024,,
0.000987467425377362,0.15445172526628,0.00291150812817698,,
0.000991401558546196,0.178704919538011,0.00311278228829082,,
0.00099533569171503,0.195808494072658,0.00319046499246811,,
0.000999269824883864,0.205706760362337,0.00315644069524934,,
0.0010032039580527,0.207157940806454,0.00296108728964972,,
0.00100713809122153,0.200636734552383,0.00270573041542699,,
0.00101107222439037,0.186614502950495,0.00230626558292224,,
0.0010150063575592,0.165217321034937,0.00185714428702388,,
0.00101894049072803,0.137427760118034,0.00129392821929208,,
0.00102287462389687,0.104437823634554,0.000691219459213688,,
0.0010268087570657,0.0674946472276492,7.67923005731141E-05,,
0.00103074289023454,0.0282997461166196,-0.000530858056357886,,
0.00103467702340337,-0.0109817034851051,-0.00107840903302359,,
0.00103861115657221,-0.0506254797351218,-0.00167351930060589,,
0.00104254528974104,-0.089199872671828,-0.00217647852119729,,
0.00104647942290987,-0.124288083034083,-0.00260900423994714,,
0.00105041355607871,-0.154648098989924,-0.00292084734540365,,
0.00105434768924754,-0.1789837427034,-0.00311608050357126,,
0.00105828182241638,-0.196470753988433,-0.00319684526395525,,
0.00106221595558521,-0.206170977655967,-0.00318220943364667,,
0.00106615008875404,-0.20746721404976,-0.00297610247197566,,
0.00107008422192288,-0.201295334603024,-0.00270214732825291,,
0.00107401835509171,-0.18688776312088,-0.00228930210589207,,
0.00107795248826055,-0.165317220713642,-0.00184918791526556,,
0.00108188662142938,-0.137509214076462,-0.00129992054965822,,
0.00108582075459821,-0.104289174552261,-0.000690473638830902,,
0.00108975488776705,-0.0671479262442897,-8.82472999985673E-05,,
0.00109368902093588,-0.0277216338200115,0.000537563282215547,,
0.00109762315410472,0.0116976609421301,0.00110616758011961,,
0.00110155728727355,0.0511457368836875,0.00167769217280389,,
0.00110549142044239,0.0893995841924745,0.00216203165113971,,
0.00110942555361122,0.124310774197916,0.00256608592730334,,
0.00111335968678005,0.154406050149404,0.00289440436247634,,
0.00111729381994889,0.178574599060311,0.00309879922975709,,
0.00112122795311772,0.195867725329991,0.00318753324555221,,
0.00112516208628656,0.205667116703203,0.00314850722776416,,
0.00112909621945539,0.207287090127312,0.00296210652978823,,
0.00113303035262422,0.200768021234479,0.00270016467714074,,
0.00113696448579306,0.186624896967477,0.00231592832300231,,
0.00114089861896189,0.165079241643152,0.00179521113341918,,
0.00114483275213073,0.137511907737201,0.00131711020638248,,
0.00114876688529956,0.104407607788006,0.000688040059848127,,
0.00115270101846839,0.0675616081201457,8.88857566025969E-05,,
0.00115663515163723,0.0283089104189158,-0.000516909354232986,,
0.00116056928480606,-0.0109643118059871,-0.00109063275710453,,
0.0011645034179749,-0.0506373084192357,-0.00165170870684861,,
0.00116843755114373,-0.089091599221696,-0.00214782241291189,,
0.00117237168431257,-0.12437849634236,-0.0025962737588312,,
0.0011763058174814,-0.154715030603499,-0.00293173403256075,,
0.00118023995065023,-0.179026314254642,-0.0031089272128777,,
0.00118417408381907,-0.196334841236807,-0.0031873414222674,,
0.0011881082169879,-0.205940786778482,-0.00314133103279746,,
0.00119204235015674,-0.207644468637942,-0.00298315841950991,,
0.00119597648332557,-0.201095886592667,-0.00270554002365886,,
0.0011999106164944,-0.1869580910893,-0.00232826656844676,,
0.00120384474966324,-0.165396976494648,-0.00186198854071717,,
0.00120777888283207,-0.13734261701555,-0.00129549859349432,,
0.00121171301600091,-0.104334146975031,-0.000701549286238556,,
0.00121564714916974,-0.0671658449439871,-9.18647435810271E-05,,
0.00121958128233857,-0.0277075799378959,0.000552033056545831,,
0.00122351541550741,0.0116331009211617,0.00109441482514816,,
0.00122744954867624,0.0511614303853832,0.00167603447606135,,
0.00123138368184508,0.0893287584823962,0.00219412912641115,,
0.00123531781501391,0.124354048443263,0.00258060151017947,,
0.00123925194818275,0.154502758425712,0.00291172285573404,,
0.00124318608135158,0.178768249844295,0.00310974460911329,,
0.00124712021452041,0.195917294543369,0.00321357254067234,,
0.00125105434768925,0.205504618691242,0.0031917533578123,,
0.00125498848085808,0.207061730271804,0.00298718957151989,,
0.00125892261402692,0.200809128839667,0.00268476155369424,,
