Time domain (s),Current (AC) (A),Potential (AC) (V),Frequency (Hz),Column 5
0,-0.274330265795965,-0.00591122570360314,15.849,0.3
0.000231062488169601,-0.275966709054293,-0.00596977070150695,,
0.000462124976339201,-0.277515433682788,-0.00604692440639543,,
0.000693187464508802,-0.27881494237778,-0.00610579254951027,,
0.000924249952678403,-0.280088812311267,-0.00614317710755508,,
0.001155312440848,-0.281127451090252,-0.00621913712517719,,
0.0013863749290176,-0.282314185093032,-0.00625123018038964,,
0.0016174374171872,-0.282861877447616,-0.00629663904688815,,
0.00184849990535681,-0.283624092726256,-0.00632175522984912,,
0.00207956239352641,-0.284380346544617,-0.00638117912701208,,
0.00231062488169601,-0.284466048139016,-0.00640371014828389,,
0.00254168736986561,-0.284492179953626,-0.00643128892061196,,
0.00277274985803521,-0.284842920003926,-0.0064792481271172,,
0.00300381234620481,-0.284492000661588,-0.0065011105720898,,
0.00323487483437441,-0.284497244953713,-0.00652617104035924,,
0.00346593732254401,-0.28388532122634,-0.00652188100910811,,
0.00369699981071361,-0.28323718050719,-0.00652825476982377,,
0.00392806229888321,-0.282909793244904,-0.00655241266008932,,
0.00415912478705281,-0.281750311631974,-0.0065615707625164,,
0.00439018727522241,-0.280823909669085,-0.00656561704199188,,
0.00462124976339201,-0.27973417265913,-0.00655917642364612,,
0.00485231225156161,-0.278325475112696,-0.00654837891641957,,
0.00508337473973121,-0.276791631723395,-0.00657075254368777,,
0.00531443722790081,-0.275207765855355,-0.00654842348817297,,
0.00554549971607042,-0.273455858524238,-0.00654842348817297,,
0.00577656220424002,-0.271827573053662,-0.00653841712956638,,
0.00600762469240962,-0.269739896557458,-0.00648315929846532,,
0.00623868718057922,-0.267419140411215,-0.00644838218798638,,
0.00646974966874882,-0.265082785857623,-0.00646027170316765,,
0.00670081215691842,-0.2625171167868,-0.00642631917012393,,
0.00693187464508802,-0.260178252144669,-0.00638223770615198,,
0.00716293713325762,-0.257319261298872,-0.00631672976466913,,
0.00739399962142722,-0.254586716163222,-0.00629619193648834,,
0.00762506210959682,-0.251405985754351,-0.00625685875710591,,
0.00785612459776642,-0.248375995126842,-0.00619018916430347,,
0.00808718708593602,-0.245111983566092,-0.0061493377595756,,
0.00831824957410562,-0.241764780499481,-0.00609368017556289,,
0.00854931206227522,-0.238185932119138,-0.00605329816711153,,
0.00878037455044482,-0.234290812582895,-0.00598402251961083,,
0.00901143703861442,-0.230798024381028,-0.00591636259816575,,
0.00924249952678403,-0.226879596879781,-0.00585317099498495,,
0.00947356201495363,-0.222675198577138,-0.00577219526225425,,
0.00970462450312323,-0.218732252889627,-0.00570989370127117,,
0.00993568699129283,-0.214460575249541,-0.00565442554720974,,
0.0101667494794624,-0.210079574288984,-0.00554452274661488,,
0.010397811967632,-0.205567510848289,-0.00547509109797772,,
0.0106288744558016,-0.201047155150814,-0.00535745509819296,,
0.0108599369439712,-0.196276776705661,-0.00527642365077075,,
0.0110909994321408,-0.191538984588505,-0.00521723236244442,,
0.0113220619203104,-0.18653225441361,-0.0051101919041292,,
0.01155312440848,-0.18147617410512,-0.00499705904429071,,
0.0117841868966496,-0.176436857602229,-0.00491466955126141,,
0.0120152493848192,-0.171277953309664,-0.00480956796421284,,
0.0122463118729888,-0.166079156538534,-0.00470059002749812,,
0.0124773743611584,-0.160497436796195,-0.00458672034086316,,
0.012708436849328,-0.155086582366538,-0.00447349694465071,,
0.0129394993374976,-0.149602576785177,-0.00439521780299224,,
0.0131705618256672,-0.144155146779668,-0.00427245605158255,,
0.0134016243138368,-0.138427662610035,-0.00415020826820278,,
0.0136326868020064,-0.132585072951689,-0.00406499682604533,,
0.013863749290176,-0.126695150195182,-0.00392805011416142,,
0.0140948117783456,-0.120976765096502,-0.0038151944349134,,
0.0143258742665152,-0.114937223133872,-0.0036517818516657,,
0.0145569367546848,-0.108952185950945,-0.00353006892932495,,
0.0147879992428544,-0.102887363810888,-0.00341797096988206,,
0.015019061731024,-0.0967189556955926,-0.00325817984158672,,
0.0152501242191936,-0.0906067108113547,-0.00312526826623971,,
0.0154811867073632,-0.0843635827390176,-0.00299546557068275,,
0.0157122491955328,-0.0779321980262636,-0.00286170295342236,,
0.0159433116837024,-0.0717062819896217,-0.0027498849603047,,
0.016174374171872,-0.0652849376310233,-0.00259354953575386,,
0.0164054366600416,-0.0589236561053197,-0.00244364358661064,,
0.0166364991482112,-0.0524344945331616,-0.00231347178122165,,
0.0168675616363808,-0.0460684617684381,-0.00214393197476825,,
0.0170986241245504,-0.0395267676290017,-0.0020584099232055,,
0.01732968661272,-0.0330082918085502,-0.00188113691756175,,
0.0175607491008896,-0.0265167994398917,-0.00174745508660434,,
0.0177918115890593,-0.0199714298136663,-0.00160278771133582,,
0.0180228740772289,-0.0134442583293478,-0.0014705753553681,,
0.0182539365653985,-0.00688938622508233,-0.0012992749646612,,
0.0184849990535681,-0.000333528014605129,-0.00116432283873591,,
0.0187160615417377,0.00622820201013269,-0.00100666140452521,,
0.0189471240299073,0.0128168258406443,-0.000850103121208257,,
0.0191781865180769,0.0193903667284178,-0.000715507569308826,,
0.0194092490062465,0.0258934906680735,-0.000552597811152467,,
0.0196403114944161,0.0324073721300387,-0.000409990486605061,,
0.0198713739825857,0.0389266099416539,-0.000254301352476283,,
0.0201024364707553,0.0454332973105746,-0.000110802592863557,,
0.0203334989589249,0.0518972907628294,3.85434236296334E-05,,
0.0205645614470945,0.0582874383067301,0.000200241387243949,,
0.0207956239352641,0.0646969493907881,0.000347272458302683,,
0.0210266864234337,0.0711145286165781,0.000496543259961957,,
0.0212577489116033,0.077369467551951,0.000635072269086656,,
0.0214888113997729,0.0836993953824232,0.000813637855574534,,
0.0217198738879425,0.0899475212203333,0.000948500837993471,,
0.0219509363761121,0.0961239750658562,0.0011100065859222,,
0.0221819988642817,0.102317080659454,0.00124737672946207,,
0.0224130613524513,0.108361934148724,0.0013863375274461,,
0.0226441238406209,0.11431207661866,0.00152787512991548,,
0.0228751863287905,0.120358700616809,0.00167473069969537,,
0.0231062488169601,0.126189837996196,0.00181186684153056,,
0.0233373113051297,0.132072387367621,0.00195441845138644,,
0.0235683737932993,0.137928804924435,0.00211465390434729,,
0.0237994362814689,0.143528633162662,0.00226136183019454,,
0.0240304987696385,0.149044507903865,0.00238502615960767,,
0.0242615612578081,0.154719661209764,0.00254482703797443,,
0.0244926237459777,0.160213348561204,0.00266565270385177,,
0.0247236862341473,0.165514117679226,0.00282688544979193,,
0.0249547487223169,0.170681314228571,0.00293560709892526,,
0.0251858112104865,0.176007901400136,0.00309022093950651,,
0.0254168736986561,0.181058199540385,0.00320869265966506,,
0.0256479361868257,0.185937990952027,0.00334427714733998,,
0.0258789986749953,0.19087479723191,0.00347581674840702,,
0.0261100611631649,0.195797080856675,0.00361351282289224,,
0.0263411236513345,0.20051371651329,0.00373197340011266,,
0.0265721861395041,0.204890055880846,0.00384604644537134,,
0.0268032486276737,0.209419869233352,0.00397077771112819,,
0.0270343111158433,0.213787243998983,0.00408271966943463,,
0.0272653736040129,0.218109078586838,0.0042299847421976,,
0.0274964360921825,0.222146197417567,0.00432480000431479,,
0.0277274985803521,0.226088829344011,0.00444211285888851,,
0.0279585610685217,0.230240336495298,0.00454317930939974,,
0.0281896235566913,0.233887315850268,0.00464166059822269,,
0.0284206860448609,0.2373580511314,0.00477578814671276,,
0.0286517485330305,0.240815339509645,0.00485012268820828,,
0.0288828110212001,0.244387554084564,0.00496247693523211,,
0.0291138735093697,0.247524626882062,0.00508311038542342,,
0.0293449359975393,0.250762999681308,0.00517216196269743,,
0.0295759984857089,0.25393413796612,0.00526233340527238,,
0.0298070609738785,0.256680174827667,0.00534771059863681,,
0.0300381234620481,0.259280267969881,0.00542120106255517,,
0.0302691859502177,0.262095511558285,0.00549785054948515,,
0.0305002484383873,0.264595739035059,0.00557774541719924,,
0.0307313109265569,0.266799238188128,0.00564791249976482,,
0.0309623734147265,0.269066923890978,0.00576043389086367,,
0.0311934359028961,0.271020669234427,0.00581225691122933,,
0.0314244983910657,0.272962939887414,0.00591199735208114,,
0.0316555608792353,0.274698845404095,0.00594710039350632,,
0.0318866233674049,0.27632735498972,0.00602158257893404,,
0.0321176858555745,0.277822292006668,0.0060982682804136,,
0.0323487483437441,0.279081101408922,0.00612199995328888,,
0.0325798108319137,0.280385450988953,0.00617420740502617,,
0.0328108733200833,0.281338746757616,0.00621584577977252,,
0.0330419358082529,0.281933099865217,0.0062841213485596,,
0.0332729982964225,0.282846772093374,0.00631798195236222,,
0.0335040607845921,0.283442738829322,0.00633798352663684,,
0.0337351232727617,0.284101278486703,0.00638151898663075,,
0.0339661857609313,0.284407150704371,0.00643404401211045,,
0.0341972482491009,0.284327545039281,0.0064414457088855,,
0.0344283107372705,0.284226424329571,0.00647858512228749,,
0.0346593732254401,0.28397559476772,0.00650533653144603,,
0.0348904357136097,0.283667212461514,0.00651589167976407,,
0.0351214982017793,0.283178283072546,0.00655662747650698,,
0.0353525606899489,0.282616381823911,0.00656658926336018,,
0.0355836231781185,0.281662189595056,0.00657307723919365,,
0.0358146856662881,0.280823640731027,0.00655697290759472,,
0.0360457481544577,0.279986346911269,0.00657097958105579,,
0.0362768106426273,0.278547707594407,0.00655654111873494,,
0.0365078731307969,0.277312744033273,0.0065723278765919,,
0.0367389356189665,0.276046225073364,0.00654067357457544,,
0.0369699981071361,0.273948328930967,0.00654696654898856,,
0.0372010605953057,0.272304400230032,0.00649203464883286,,
0.0374321230834753,0.270492295596991,0.00648690611147362,,
0.0376631855716449,0.26826638493911,0.00646073413510795,,
0.0378942480598145,0.266098027025585,0.00644430944403229,,
0.0381253105479841,0.263867096190627,0.00640535373168527,,
0.0383563730361537,0.261158710657164,0.00637619266211686,,
0.0385874355243233,0.258794386545567,0.00634203955618284,,
0.0388184980124929,0.256015180656899,0.00633423949936285,,
0.0390495605006625,0.253005584498769,0.00625706629433198,,
0.0392806229888321,0.249876400550964,0.00622891644641532,,
0.0395116854770017,0.246667610938069,0.0061739817605253,,
0.0397427479651713,0.243186118134628,0.00612196652447405,,
0.0399738104533409,0.23995151046819,0.00603754762380415,,
0.0402048729415105,0.236435952177435,0.00598536524367788,,
0.0404359354296801,0.232474853171026,0.00593833090105278,,
0.0406669979178497,0.228765300894622,0.00585414600208756,,
0.0408980604060193,0.224910880651117,0.00578970638981557,,
0.0411291228941889,0.220865335094579,0.00571001209499089,,
0.0413601853823585,0.216646593428857,0.00565836457590363,,
0.0415912478705281,0.212486121675645,0.00557229652036328,,
0.0418223103586977,0.208061911333812,0.00551440895582012,,
0.0420533728468673,0.203616544531436,0.00541768825125155,,
0.0422844353350369,0.198878035246125,0.00532376720993399,,
0.0425154978232065,0.194137195164314,0.00522420227036058,,
0.0427465603113761,0.189155027998693,0.00515792407326643,,
0.0429776227995457,0.184469051280661,0.00505360388476728,,
0.0432086852877153,0.179397058803755,0.00493911019358695,,
0.0434397477758849,0.174411305797363,0.00483714116507183,,
0.0436708102640545,0.169004597496097,0.00476226340533392,,
0.0439018727522241,0.163735719949422,0.00463255681761954,,
0.0441329352403937,0.158353193661847,0.0045218712256081,,
0.0443639977285633,0.152783307194048,0.00441837840027892,,
0.0445950602167329,0.147294998603763,0.00431253162923051,,
0.0448261227049025,0.141751647357661,0.00420621685477274,,
0.0450571851930721,0.136024163188028,0.00407058500961011,,
0.0452882476812417,0.130222071118876,0.00396474102429645,,
0.0455193101694113,0.124217782453316,0.00382512000721702,,
0.0457503726575809,0.118400293680359,0.00370623321260632,,
0.0459814351457505,0.112455148975996,0.00358533233189506,,
0.0462124976339201,0.106392747278459,0.0034564976791045,,
0.0464435601220897,0.100199283100784,0.00333773624254974,,
0.0466746226102593,0.0941046088363185,0.00321555392393247,,
0.0469056850984289,0.0878760034190992,0.00304793906007284,,
0.0471367475865985,0.0816122567623354,0.00293398022993152,,
0.0473678100747681,0.0753528131144954,0.00280520407756679,,
0.0475988725629377,0.0690865563691928,0.00267422162341546,,
0.0478299350511073,0.0625987170758186,0.00253273973563806,,
0.0480609975392769,0.0561728904162578,0.00238188385100324,,
0.0482920600274465,0.0497402282477296,0.00224261940794968,,
0.0485231225156161,0.0433212146856316,0.00207657848412701,,
0.0487541850037857,0.0368464412995625,0.00198213093897426,,
0.0489852474919553,0.0303786603029946,0.00180779966904598,,
0.0492163099801249,0.0238418518716072,0.00166557399013545,,
0.0494473724682945,0.0173446669807266,0.00151452867554935,,
0.0496784349564641,0.0107868813808356,0.00135885068435915,,
0.0499094974446337,0.00421367666563424,0.00125303734212601,,
0.0501405599328033,-0.00233890946514047,0.00110151566692673,,
0.0503716224209729,-0.00892663683545966,0.000919888558136961,,
0.0506026849091425,-0.0155190257987796,0.000769935251505594,,
0.0508337473973121,-0.0220651574161686,0.000628676222493851,,
0.0510648098854817,-0.0286189985912128,0.000482302584796201,,
0.0512958723736513,-0.0350964613578593,0.00032460772177112,,
0.0515269348618209,-0.0416052554082323,0.000180250955908345,,
0.0517579973499905,-0.0481446187511682,-1.86644216526588E-07,,
0.0519890598381601,-0.0546109654114282,-0.00015234346689974,,
0.0522201223263297,-0.0609571864058983,-0.000281668408976365,,
0.0524511848144993,-0.0674231744820813,-0.000433848910403434,,
0.0526822473026689,-0.0737091533516181,-0.000574493684940336,,
0.0529133097908385,-0.0801147200108292,-0.000733960275157486,,
0.0531443722790081,-0.0862502728600711,-0.000900680918217489,,
0.0533754347671778,-0.0925404202695028,-0.00104392199738124,,
0.0536064972553474,-0.0986891959065835,-0.00116513627323256,,
0.053837559743517,-0.104832996189596,-0.00131341535338203,,
0.0540686222316865,-0.110920498772522,-0.00149135832819214,,
0.0542996847198561,-0.116878193919579,-0.00161345011043545,,
0.0545307472080258,-0.122866682474248,-0.00176082661258148,,
0.0547618096961954,-0.128653019255517,-0.00190869479688072,,
0.054992872184365,-0.134544510817361,-0.00204078179479206,,
0.0552239346725346,-0.140331923350861,-0.00220605385587103,,
0.0554549971607042,-0.145851070171766,-0.00237743224714659,,
0.0556860596488738,-0.151429607480422,-0.00248795765941967,,
0.0559171221370434,-0.157043196382604,-0.00260841560833258,,
0.056148184625213,-0.162405462669829,-0.00275517785600421,,
0.0563792471133826,-0.167732767009548,-0.00291657078168228,,
0.0566103096015522,-0.172856037009463,-0.00305802063351246,,
0.0568413720897218,-0.178054206258458,-0.00318881644344682,,
0.0570724345778914,-0.183220192586543,-0.00328787716506174,,
0.057303497066061,-0.188097294617608,-0.00343569938474042,,
0.0575345595542306,-0.193136252536422,-0.00356743120149305,,
0.0577656220424002,-0.197846837086737,-0.00368519116646659,,
0.0579966845305698,-0.202461814157527,-0.00381795788361528,,
0.0582277470187394,-0.207119686848526,-0.0039304235600226,,
0.058458809506909,-0.2113428659922,-0.00405963846558333,,
0.0586898719950786,-0.215843454742431,-0.00416289868207542,,
0.0589209344832482,-0.220007153752336,-0.00429393963665259,,
0.0591519969714178,-0.224130691345618,-0.00439541837588209,,
0.0593830594595874,-0.228180853672147,-0.00449651825520814,,
0.059614121947757,-0.232016313782582,-0.00458548347471055,,
0.0598451844359266,-0.235622414552776,-0.00470154692732594,,
0.0600762469240962,-0.239151957622534,-0.00484679791398834,,
0.0603073094122658,-0.242797323349157,-0.00490505180262879,,
0.0605383719004354,-0.246206740753125,-0.00503881163415443,,
0.060769434388605,-0.249363177090781,-0.00510801903115787,,
0.0610004968767746,-0.252372414664834,-0.00521229604077122,,
0.0612315593649442,-0.255291647635564,-0.00531573593714363,,
0.0614626218531138,-0.258241180960799,-0.00538525672928714,,
0.0616936843412834,-0.261014425389187,-0.0054630232957833,,
0.061924746829453,-0.263462165121692,-0.00553678954742454,,
0.0621558093176226,-0.26585732746391,-0.00565295467935201,,
0.0623868718057922,-0.268029091926166,-0.00574193104179255,,
0.0626179342939618,-0.270218785592271,-0.00574503992158215,,
0.0628489967821314,-0.272396780452865,-0.00585035183159155,,
0.063080059270301,-0.274162134686869,-0.00592170145848581,,
0.0633111217584706,-0.276021034541956,-0.00599797487124754,,
0.0635421842466402,-0.277327221865381,-0.00604958756865281,,
0.0637732467348098,-0.279258376411981,-0.00610971486379697,,
0.0640043092229794,-0.280171824525089,-0.00615018601575512,,
0.064235371711149,-0.281091234098477,-0.00622671571609823,,
0.0644664341993186,-0.282347891996269,-0.00625946620467133,,
0.0646974966874882,-0.282779089348843,-0.00627081946594643,,
0.0649285591756578,-0.283722882639466,-0.0063248961455864,,
0.0651596216638274,-0.284261968976202,-0.00636809871029831,,
0.065390684151997,-0.284541171503144,-0.0064090030439834,,
0.0656217466401666,-0.284563179600869,-0.00645691767873524,,
0.0658528091283362,-0.284723466683281,-0.00645789825730692,,
0.0660838716165058,-0.284631131283458,-0.006498246836943,,
0.0663149341046754,-0.284311498401836,-0.00651255436973885,,
0.066545996592845,-0.284030009901403,-0.00652989278175609,,
0.0667770590810146,-0.283630905823719,-0.0065485014887412,,
0.0670081215691842,-0.282692849878328,-0.00654737465910404,,
0.0672391840573538,-0.281990204379477,-0.00654301777022326,,
0.0674702465455234,-0.280884913785182,-0.00655090697054961,,
0.067701309033693,-0.279685225932621,-0.00656138272543272,,
0.0679323715218626,-0.278348065909546,-0.00654005374863154,,
0.0681634340100322,-0.276863214069763,-0.00655574300577833,,
0.0683944964982018,-0.275378810460077,-0.00655465239069075,,
0.0686255589863714,-0.273683738705162,-0.00654596089880544,,
0.068856621474541,-0.271749401724879,-0.00652325159052047,,
0.0690876839627106,-0.269736490008727,-0.00648493102565739,,
0.0693187464508802,-0.267578889617512,-0.00647059006404671,,
0.0695498089390498,-0.265374314712212,-0.00643272635965442,,
0.0697808714272194,-0.26282868152669,-0.00641608995275123,,
0.070011933915389,-0.260272918340993,-0.00635361149762259,,
0.0702429964035586,-0.257423250681198,-0.00631974810808522,,
0.0704740588917282,-0.254774390104514,-0.00629092271953313,,
0.0707051213798978,-0.251622436067821,-0.00625009360068196,,
0.0709361838680674,-0.248641347343811,-0.00622025281187577,,
0.071167246356237,-0.245278007993736,-0.00617798764684929,,
0.0713983088444066,-0.241923812537623,-0.00608738441541501,,
0.0716293713325762,-0.238310360793851,-0.00603125743512534,,
0.0718604338207458,-0.234712372988399,-0.00598820112147891,,
0.0720914963089154,-0.231139575714356,-0.00591664256449098,,
0.072322558797085,-0.227038987502,-0.00583693434099386,,
0.0725536212852546,-0.223038085663047,-0.00578985542661536,,
0.0727846837734242,-0.218930325769152,-0.00569669071223622,,
0.0730157462615938,-0.214657034500719,-0.00562295788940981,,
0.0732468087497634,-0.210327535178219,-0.0055474867682066,,
0.073477871237933,-0.205777417002354,-0.00545536670429403,,
0.0737089337261026,-0.201207980109341,-0.00538663845363807,,
0.0739399962142722,-0.196717655828314,-0.0052825522668436,,
0.0741710587024418,-0.191713435741958,-0.005203338511234,,
0.0744021211906114,-0.187026203979656,-0.00509431460989873,,
0.074633183678781,-0.181881418935122,-0.00500786769445538,,
0.0748642461669506,-0.177070654958299,-0.00491191585263051,,
0.0750953086551202,-0.171718249733191,-0.00479832613232078,,
0.0753263711432898,-0.166310443268189,-0.00469179824916788,,
0.0755574336314594,-0.161008419105898,-0.00460501704557537,,
0.075788496119629,-0.155430643788405,-0.00449583853597124,,
0.0760195586077986,-0.150056185642563,-0.0043998741583402,,
