Time domain (s),Current (AC) (A),Potential (AC) (V),Frequency (Hz),Column 5
0,-0.284377903690592,-0.0111784743202112,0.015849,0.3
0.154041658779734,-0.284004079790336,-0.0111906655455951,,
0.308083317559468,-0.283678664740473,-0.0112724000213618,,
0.462124976339201,-0.283180950041618,-0.0112753485454946,,
0.616166635118935,-0.282689510564111,-0.0112808831348881,,
0.770208293898669,-0.282096771084856,-0.0113179232798495,,
0.924249952678402,-0.281554771252494,-0.0113686170929501,,
1.07829161145814,-0.280666379201765,-0.0113761562374997,,
1.23233327023787,-0.279858309984281,-0.011346087910157,,
1.3863749290176,-0.279186323424012,-0.011358090026564,,
1.54041658779734,-0.278316219161209,-0.0113679363006329,,
1.69445824657707,-0.277157678831482,-0.0113517611794669,,
1.84849990535681,-0.276179551115488,-0.0113726246273544,,
2.00254156413654,-0.274669015691191,-0.0113709352538267,,
2.15658322291627,-0.27384265868578,-0.0113637506886088,,
2.31062488169601,-0.272395234059033,-0.0113480294289876,,
2.46466654047574,-0.271170176383025,-0.0113451155748336,,
2.61870819925547,-0.269966768220666,-0.0112944611594368,,
2.77274985803521,-0.268535166116315,-0.0113258280350879,,
2.92679151681494,-0.267031040382394,-0.0112920153500009,,
3.08083317559468,-0.265642289075243,-0.0112434017356473,,
3.23487483437441,-0.263822967937653,-0.0112238604746908,,
3.38891649315414,-0.262300016539691,-0.0111878793400004,,
3.54295815193388,-0.26050458606623,-0.011144007633245,,
3.69699981071361,-0.258716909973433,-0.0111413585316589,,
3.85104146949334,-0.256838646578189,-0.0111029205561759,,
4.00508312827308,-0.254904802651012,-0.011047648729924,,
4.15912478705281,-0.252665400267235,-0.0110356970425776,,
4.31316644583254,-0.250811206828158,-0.0109719421027989,,
4.46720810461228,-0.248843297413668,-0.01094696711057,,
4.62124976339201,-0.246685876314491,-0.0108750804847806,,
4.77529142217175,-0.244499589197117,-0.0108269349151451,,
4.92933308095148,-0.242138537165223,-0.0107967137247127,,
5.08337473973121,-0.239600030838231,-0.0107200237309071,,
5.23741639851095,-0.237370041286474,-0.0106669597519615,,
5.39145805729068,-0.234883081420549,-0.010562987636408,,
5.54549971607041,-0.232593208327936,-0.0105428538339902,,
5.69954137485015,-0.229970838149939,-0.0104925256315784,,
5.85358303362988,-0.227315343767831,-0.0103938233528504,,
6.00762469240962,-0.224615922836292,-0.0103288833301494,,
6.16166635118935,-0.22200256208323,-0.0102413873342169,,
6.31570800996908,-0.219143616060443,-0.0101501863782434,,
6.46974966874882,-0.216158000212461,-0.0100756411954186,,
6.62379132752855,-0.213338274323094,-0.0100387034844864,,
6.77783298630828,-0.210757544721037,-0.00990632720058793,,
6.93187464508802,-0.207798867501839,-0.00984315061909724,,
7.08591630386775,-0.204543641250974,-0.00975629916959475,,
7.23995796264749,-0.201612754297742,-0.00963206875488032,,
7.39399962142722,-0.198364699728417,-0.00955897025572972,,
7.54804128020695,-0.195169177726371,-0.00944623766681651,,
7.70208293898669,-0.192029908601401,-0.00936085969142653,,
7.85612459776642,-0.188795525050011,-0.00927055385127717,,
8.01016625654615,-0.185406009062316,-0.00914649836236681,,
8.16420791532589,-0.18205468227882,-0.00907912671340272,,
8.31824957410562,-0.178682736910897,-0.00894440390228146,,
8.47229123288536,-0.175381611898178,-0.00883058551265892,,
8.62633289166509,-0.171893350820283,-0.0087122789366485,,
8.78037455044482,-0.168367303945276,-0.00862148141315933,,
8.93441620922456,-0.164849818265107,-0.00850089134625209,,
9.08845786800429,-0.161269580371466,-0.00836579346899269,,
9.24249952678402,-0.157547612121397,-0.00827484623422992,,
9.39654118556376,-0.154012690290484,-0.00812104705505368,,
9.55058284434349,-0.150244688809532,-0.00802491823432128,,
9.70462450312323,-0.146447776487373,-0.00792080743885126,,
9.85866616190296,-0.142785960716218,-0.00780333294233992,,
10.0127078206827,-0.138893933967639,-0.00766070695188814,,
10.1667494794624,-0.135050181600423,-0.0075506959563354,,
10.3207911382422,-0.131200647064967,-0.00737022453186187,,
10.4748327970219,-0.127375272131697,-0.00725613981376316,,
10.6288744558016,-0.12334980728347,-0.00712088907341446,,
10.7829161145814,-0.119517260668661,-0.00697630895686663,,
10.9369577733611,-0.11553859104248,-0.00684912686620276,,
11.0909994321408,-0.111559024956107,-0.00670967790656452,,
11.2450410909206,-0.107488199222141,-0.00656001863807631,,
11.3990827497003,-0.103515446233231,-0.00641988731021259,,
11.55312440848,-0.0993337731964678,-0.00624080268490346,,
11.7071660672598,-0.0952265960016979,-0.00612788886655435,,
11.8612077260395,-0.0910472985844445,-0.00595351935840505,,
12.0152493848192,-0.0868772795301831,-0.00581505376544689,,
12.169291043599,-0.0827957410969177,-0.00565563489783782,,
12.3233327023787,-0.0785051033237606,-0.00552293082504551,,
12.4773743611584,-0.0742827758172691,-0.0053607005373113,,
12.6314160199382,-0.0701405918519837,-0.00520754748047336,,
12.7854576787179,-0.0658302319545925,-0.00504323699399212,,
12.9394993374976,-0.0616095180764474,-0.00490192373502207,,
13.0935409962774,-0.0573658548173754,-0.00473546843756045,,
13.2475826550571,-0.0529914876622425,-0.00456998547542176,,
13.4016243138368,-0.0487641399786732,-0.00442054998588981,,
13.5556659726166,-0.0443853353455876,-0.00423763275198041,,
13.7097076313963,-0.0400444509786432,-0.00408828708921227,,
13.863749290176,-0.0357346289573675,-0.00391610966928813,,
14.0177909489558,-0.0314014989710878,-0.00375212697170069,,
14.1718326077355,-0.0270757199583863,-0.00358622639390438,,
14.3258742665152,-0.0226529439528605,-0.00343154943389345,,
14.479915925295,-0.0183476042325472,-0.00326923089530329,,
14.6339575840747,-0.0139535149531801,-0.00309541453091189,,
14.7879992428544,-0.00959514961248267,-0.00290567519065688,,
14.9420409016342,-0.00519097515595046,-0.00276280966216769,,
15.0960825604139,-0.000851211364246568,-0.00259403620382948,,
15.2501242191936,0.00359182464162883,-0.0024209652439886,,
15.4041658779734,0.00790559108775135,-0.00223737667321089,,
15.5582075367531,0.0123140237301978,-0.00210426916793471,,
15.7122491955328,0.0166614970795568,-0.00189774955778743,,
15.8662908543126,0.0210489525534996,-0.00173500237218294,,
16.0203325130923,0.025381880836236,-0.00158336218716082,,
16.174374171872,0.0297725859783765,-0.00138767221776304,,
16.3284158306518,0.0340834837518831,-0.00121415842773454,,
16.4824574894315,0.0384210960391251,-0.00104262397833255,,
16.6364991482112,0.0426599184131579,-0.00085758714797235,,
16.790540806991,0.0470072124704784,-0.00067625685356143,,
16.9445824657707,0.0514212031661181,-0.000505251909294735,,
17.0986241245504,0.0556826387485057,-0.000329430989746804,,
17.2526657833302,0.0598819944625654,-0.000158400830949645,,
17.4067074421099,0.0642312607323094,-1.04797891418151E-05,,
17.5607491008896,0.0684162954947945,0.000191286882050168,,
17.7147907596694,0.0726473858996673,0.000352622053959806,,
17.8688324184491,0.0767680772318385,0.000544441592961409,,
18.0228740772288,0.0810893739435777,0.000727246937392678,,
18.1769157360086,0.085276761914068,0.000888153462287988,,
18.3309573947883,0.0895221956820202,0.00103061555829331,,
18.4849990535681,0.0936955764620033,0.0012262456431813,,
18.6390407123478,0.097668531154457,0.00140336195922153,,
18.7930823711275,0.101756187928536,0.00155753620453547,,
18.9471240299073,0.105881518442203,0.00177820116616223,,
19.101165688687,0.109998960106177,0.00193188372813591,,
19.2552073474667,0.11385425439837,0.00210941923574159,,
19.4092490062465,0.11801723624012,0.00227298589357972,,
19.5632906650262,0.121902517125751,0.00243769981254527,,
19.7173323238059,0.125847098853114,0.00259440811815104,,
19.8713739825857,0.129767677858823,0.00276793451544455,,
20.0254156413654,0.133598655668295,0.00298558634070423,,
20.1794573001451,0.137459485602177,0.00312802322217909,,
20.3334989589249,0.141301915690608,0.00330772717938776,,
20.4875406177046,0.145101651862374,0.00346096848708211,,
20.6415822764843,0.148809949094508,0.00362215552362644,,
20.7956239352641,0.152509102432679,0.00382341475239656,,
20.9496655940438,0.15627495240917,0.00395473202602403,,
21.1037072528235,0.159866508112741,0.00413659182557025,,
21.2577489116033,0.163330295827381,0.00427264943088801,,
21.411790570383,0.166884738078984,0.00443239923920702,,
21.5658322291627,0.17049424539791,0.00458836056435352,,
21.7198738879425,0.173885218133417,0.0047582560692887,,
21.8739155467222,0.177445733902825,0.0049098710397808,,
22.0279572055019,0.180914877967115,0.00502382810931978,,
22.1819988642817,0.184106276252276,0.00520946693659008,,
22.3360405230614,0.187513362859744,0.00536162717129907,,
22.4900821818411,0.190668364861091,0.00554328525460335,,
22.6441238406209,0.193865859075561,0.00568578517240415,,
22.7981654994006,0.196892487977348,0.00583887519291659,,
22.9522071581803,0.200154706617714,0.00595914850228718,,
23.1062488169601,0.203406705611886,0.00612437931912302,,
23.2602904757398,0.206129075924351,0.00626107043951363,,
23.4143321345195,0.209128452436287,0.00640460100123885,,
23.5683737932993,0.212192374082081,0.00656938741197877,,
23.722415452079,0.214951678554476,0.0067018897685287,,
23.8764571108587,0.21785979541882,0.00684089747388761,,
24.0304987696385,0.220602067147558,0.00699002250951564,,
24.1845404284182,0.223326409672447,0.00713355307124086,,
24.3385820871979,0.225880962636884,0.00723813033552068,,
24.4926237459777,0.228502032947601,0.00740677772120746,,
24.6466654047574,0.231178504498213,0.00752468086473357,,
24.8007070635371,0.233584962238856,0.00762756875548565,,
24.9547487223169,0.236289224055434,0.00777584595253344,,
25.1087903810966,0.238435170464147,0.00791347946599252,,
25.2628320398763,0.240771166433662,0.00803555246246113,,
25.4168736986561,0.243022536561008,0.00812637520048076,,
25.5709153574358,0.245501966161317,0.00828502187310098,,
25.7249570162155,0.247603627436523,0.00839402743925888,,
25.8789986749953,0.249638771365448,0.00849605803598186,,
26.033040333775,0.251754596711694,0.00864447391294609,,
26.1870819925547,0.253739000993726,0.00875006921388577,,
26.3411236513345,0.255853571295703,0.00882398560936171,,
26.4951653101142,0.257440664420436,0.00896770843188044,,
26.6492069688939,0.259379169940614,0.00906281764004513,,
26.8032486276737,0.261173166077767,0.00915752341572595,,
26.9572902864534,0.262786615132158,0.00927981388751808,,
27.1113319452331,0.264469270913408,0.00937902045685091,,
27.2653736040129,0.266120550587921,0.0094410355940413,,
27.4194152627926,0.267679315570572,0.00956211576838051,,
27.5734569215723,0.269050541080961,0.0096564559333725,,
27.7274985803521,0.270397024290037,0.00972058909110496,,
27.8815402391318,0.271726295463418,0.00981953090787036,,
28.0355818979115,0.27289384521808,0.00993865695611396,,
28.1896235566913,0.274049920282277,0.0100011511693796,,
28.343665215471,0.275257990037638,0.0100965251301122,,
28.4977068742507,0.276539748820819,0.0101698962613712,,
28.6517485330305,0.277286141577062,0.0102568769353413,,
28.8057901918102,0.278538675757968,0.0103233424371236,,
28.9598318505899,0.27914844798088,0.0104111394315112,,
29.1138735093697,0.28002124162426,0.0104511927128397,,
29.2679151681494,0.280812278098088,0.0105245071114055,,
29.4219568269291,0.281380275276031,0.0105965923016207,,
29.5759984857089,0.282137246262545,0.0106275557447879,,
29.7300401444886,0.282600178305932,0.010692394909368,,
29.8840818032683,0.282983863268306,0.0107546747991258,,
30.0381234620481,0.283240968051503,0.0108119716673403,,
30.1921651208278,0.28380860664537,0.0108631981373928,,
30.3462067796075,0.283972838152629,0.0109356142683179,,
30.5002484383873,0.284345765592692,0.0110028708759873,,
30.654290097167,0.28428426842349,0.0110391230668778,,
30.8083317559468,0.284621696039932,0.0110689234898365,,
30.9623734147265,0.284454775152096,0.0111043372975956,,
31.1164150735062,0.284352578690155,0.0111483240456454,,
31.270456732286,0.284017661162252,0.0111748780978322,,
31.4244983910657,0.284137069659887,0.011216696396279,,
31.5785400498454,0.283896459744231,0.011203493437868,,
31.7325817086252,0.283414702036802,0.0112758213179376,,
31.8866233674049,0.28316889265203,0.0112680426353502,,
32.0406650261846,0.282471267330256,0.0113215604758405,,
32.1947066849644,0.282101925730962,0.0113030025815646,,
32.3487483437441,0.281458446604814,0.0113210561852353,,
32.5027900025238,0.281034600225818,0.0113536963946652,,
32.6568316613036,0.280050107642458,0.0113928293456387,,
32.8108733200833,0.279348717187876,0.0113613490046012,,
32.964914978863,0.278354722126475,0.0114027260487681,,
33.1189566376428,0.277725586363406,0.0113990951564098,,
33.2729982964225,0.276565208290285,0.011388870664387,,
33.4270399552022,0.275642750752242,0.011375056253617,,
33.581081613982,0.274306666481398,0.0113778519146606,,
33.7351232727617,0.273273585755606,0.011356419563934,,
33.8891649315414,0.272209846091232,0.0113639461012185,,
34.0432065903212,0.270934900405514,0.0113373573790527,,
34.1972482491009,0.269264974358997,0.0113136084433578,,
34.3512899078806,0.267854304600141,0.0113083228474506,,
34.5053315666604,0.26632279200734,0.0112886555138432,,
34.6593732254401,0.264877698177093,0.0112789100978952,,
34.8134148842198,0.263202214077383,0.011216809861665,,
34.9674565429996,0.261522247676711,0.0112145500093899,,
35.1214982017793,0.259778991186452,0.0111535970342871,,
35.275539860559,0.257943937172484,0.0111076782228556,,
35.4295815193388,0.256352003162712,0.0110950457431924,,
35.5836231781185,0.254384631624337,0.0110586895423643,,
35.7376648368982,0.252251773534433,0.0110370680826608,,
35.891706495678,0.250242089074974,0.0109793236565348,,
36.0457481544577,0.247994125496359,0.0109486375732004,,
36.1997898132374,0.24596418103655,0.0108788437534231,,
36.3538314720172,0.243742214803516,0.0108458221742227,,
36.5078731307969,0.241506980959634,0.0107718301351558,,
36.6619147895766,0.239128492776996,0.010707611878384,,
36.8159564483564,0.236748390966012,0.0106478282271221,,
36.9699981071361,0.234367392694836,0.0106070185098859,,
37.1240397659158,0.231822342208439,0.0105088079144982,,
37.2780814246956,0.229294324465699,0.0104458976614836,,
37.4321230834753,0.226613549906163,0.0104104712464594,,
37.586164742255,0.22413465818197,0.0103148482922402,,
37.7402064010348,0.221266702734248,0.0102400367809397,,
37.8942480598145,0.218638819326068,0.0101660163755262,,
38.0482897185942,0.215780724940464,0.0100888725201762,,
38.202331377374,0.213021420468069,0.0100084602313406,,
38.3563730361537,0.210056288735485,0.00989548652848171,,
38.5104146949334,0.206991470629499,0.00985164161216456,,
38.6644563537132,0.203831986327189,0.00973228863314857,,
38.8184980124929,0.201012439729861,0.00963983955792669,,
38.9725396712726,0.197883435074095,0.00957049959969414,,
39.1265813300524,0.19472807448867,0.00950334069832959,,
39.2806229888321,0.191599249124943,0.00934148862854967,,
39.4346646476118,0.188303502873379,0.0092663335692742,,
39.5887063063916,0.184889961752526,0.00917240944403197,,
39.7427479651713,0.181594215500962,0.00905205103562157,,
39.896789623951,0.178208285354037,0.00893857304215739,,
40.0508312827308,0.174750996975792,0.00883016632109301,,
40.2048729415105,0.171262691074887,0.00874623975710165,,
40.3589146002902,0.167745003691175,0.00862011667670881,,
40.51295625907,0.164348652194512,0.00849688696366435,,
40.6669979178497,0.160813013195446,0.00839778125245205,,
40.8210395766294,0.157059175785534,0.00827523863535751,,
40.9750812354092,0.153293684393121,0.00813581804206542,,
41.1291228941889,0.149708403910897,0.00802191140158692,,
41.2831645529686,0.146064987985192,0.00790218335643322,,
41.4372062117484,0.142122714642826,0.00780578505540852,,
41.5912478705281,0.138488644314627,0.0076374654586151,,
41.7452895293078,0.134630458938313,0.00750575735976833,,
41.8993311880876,0.130782493208193,0.0073974987740697,,
42.0533728468673,0.12683627544098,0.00723345304015632,,
42.207414505647,0.122882370527616,0.00714513914789805,,
42.3614561644268,0.118931289463859,0.00698063009699146,,
42.5154978232065,0.114947420368562,0.0068479859087085,,
42.6695394819862,0.110911377290064,0.00671612652268028,,
42.823581140766,0.106875670384138,0.006555119139664,,
42.9776227995457,0.102881805757695,0.00638881670529212,,
43.1316644583254,0.0987381874561015,0.00626232801421045,,
43.2857061171052,0.0946628570096688,0.00612768242258799,,
43.4397477758849,0.0904842767605694,0.00596086309034538,,
43.5937894346647,0.0863797665348721,0.00582479287776261,,
43.7478310934444,0.082163333254146,0.00566756767428656,,
43.9018727522241,0.0779628793763506,0.00551776814997362,,
44.0559144110039,0.0736774634838146,0.0053754699484152,,
44.2099560697836,0.0695764942758776,0.00521133281182973,,
44.3639977285633,0.0653385683620372,0.00507526259924695,,
44.5180393873431,0.0610210367831064,0.00492493672161487,,
44.6720810461228,0.0567372121074121,0.00476960260790849,,
44.8261227049025,0.0524191426523657,0.00459664353754619,,
44.9801643636823,0.0481390831094798,0.00442746979854025,,
45.134206022462,0.0438362310662004,0.00427364540483355,,
45.2882476812417,0.0394853735796149,0.00411515947484409,,
45.4422893400215,0.0351495542127578,0.00395142892255906,,
45.5963309988012,0.0308314847577115,0.00378234343440864,,
45.7503726575809,0.0264393676907679,0.00363070324938652,,
45.9044143163607,0.0220985505583378,0.00343998999790029,,
46.0584559751404,0.0177887061255573,0.00326693006941658,,
46.2124976339201,0.0133888795009585,0.00310563271930242,,
46.3665392926999,0.00902293907163479,0.00292709178230233,,
46.5205809514796,0.00460841049987965,0.00278922818625427,,
46.6746226102593,0.00028550015979403,0.00259006806712891,,
46.8286642690391,-0.00408761195106941,0.00245282537888869,,
46.9827059278188,-0.00845480742466261,0.00227637724790064,,
47.1367475865985,-0.0128922853773447,0.00208322133879468,,
47.2907892453783,-0.0172060518234673,0.00194824795827886,,
47.444830904158,-0.0215989308815745,0.00176412830645711,,
47.5988725629377,-0.0259519174611172,0.00157616974240238,,
47.7529142217175,-0.0303835235995387,0.00141238876105687,,
47.9069558804972,-0.0346696342487238,0.00124233251349137,,
48.0609975392769,-0.0389830421107693,0.00105215822258975,,
48.2150391980567,-0.043315096344818,0.000863128040998529,,
48.3690808568364,-0.0476697413757168,0.000708701650381727,,
48.5231225156161,-0.0519551796797575,0.000541680601897188,,
48.6771641743959,-0.0562971397989329,0.000360123376713872,,
48.8312058331756,-0.0605443440757652,0.00018687433925324,,
48.9852474919553,-0.0648074156980041,4.09578526014975E-05,,
49.1392891507351,-0.0690182236910225,-0.000169772584099892,,
49.2933308095148,-0.0732450334984762,-0.000334119316468318,,
49.4473724682945,-0.0774924618903566,-0.000533834155259871,,
49.6014141270743,-0.0817294913440045,-0.000670079293646264,,
49.755455785854,-0.0859148846905666,-0.000857662791563296,,
49.9094974446337,-0.0900343433899732,-0.00103784582484678,,
50.0635391034135,-0.0941379347439732,-0.00121158812155553,,
50.2175807621932,-0.0983903384899218,-0.00137807808899693,,
50.3716224209729,-0.102491374932373,-0.00154957471660389,,
50.5256640797527,-0.106423159690488,-0.00174852996767072,,
50.6797057385324,-0.11045637891938,-0.00192000138074766,,
50.8337473973121,-0.114397935093593,-0.00206501014430982,,
50.9877890560919,-0.118554283129919,-0.00225216499521208,,
51.1418307148716,-0.122479703020667,-0.00242183514528316,,
51.2958723736513,-0.12646769583285,-0.00260452544842016,,
51.4499140324311,-0.130300601031736,-0.00275412325649071,,
51.6039556912108,-0.134219521586089,-0.0029133530151233,,
51.7579973499905,-0.138018450943681,-0.00309562885441927,,
51.9120390087703,-0.141798958044318,-0.0032711219850734,,
52.06608066755,-0.145503310851606,-0.00345189755981856,,
52.2201223263297,-0.149245359809986,-0.00362508198504496,,
52.3741639851095,-0.153003813989889,-0.00377189516342957,,
52.5282056438892,-0.156630891928586,-0.00392096346636439,,
52.6822473026689,-0.160270161725901,-0.00409345764382518,,
52.8362889614487,-0.164005532055848,-0.00426383064892732,,
52.9903306202284,-0.167342694768303,-0.00442812852814312,,
