Time domain (s),Current (AC) (A),Potential (AC) (V),Frequency (Hz),Column 5
0,0.199726803756347,0.00285272838382955,1000,0.3
3.125E-05,0.233803362353244,0.00342551397153823,,
6.25E-05,0.25880469583778,0.00386891707797288,,
9.375E-05,0.273839453840592,0.0041865195005224,,
0.000125,0.278416398587717,0.00430207109357506,,
0.00015625,0.272684140767558,0.00430454557713134,,
0.0001875,0.255942746673348,0.00406875093875891,,
0.00021875,0.22974185980528,0.00375614196315865,,
0.00025,0.194685761567586,0.00324822436491257,,
0.00028125,0.152151078643315,0.00263338192092233,,
0.0003125,0.103785280751162,0.00190557473755026,,
0.00034375,0.051573422106798,0.00113306063603735,,
0.000375,-0.00195544861781526,0.000335588663953335,,
0.00040625,-0.0564529669918875,-0.000561012477202638,,
0.0004375,-0.109350393568436,-0.00138195809793329,,
0.00046875,-0.157704515066582,-0.00216583328620024,,
0.0005,-0.199924114644708,-0.00283388063821732,,
0.00053125,-0.233944016957441,-0.00342972433925404,,
0.0005625,-0.259194521552472,-0.00386174880110435,,
0.00059375,-0.274221121767533,-0.00418214994181065,,
0.000625,-0.278982356318722,-0.00427404411425947,,
0.00065625,-0.27300023263142,-0.00427389194639627,,
0.0006875,-0.256267041147971,-0.00406381952947621,,
0.00071875,-0.229859923612627,-0.00371006670477225,,
0.00075,-0.194545756897029,-0.00323529243760357,,
0.00078125,-0.151805089832035,-0.00261634965496738,,
0.0008125,-0.103257691516394,-0.00187855557769634,,
0.00084375,-0.0509483876491093,-0.00110862715933191,,
0.000875,0.00264189059868749,-0.000281182800330626,,
0.00090625,0.0566698207124438,0.000566779639209702,,
0.0009375,0.109476189344943,0.00140283318768919,,
0.00096875,0.157706106283424,0.00218083001435732,,
0.001,0.199474181274112,0.00286755889785928,,
0.00103125,0.233904438239944,0.00343845994511094,,
0.0010625,0.258619845746095,0.00388861696361742,,
0.00109375,0.273879884195272,0.00417715064225144,,
0.001125,0.27858777936501,0.00432594037866485,,
0.00115625,0.272572688354131,0.00430624049302031,,
0.0011875,0.256075534839357,0.00406891481184202,,
0.00121875,0.229835853656459,0.00374560960599668,,
0.00125,0.19464898428819,0.00324428672882737,,
0.00128125,0.152172414395896,0.00265495698284779,,
0.0013125,0.103802941016953,0.00190831610012809,,
0.00134375,0.0515368241194408,0.00112331018758693,,
0.001375,-0.00196383052061477,0.000315079947590835,,
0.00140625,-0.056426386947181,-0.000559812692129125,,
0.0014375,-0.109396830206405,-0.00139019740245239,,
0.00146875,-0.157791426882241,-0.00216864956218732,,
0.0015,-0.199933572299739,-0.00284811184497125,,
0.00153125,-0.234097715057438,-0.00345078554201139,,
0.0015625,-0.259302141598577,-0.00386951170315974,,
0.00159375,-0.274528876551604,-0.00414379427616574,,
0.001625,-0.279193651986085,-0.00430001331585839,,
0.00165625,-0.272978717586801,-0.00427664969628205,,
0.0016875,-0.256396176238695,-0.00407041190950874,,
0.00171875,-0.229968888349021,-0.00372925390177103,,
0.00175,-0.194456872868946,-0.00321594253804358,,
0.00178125,-0.151901817886801,-0.00263768827144428,,
0.0018125,-0.103351281960487,-0.00189457534210113,,
0.00184375,-0.0509392885781559,-0.00112690134915283,,
0.001875,0.00261492955839923,-0.000321003959548261,,
0.00190625,0.0565987986536961,0.000550787967333211,,
0.0019375,0.1094349969991,0.00139148614719975,,
0.00196875,0.157692636969032,0.00215321271774993,,
0.002,0.199523710699745,0.0028402857347265,,
0.00203125,0.233805894853288,0.00343148831594275,,
0.0020625,0.258782642917046,0.00386421860257302,,
0.00209375,0.273854738486874,0.00418213472502504,,
0.002125,0.278524399629403,0.00430385028704983,,
0.00215625,0.272667578665503,0.00427463639840298,,
0.0021875,0.255722934634157,0.00409396164208697,,
0.00221875,0.22975788403122,0.00373808549043408,,
0.00225,0.194842395574714,0.00323753983988784,,
0.00228125,0.15223140147656,0.00262371575005771,,
0.0023125,0.103873985487206,0.00188552135425502,,
0.00234375,0.0515153090748217,0.00111785789600471,,
0.002375,-0.00198859523343151,0.000291022208454894,,
0.00240625,-0.0564366065933751,-0.000563541975294068,,
0.0024375,-0.109423948127227,-0.00140402712015231,,
0.00246875,-0.15773566705827,-0.00214067174479693,,
0.0025,-0.199735051190118,-0.00285304910686346,,
0.00253125,-0.233892470496374,-0.00342894477158717,,
0.0025625,-0.259251895004789,-0.0038741153662758,,
0.00259375,-0.274391942257206,-0.00417153330706332,,
0.002625,-0.278860527378567,-0.00429854899280757,,
0.00265625,-0.273031922499223,-0.00425798689314982,,
0.0026875,-0.256354266724697,-0.00408009563820411,,
0.00271875,-0.229803850027589,-0.00373760674692614,,
0.00275,-0.194579463800265,-0.00325108395021401,,
0.00278125,-0.151833686912174,-0.00264599195467419,,
0.0028125,-0.10334254147361,-0.00191994640694659,,
0.00284375,-0.0508727712318753,-0.00112224969463393,,
0.002875,0.00261239705835552,-0.000297716423903527,,
0.00290625,0.0566867638100813,0.000541475294119742,,
0.0029375,0.109465947287244,0.00135111250158726,,
0.00296875,0.157859468210849,0.00215168167494406,,
0.003,0.199568713001407,0.00287155506004533,,
0.00303125,0.233736508834391,0.00342260405378969,,
0.0030625,0.258955502853657,0.00389296662345417,,
0.00309375,0.273972779882716,0.00417499922277376,,
0.003125,0.278712387331763,0.00432245690512501,,
0.00315625,0.272589788332302,0.0042765888291374,,
0.0031875,0.255954983354975,0.00407667537285361,,
0.00321875,0.22980488095681,0.00373216030795431,,
0.00325,0.194711288271566,0.00324468470631523,,
0.00328125,0.152073310721619,0.00263050945987819,,
0.0033125,0.103727167719186,0.00189953484391259,,
0.00334375,0.0515595942083293,0.00113880321708182,,
0.003375,-0.00199899417166406,0.000309229678520317,,
0.00340625,-0.056467534470015,-0.000544677842373886,,
0.0034375,-0.109348376533003,-0.00137296848879798,,
0.00346875,-0.157638445950398,-0.00217795287122469,,
0.0035,-0.199903361591253,-0.00284804512521575,,
0.00353125,-0.234169521518855,-0.00339601096395192,,
0.0035625,-0.259369017528934,-0.00385982680394292,,
0.00359375,-0.274484456949068,-0.00416777593137008,,
0.003625,-0.278996206628696,-0.00429765471398236,,
0.00365625,-0.273113724491785,-0.00430865176838724,,
0.0036875,-0.256240461103265,-0.00405117672110711,,
0.00371875,-0.229795109540712,-0.00373829150230964,,
0.00375,-0.194620611323099,-0.00326905263378663,,
0.00378125,-0.151914592444544,-0.00262783247601162,,
0.0038125,-0.103310672313768,-0.00191574072131839,,
0.00384375,-0.050902175126188,-0.00111479112830448,,
0.003875,0.00259397480140045,-0.00030773375137505,,
0.00390625,0.0566692604248235,0.000540486203010282,,
0.0039375,0.109331366200851,0.00138881033385552,,
0.00396875,0.157702117035568,0.00214568860218689,,
0.004,0.199835723669732,0.00282163229577037,,
0.00403125,0.233718288280979,0.00343190736282706,,
0.0040625,0.258736206279076,0.00388127310844588,,
0.00409375,0.273991538312243,0.00417616038062008,,
0.004125,0.278598178303243,0.00431114732133997,,
0.00415625,0.272354848527362,0.00428788904874589,,
0.0041875,0.256013432559524,0.00408973605758467,,
0.00421875,0.229667363963286,0.00372792535927546,,
0.00425,0.194793224733157,0.00323524795776686,,
0.00428125,0.152233597804031,0.00263519857110195,,
0.0043125,0.103792923074303,0.00191405165803982,,
0.00434375,0.0515603113764832,0.00110314209313334,,
0.004375,-0.00197331058715005,0.000310856704132334,,
0.00440625,-0.0564336930977496,-0.000544012985864928,,
0.0044375,-0.109480425119352,-0.00137990266126131,,
0.00446875,-0.157635891038849,-0.00218031147310072,,
0.0045,-0.199804437209015,-0.00285543580126824,,
0.00453125,-0.23407732058806,-0.00342858308028182,,
0.0045625,-0.25913531035676,-0.00384941032846164,,
0.00459375,-0.274416550089489,-0.00416091667231644,,
0.004625,-0.27901825954943,-0.00431489182129097,,
0.00465625,-0.27290148754122,-0.00428389873916979,,
0.0046875,-0.256484836151729,-0.00409836046384848,,
0.00471875,-0.229988162243159,-0.0037430192407597,,
0.00475,-0.194473457382507,-0.0032378137420408,,
0.00478125,-0.151816205938421,-0.00260518287486944,,
0.0048125,-0.103371317845788,-0.00189585940476045,,
0.00484375,-0.0508804359665208,-0.00109727777779822,,
0.004875,0.00262550778867027,-0.00032883241083681,,
0.00490625,0.0565809366843613,0.000565380865392484,,
0.0049375,0.109453038260473,0.0013708428208048,,
0.00496875,0.157752542921393,0.00215422170773394,,
0.005,0.199530635854732,0.00284165524549307,,
0.00503125,0.233910085939156,0.00341694340928678,,
0.0050625,0.258498330567007,0.00386488345908198,,
0.00509375,0.27408770607939,0.00419331321034333,,
0.005125,0.278582333369341,0.0043140010540319,,
0.00515625,0.272665046165459,0.00428651017380322,,
0.0051875,0.25628263955532,0.00408427674287015,,
0.00521875,0.229763711022471,0.00372622342025419,,
0.00525,0.194882646637355,0.00323866354102975,,
0.00528125,0.152154911010638,0.00264700445622434,,
0.0053125,0.103707131833884,0.0019048232624117,,
0.00534375,0.0515417546504993,0.00110720380455254,,
0.005375,-0.00191376321886583,0.000272471775436767,,
0.00540625,-0.056467534470015,-0.00057701234273333,,
0.0054375,-0.109430850870709,-0.0013827283014245,,
0.00546875,-0.157821458298689,-0.00215067970809235,,
0.0055,-0.199816808359671,-0.00285812917244277,,
0.00553125,-0.234033080277562,-0.00342772625816101,,
0.0055625,-0.25917923690619,-0.0038496666727843,,
0.00559375,-0.274610857836205,-0.00417327504383369,,
0.005625,-0.278884911095801,-0.00429168154009973,,
0.00565625,-0.272848148159769,-0.00428765728538494,,
0.0056875,-0.256274481767568,-0.00408450031257601,,
0.00571875,-0.229786727637913,-0.00370707133891601,,
0.00575,-0.19456341716282,-0.00326006302465132,,
0.00578125,-0.151730593990041,-0.00262251479446185,,
0.0058125,-0.103269524790934,-0.00189114103048604,,
0.00584375,-0.0508769845947798,-0.00109109390995155,,
0.005875,0.00262331146119874,-0.000288127507491964,,
0.00590625,0.0566374136764863,0.00054373089005777,,
0.0059375,0.109270339673249,0.00137463765320289,,
0.00596875,0.157838154869773,0.00216943381194268,,
0.006,0.199660129529533,0.00284991444888671,,
0.00603125,0.233764904210987,0.00342938605838983,,
0.0060625,0.258840016369363,0.00389295491823427,,
0.00609375,0.273955859196583,0.0041827153039482,,
0.006125,0.27866393365836,0.00431756880515755,,
0.00615625,0.272523315809031,0.00427494073412893,,
0.0061875,0.255909801761275,0.0040758021634244,,
0.00621875,0.229789394606985,0.00372336968756271,,
0.00625,0.194841857698598,0.00324354461786491,,
0.00628125,0.152341778137756,0.00261097110627251,,
0.0063125,0.103850094823077,0.00191085613291753,,
0.00634375,0.0515353449601232,0.00113383083952856,,
0.006375,-0.00195291611777156,0.000292439710624759,,
0.00640625,-0.0563983725661666,-0.000554704534021511,,
0.0064375,-0.109311397550064,-0.00138559256881443,,
0.00646875,-0.157605456215315,-0.00215627246231742,,
0.0065,-0.199794217562821,-0.00285738589095796,,
0.00653125,-0.234063694393135,-0.00341641667437642,,
0.0065625,-0.259263907571368,-0.00385100926154447,,
0.00659375,-0.274315070795703,-0.00415752215845,,
0.006625,-0.279010415522746,-0.0043097637643088,,
0.00665625,-0.273033356835531,-0.00427575541745684,,
0.0066875,-0.256267579024086,-0.00408694553308164,,
0.00671875,-0.229790941000817,-0.00373264139250518,,
0.00675,-0.194524286675419,-0.00323462641057271,,
0.00678125,-0.151872996691614,-0.00261654981423343,,
0.0068125,-0.103288843508082,-0.00189342354843092,,
0.00684375,-0.0508680648158648,-0.00109532768810849,,
0.006875,0.00262239258950146,-0.00029802075962948,,
0.00690625,0.0566082787202314,0.000562042536583096,,
0.0069375,0.109343558059468,0.00138665189124554,,
0.00696875,0.157668948008446,0.00218049524505881,,
0.007,0.199691841808842,0.00286292597169258,,
0.00703125,0.233676580470525,0.0034235662228923,,
0.0070625,0.258861710706021,0.00390170574087678,,
0.00709375,0.274007764241727,0.00418213472502504,,
0.007125,0.27857650637809,0.0042890970274736,,
0.00715625,0.27261018280168,0.00429136081706583,,
0.0071875,0.256104131919496,0.00408949961213612,,
0.00721875,0.22977809920856,0.00375092845806879,,
0.00725,0.194764269068941,0.00323562018377022,,
0.00728125,0.152180415303113,0.0026226716444131,,
0.0073125,0.103769771989832,0.00191542116880683,,
0.00734375,0.0515779716422747,0.00112607730164926,,
0.007375,-0.00196929892778879,0.0002832019508201,,
0.00740625,-0.0564080095132356,-0.00055549346586492,,
0.0074375,-0.109420676047525,-0.0013831567124849,,
0.00746875,-0.157806352944446,-0.00216282738564555,,
0.0075,-0.199889152697202,-0.00287639282756524,,
0.00753125,-0.234023622622532,-0.0034232174073292,,
0.0075625,-0.25917686128668,-0.00388898450753228,,
0.00759375,-0.274383739646445,-0.00414045594735679,,
0.007625,-0.279283611766399,-0.00430668295034442,,
0.00765625,-0.27282062683186,-0.00426863162042546,,
0.0076875,-0.256209667695654,-0.00407056407737194,,
0.00771875,-0.229767229628727,-0.00373157621746456,,
0.00775,-0.19439456888557,-0.00322194497497685,,
0.00778125,-0.151750271291266,-0.00260857855925778,,
0.0078125,-0.103335100854013,-0.00190049233092671,,
0.00784375,-0.0508907004357245,-0.00111493393199114,,
0.007875,0.0026360636074365,-0.000288507927149517,,
0.00790625,0.0566658090530825,0.000548848412341485,,
0.0079375,0.109380895626484,0.00138122066905932,,
0.00796875,0.157683717190117,0.00213534821063721,,
0.008,0.199675078003243,0.00286710473531437,,
0.00803125,0.233826132442132,0.00342761622909116,,
0.0080625,0.258882643051515,0.00387271893350283,,
0.00809375,0.273888266098072,0.00418360021859732,,
0.008125,0.278507097947689,0.00430965373523895,,
0.00815625,0.272628963642712,0.0042809338068861,,
0.0081875,0.256281899975661,0.00408981331203817,,
0.00821875,0.229840941068052,0.00373308267930828,,
0.00825,0.194672292253194,0.00323945247287316,,
0.00828125,0.152229765436708,0.00262500098323848,,
0.0083125,0.10377833318467,0.00189673729627771,,
0.00834375,0.0515776130581977,0.00112345299127403,,
0.008375,-0.00198969339716728,0.000293419437557674,,
0.00840625,-0.056384298141145,-0.000555904319095024,,
0.0084375,-0.10938445905575,-0.00138846502985857,,
0.00846875,-0.157771973696065,-0.00214137522853264,,
0.0085,-0.199854370041735,-0.0028519921254766,,
0.00853125,-0.233997939038018,-0.00343531826400145,,
0.0085625,-0.259257901288079,-0.00388437030971822,,
0.00859375,-0.27434510221215,-0.00416955512484485,,
0.008625,-0.279097103223357,-0.00433635334257998,,
0.00865625,-0.272881989532034,-0.00427162698628214,,
0.0086875,-0.256220245925925,-0.0040673404597209,,
0.00871875,-0.229914383569319,-0.00375112510576825,,
0.00875,-0.194697662076641,-0.00325194896598857,,
0.00878125,-0.151716026511914,-0.00262844114746352,,
0.0088125,-0.103270466074136,-0.00192027883520129,,
0.00884375,-0.0508785982231263,-0.00112216424652622,,
0.008875,0.0026617471919505,-0.000302549509335837,,
0.00890625,0.0566381308446403,0.000543207666713563,,
0.0089375,0.10930769965177,0.00138267679845594,,
0.00896875,0.157739432191079,0.00214379469755421,,
0.009,0.199857014599302,0.00282638695622728,,
0.00903125,0.233755267263918,0.00341401476318559,,
0.0090625,0.258745484642068,0.0038748422604522,,
0.00909375,0.274020314684421,0.00416348128606847,,
0.009125,0.278649186888194,0.00429223636753884,,
0.00915625,0.272645368864234,0.00426721762982218,,
0.0091875,0.256021993754362,0.00408732010012924,,
0.00921875,0.229917610826012,0.00371935479702401,,
0.00925,0.194565927251359,0.00323704587959428,,
0.00928125,0.152254530149525,0.00261628761730037,,
0.0093125,0.10375993333922,0.00190519548841506,,
0.00934375,0.051466519228847,0.00110857331531911,,
0.009375,-0.00196109631702777,0.000279436381472653,,
0.00940625,-0.0564841189835755,-0.000559470899698766,,
0.0094375,-0.10936657467491,-0.00138209153744384,,
0.00946875,-0.15769286108408,-0.00216422615946277,,
0.0095,-0.199852173714263,-0.00284230839678168,,
0.00953125,-0.233989198551141,-0.00344206164137528,,
0.0095625,-0.259313974873117,-0.00386937826364919,,
0.00959375,-0.274211439997454,-0.00417112362435557,,
0.009625,-0.279220949198946,-0.00430643479967596,,
0.00965625,-0.272957964533345,-0.00426482625332936,,
0.0096875,-0.256218766766607,-0.00409312003675222,,
0.00971875,-0.229920927728724,-0.00373625596451177,,
0.00975,-0.194644995040334,-0.00323462641057271,,
0.00978125,-0.151813471734834,-0.00261425793211245,,
0.0098125,-0.103281178773436,-0.00187861176275339,,
0.00984375,-0.0508644341520854,-0.00114757159755463,,
0.009875,0.0026788471701217,-0.000308275703071459,,
0.00990625,0.0566658090530825,0.00055263388056348,,
0.0099375,0.109412428613754,0.0013795468225668,,
0.00996875,0.157617603250923,0.00218403490365571,,
0.01,0.199533370058319,0.00284596510758162,,
0.01003125,0.233921022753504,0.00342706374269675,,
0.0100625,0.258691226388919,0.0038710357228342,,
0.01009375,0.274036899197982,0.00415947341866252,,
0.010125,0.278390356419126,0.00429566131497783,,
0.01015625,0.27254953726966,0.00429155980580953,,
0.0101875,0.255956059107206,0.00407038732854659,,
0.01021875,0.229708152902043,0.00371238316785583,,
0.01025,0.194709988404287,0.0032431817560381,,
0.01028125,0.152186063002326,0.00261208310219452,,
0.0103125,0.103759395463105,0.00189115390622874,,
0.01034375,0.051547379938207,0.00114718649580947,,
0.010375,-0.00196947821982728,0.00030897333419766,,
0.01040625,-0.0564799504436806,-0.000547608829518875,,
0.0104375,-0.109375315161786,-0.00140671112715074,,
0.01046875,-0.157715631172969,-0.00214578926708064,,
0.0105,-0.199900448095627,-0.0028354397735515,,
0.01053125,-0.234347110282981,-0.00343352034217448,,
0.0105625,-0.259321863722811,-0.00388386698524812,,
0.01059375,-0.27446043181591,-0.00416973538523635,,
0.010625,-0.279155776542954,-0.0042926893595614,,
0.01065625,-0.272863970682166,-0.0042721221170976,,
0.0106875,-0.256333692963281,-0.00408196145030848,,
0.01071875,-0.229857772108165,-0.00375149499072736,,
0.01075,-0.19444683251479,-0.0032302591929052,,
0.01078125,-0.151786353814012,-0.00262130681573414,,
0.0108125,-0.103256795056201,-0.00193079012296637,,
0.01084375,-0.0509178183565464,-0.00110658108683603,,
0.010875,0.00263241053215222,-0.000286120062222839,,
0.01090625,0.0566448767075886,0.000560909471265081,,
0.0109375,0.109358506533178,0.00139453886863539,,
0.01096875,0.15770958006667,0.00215124389970756,,
0.011,0.19960403353299,0.0028480392726058,,
0.01103125,0.233674025558977,0.00342355451767196,,
0.0110625,0.258995216040183,0.00388584048537899,,
0.01109375,0.274038512826328,0.00417243343849938,,
0.011125,0.278438070512869,0.00432156262629935,,
0.01115625,0.272654647227226,0.00427213616336219,,
0.0111875,0.256207045549591,0.00406394711637681,,
0.01121875,0.22998919317238,0.00373214157960167,,
0.01125,0.194814919069815,0.00323822576579325,,
0.01128125,0.152285883844756,0.00261543079517956,,
0.0113125,0.103744827984977,0.0019001552205844,,
0.01134375,0.0514914632337022,0.00114821187310143,,
0.011375,-0.00200318512306381,0.000277304860869076,,
0.01140625,-0.056417467168266,-0.00053848578087301,,
0.0114375,-0.109452365915328,-0.00139834891781954,,
0.01146875,-0.157651713561246,-0.00216894453373673,,
0.0115,-0.199811160660458,-0.00284649418353533,,
0.01153125,-0.234015778595848,-0.00343469086419734,,
0.0115625,-0.259416350627096,-0.00386321312415516,,
0.01159375,-0.274464958939882,-0.00417167728127232,,
0.011625,-0.279128613799122,-0.00431115317394992,,
0.01165625,-0.273111707456352,-0.0042803883436231,,
0.0116875,-0.256447722699762,-0.0040713167230324,,
0.01171875,-0.229826978700554,-0.00375839170648629,,
0.01175,-0.194440646939463,-0.00322592123828835,,
0.01178125,-0.151786891690128,-0.00262866003508178,,
0.0118125,-0.103331425367224,-0.00192894538025845,,
0.01184375,-0.0508534973377373,-0.00112330550549888,,
0.011875,0.00265773553258924,-0.000307552320461202,,
0.01190625,0.0566862259339658,0.000552615152211278,,
0.0119375,0.109428632131733,0.00140256630866809,,
0.01196875,0.157717961969469,0.00217148690757085,,
0.012,0.199511518841128,0.00283865168598263,,
0.01203125,0.233727208059894,0.00342290838951564,,
0.0120625,0.258804516545742,0.00388846479575422,,
0.01209375,0.273796468574364,0.00418038596512282,,
0.012125,0.278333722546467,0.00431828282359126,,
