Time domain (s),Current (AC) (A),Potential (AC) (V),Frequency (Hz),Column 5
0,-0.307250069859506,-0.0100300774182069,0.039811,0.4
0.0613249164803698,-0.310399779072973,-0.0101845688216562,,
0.12264983296074,-0.313596978696423,-0.0103340734875532,,
0.183974749441109,-0.316509704322716,-0.0104611479866183,,
0.245299665921479,-0.319840708615475,-0.0106076455847974,,
0.306624582401849,-0.322924598814368,-0.0107473209361628,,
0.367949498882219,-0.32595367887301,-0.0108884622584209,,
0.429274415362588,-0.328584975509939,-0.0110141235777887,,
0.490599331842958,-0.331336608512483,-0.01113187027868,,
0.551924248323328,-0.333822037564621,-0.0112828023372886,,
0.613249164803698,-0.336666016284233,-0.0113849269051478,,
0.674574081284067,-0.339080239000319,-0.0114811063722122,,
0.735898997764437,-0.341437309262469,-0.0116280587868456,,
0.797223914244807,-0.343612557424748,-0.0117488287988996,,
0.858548830725177,-0.346127558187171,-0.0118598182267564,,
0.919873747205546,-0.348271770693112,-0.0119262214290798,,
0.981198663685916,-0.350552188739889,-0.0120655759724104,,
1.04252358016629,-0.352517389922383,-0.0121605189072396,,
1.10384849664666,-0.354367290713687,-0.0122534801418039,,
1.16517341312703,-0.355809453250112,-0.0123491540316487,,
1.2264983296074,-0.357832568138491,-0.0124659586127422,,
1.28782324608776,-0.359600312277261,-0.0125741094986207,,
1.34914816256813,-0.361370925750296,-0.0126448009703704,,
1.4104730790485,-0.362452606210457,-0.0127368200851361,,
1.47179799552887,-0.363901034435993,-0.0128123033731007,,
1.53312291200924,-0.365409718681099,-0.0128622032355121,,
1.59444782848961,-0.366706189306261,-0.0129817387457614,,
1.65577274496998,-0.36770167262278,-0.013013072350772,,
1.71709766145035,-0.368966287781813,-0.0130936723238468,,
1.77842257793072,-0.370137151835566,-0.0131597506572745,,
1.83974749441109,-0.370547583751183,-0.0132555057643438,,
1.90107241089146,-0.371680560881066,-0.0132827785081551,,
1.96239732737183,-0.372389754907323,-0.0133701986976136,,
2.0237222438522,-0.372620765594598,-0.0134113616171554,,
2.08504716033257,-0.373386702169896,-0.0134544859326566,,
2.14637207681294,-0.373982528213754,-0.013509000963821,,
2.20769699329331,-0.374126580505439,-0.0135601840583712,,
2.26902190977368,-0.374416617497599,-0.0136322074925941,,
2.33034682625405,-0.375081834584402,-0.0136361891669994,,
2.39167174273442,-0.375151108511663,-0.0136856484259709,,
2.45299665921479,-0.375065614062127,-0.0136951183542866,,
2.51432157569516,-0.375010862479718,-0.0137454243028183,,
2.57564649217553,-0.375130788940438,-0.0137780573834121,,
2.6369714086559,-0.374439337940352,-0.0137617327213926,,
2.69829632513627,-0.374238835888837,-0.0138170254074765,,
2.75962124161664,-0.374064274961393,-0.0138493478321888,,
2.82094615809701,-0.373205875553342,-0.0138560746487646,,
2.88227107457738,-0.372775768202764,-0.0138698653333957,,
2.94359599105775,-0.372353039140296,-0.0138610613863168,,
3.00492090753812,-0.371243953610009,-0.0138846773246186,,
3.06624582401849,-0.370526678601536,-0.0138801311905064,,
3.12757074049886,-0.369488623733775,-0.0138684521536985,,
3.18889565697923,-0.368445825680799,-0.0138634491727014,,
3.2502205734596,-0.367501404802633,-0.0138251146429846,,
3.31154548993997,-0.366170033703552,-0.0138140203701891,,
3.37287040642034,-0.364841004918156,-0.013779892892674,,
3.43419532290071,-0.363678748867199,-0.01379966116499,,
3.49552023938108,-0.362166316920195,-0.0137994987305423,,
3.55684515586145,-0.36080923892841,-0.0137780736268569,,
3.61817007234182,-0.359030895820211,-0.0137296864352421,,
3.67949498882219,-0.356990974831137,-0.013691512309542,,
3.74081990530255,-0.355184582516549,-0.0136248654555464,,
3.80214482178292,-0.353954165137331,-0.0136331171255026,,
3.86346973826329,-0.351642769992057,-0.0135546125568062,,
3.92479465474366,-0.349711063895272,-0.0135222698277881,,
3.98611957122403,-0.347276697281487,-0.0134794521073074,,
4.0474444877044,-0.34513857479113,-0.0134102245760199,,
4.10876940418477,-0.342960281621059,-0.0133599348709335,,
4.17009432066514,-0.340643499154308,-0.0133121628997901,,
4.23141923714551,-0.338250357261395,-0.0132579585245076,,
4.29274415362588,-0.335682244536143,-0.0131854315434961,,
4.35406907010625,-0.332844999968379,-0.0131351580818544,,
4.41539398658662,-0.330434583512032,-0.013015508867491,,
4.47671890306699,-0.327497029360668,-0.0129838341501403,,
4.53804381954736,-0.324742000003279,-0.0128907104811282,,
4.59936873602773,-0.321800522476491,-0.0128002344936173,,
4.6606936525081,-0.318985822677953,-0.0127205928837855,,
4.72201856898847,-0.315736038112254,-0.01263612900128,,
4.78334348546884,-0.312727277624838,-0.0125456530137695,,
4.84466840194921,-0.309241504955282,-0.0124663179989581,,
4.90599331842958,-0.306055489879682,-0.0123738278242929,,
4.96731823490995,-0.302899924882,-0.0122729397886685,,
5.02864315139032,-0.299439624873779,-0.0121815541682495,,
5.08996806787069,-0.295771561641615,-0.012094651738594,,
5.15129298435106,-0.29200558969738,-0.0119928215831715,,
5.21261790083143,-0.288497506489966,-0.0118742748926239,,
5.2739428173118,-0.284749101898375,-0.011741178136401,,
5.33526773379217,-0.281154528758108,-0.0116219350081579,,
5.39659265027254,-0.277245031542767,-0.0115120501345474,,
5.45791756675291,-0.273135442180806,-0.0114077631580995,,
5.51924248323328,-0.269330646387227,-0.0112840875998579,,
5.58056739971365,-0.265238273030858,-0.0111394397239546,,
5.64189231619402,-0.261232272491657,-0.0110155834573895,,
5.70321723267439,-0.257024774417625,-0.0109071117634767,,
5.76454214915476,-0.252681597823335,-0.0107801509685248,,
5.82586706563513,-0.248602517097133,-0.010623011883574,,
5.8871919821155,-0.244126355643325,-0.0105263146567069,,
5.94851689859587,-0.239873885146522,-0.0103389607340061,,
6.00984181507624,-0.235447380742855,-0.01017831509541,,
6.07116673155661,-0.230947093458082,-0.0100433990733699,,
6.13249164803698,-0.226313587082421,-0.00992711022164894,,
6.19381656451734,-0.221703562401462,-0.00976602194918197,,
6.25514148099771,-0.217006579324912,-0.00961379041498978,,
6.31646639747808,-0.212313988086524,-0.0094717577336989,,
6.37779131395845,-0.207683995181392,-0.0093310752887561,,
6.43911623043882,-0.202734393573816,-0.00914344522749388,,
6.50044114691919,-0.197757913916693,-0.00897735600446081,,
6.56176606339956,-0.193055777750034,-0.00882521990050655,,
6.62309097987993,-0.187782468391062,-0.0086548241341724,,
6.6844158963603,-0.182907645147909,-0.00845831296946775,,
6.74574081284067,-0.177970047897973,-0.0083044550603657,,
6.80706572932104,-0.17275722878994,-0.00814164701318099,,
6.86839064580141,-0.167734371321836,-0.00797164311995235,,
6.92971556228178,-0.162703081524462,-0.00779808191231313,,
6.99104047876215,-0.157415074147111,-0.00762798055841563,,
7.05236539524252,-0.152085607817519,-0.00747532466422829,,
7.11369031172289,-0.146856216840158,-0.00728518092988351,,
7.17501522820326,-0.14154894393274,-0.00708567691047568,,
7.23634014468363,-0.136117118495073,-0.0069089807179914,,
7.297665061164,-0.130872736710122,-0.00672676175427611,,
7.35898997764437,-0.125396758659475,-0.00653216528562695,,
7.42031489412474,-0.120054760951663,-0.00634239312008233,,
7.48163981060511,-0.114534571730195,-0.00615911833245564,,
7.54296472708548,-0.108965486710532,-0.00597395930523259,,
7.60428964356585,-0.103496886947996,-0.00579209769730316,,
7.66561456004622,-0.0979392207075521,-0.00556520722996989,,
7.72693947652659,-0.0923530953558244,-0.00538514864441275,,
7.78826439300696,-0.0868608967829024,-0.00518558371208711,,
7.84958930948733,-0.0812027452853325,-0.00498275181692653,,
7.9109142259677,-0.075520292283271,-0.00478393205263083,,
7.97223914244807,-0.0699081086917874,-0.00460273642593778,,
8.03356405892844,-0.064236371774839,-0.00435042699793042,,
8.09488897540881,-0.0585258695663885,-0.00417394400065874,,
8.15621389188918,-0.0528487453279626,-0.00395401994071243,,
8.21753880836955,-0.0471298107902428,-0.00378863121623629,,
8.27886372484992,-0.0413953584243537,-0.00355836617324679,,
8.34018864133029,-0.0356885453599586,-0.00337232796957432,,
8.40151355781066,-0.0299391021864796,-0.00316644230679231,,
8.46283847429103,-0.0241655917398776,-0.00296458704875047,,
8.5241633907714,-0.018392608313855,-0.00278027065022624,,
8.58548830725177,-0.0126992049953119,-0.00252609525649827,,
8.64681322373213,-0.00687597894072611,-0.00235011174515387,,
8.7081381402125,-0.00111529266155464,-0.0021663821410729,,
8.76946305669287,0.00465643177086176,-0.00191350419249803,,
8.83078797317324,0.0104617976835923,-0.00171036164145555,,
8.89211288965361,0.0162143151437841,-0.00152528586188749,,
8.95343780613398,0.0219691749176618,-0.00130680949895856,,
9.01476272261435,0.0277535185650612,-0.0010572959738866,,
9.07608763909472,0.0333855825439541,-0.000829952720529992,,
9.13741255557509,0.0392717875577702,-0.000642438393811506,,
9.19873747205546,0.0448994596985021,-0.000424987398335297,,
9.26006238853583,0.0506083808452145,-0.000213790129105274,,
9.3213873050162,0.0563008765172044,-2.77214689736738E-05,,
9.38271222149657,0.0620566439376354,0.000206667378563008,,
9.44403713797694,0.0676463998755763,0.000436906025954364,,
9.50536205445731,0.0733784806488584,0.000627214225177308,,
9.56668697093768,0.0789927723226593,0.000849846879543481,,
9.62801188741805,0.0846506310310186,0.00105305237393427,,
9.68933680389842,0.0902745261909318,0.00125094626187661,,
9.75066172037879,0.0957377386319904,0.00148207423787072,,
9.81198663685916,0.101256698138774,0.00166506070435224,,
9.87331155333953,0.106888791396588,0.00187178696540258,,
9.9346364698199,0.112370039653028,0.0020932338482984,,
9.99596138630027,0.11777118078141,0.00229096530179307,,
10.0572863027806,0.123260158673014,0.00251034520633864,,
10.118611219261,0.128650290927071,0.00272492517294731,,
10.1799361357414,0.13411022412897,0.00290171882610091,,
10.2412610522217,0.139478807097117,0.0031107435345894,,
10.3025859687021,0.144817408450084,0.00334034056591159,,
10.3639108851825,0.150112237816045,0.0035324030571724,,
10.4252358016629,0.155378900859934,0.00373400451138961,,
10.4865607181432,0.160518171318228,0.00395653970508691,,
10.5478856346236,0.165660018321578,0.00413791400967245,,
10.609210551104,0.17093769023979,0.00434233370156178,,
10.6705354675843,0.175950505037965,0.00456818255799707,,
10.7318603840647,0.181045739998965,0.00474307166724808,,
10.7931853005451,0.186082885580553,0.0049499847279133,,
10.8545102170254,0.190915810687649,0.00514529590813373,,
10.9158351335058,0.195980361339363,0.00534796536884574,,
10.9771600499862,0.200833840249054,0.00556276868282035,,
11.0384849664666,0.205628790595517,0.00572344883873699,,
11.0998098829469,0.210577396719777,0.00592193155155307,,
11.1611347994273,0.215166457693247,0.00614036933630091,,
11.2224597159077,0.219856940849318,0.00632171115399682,,
11.283784632388,0.22438088550232,0.00651575534552284,,
11.3451095488684,0.229069963270179,0.00669131043601068,,
11.4064344653488,0.233436006701828,0.00686282903046687,,
11.4677593818291,0.238047817396973,0.00704391501390722,,
11.5290842983095,0.242355800728132,0.00721945386095024,,
11.5904092147899,0.246582037311652,0.00738872679916325,,
11.6517341312703,0.250975749323715,0.00758207252256282,,
11.7130590477506,0.255227985589149,0.0077525637191358,,
11.774383964231,0.259407610130319,0.00794249831912852,,
11.8357088807114,0.263475506308671,0.00808864059195313,,
11.8970337971917,0.267500772377938,0.00826707889389189,,
11.9583587136721,0.271722792796823,0.00842351544985531,,
12.0196836301525,0.275475413553049,0.00859361680375281,,
12.0810085466328,0.279392933192763,0.00874295903520217,,
12.1423334631132,0.283382361862636,0.00891840042157588,,
12.2036583795936,0.286907309728589,0.00907294867708197,,
12.264983296074,0.290506743169755,0.00923526536006136,,
12.3263082125543,0.294049024156984,0.00938023810486044,,
12.3876331290347,0.297698583111028,0.00953786449315519,,
12.4489580455151,0.301166612754413,0.00968519253744971,,
12.5102829619954,0.304657362840552,0.00984603512781401,,
12.5716078784758,0.30777193734873,0.00999000077903567,,
12.6329327949562,0.310889088401964,0.0101330243104596,,
12.6942577114365,0.313949789695366,0.0102690834649271,,
12.7555826279169,0.31704515723132,0.0103919651248043,,
12.8169075443973,0.320066741886167,0.0105252060416001,,
12.8782324608776,0.3231272089482,0.0107051509230436,,
12.939557377358,0.326030740993277,0.0107998786322292,,
13.0008822938384,0.32879326575446,0.0109520025535996,,
13.0622072103188,0.331647609212132,0.0110555342098646,,
13.1235321267991,0.334373125417078,0.0111922634064299,,
13.1848570432795,0.33663322389263,0.0113436157641722,,
13.2461819597599,0.339175571167337,0.0114032941803508,,
13.3075068762402,0.341487669006716,0.0115341351281777,,
13.3688317927206,0.343913369059863,0.011661711143601,,
13.430156709201,0.345896840289107,0.0117709807967397,,
13.4914816256813,0.348497511174593,0.0118914218790369,,
13.5528065421617,0.350357542472588,0.0119852968073708,,
13.6141314586421,0.352428147770949,0.0120854538879791,,
13.6754563751225,0.354282089053361,0.0121950605925973,,
13.7367812916028,0.355884934308642,0.0122672220961011,,
13.7981062080832,0.357772604908131,0.0123793993258583,,
13.8594311245636,0.359314784238946,0.0124633738745894,,
13.9207560410439,0.361172004760518,0.012518179257329,,
13.9820809575243,0.362247360973728,0.0126194408921836,,
14.0434058740047,0.363973880391625,0.0127037118837823,,
14.104730790485,0.365435015668907,0.0127669313709262,,
14.1660557069654,0.366423472044369,0.0128487008720262,,
14.2273806234458,0.368034281166182,0.0129348561032212,,
14.2887055399262,0.368656633912533,0.0129996796305387,,
14.3500304564065,0.369832943845606,0.0130470170895336,,
14.4113553728869,0.370456233517431,0.0131396372117569,,
14.4726802893673,0.371210926987037,0.0131935126572822,,
14.5340052058476,0.372027457537952,0.0132414633063185,,
14.595330122328,0.372564550066135,0.0132886180265595,,
14.6566550388084,0.372932527546195,0.0133541034742519,,
14.7179799552887,0.373558159531706,0.0134112438521812,,
14.7793048717691,0.374144674878662,0.0134560107860375,,
14.8406297882495,0.37440139245864,0.0135054883188843,,
14.9019547047299,0.374639605760499,0.0135150272818403,,
14.9632796212102,0.374433482156137,0.0135595627466083,,
15.0246045376906,0.374589714478989,0.0135949084824829,,
15.085929454171,0.374519210837042,0.0136020921459439,,
15.1472543706513,0.374323627644267,0.0136456245779955,,
15.2085792871317,0.373864065699088,0.013690679832997,,
15.2699042036121,0.374032712284475,0.0136740303020817,,
15.3312291200924,0.373470322768484,0.013699386319407,,
15.3925540365728,0.372869050845306,0.0137109354086569,,
15.4538789530532,0.372446028993627,0.0136910859191168,,
15.5152038695335,0.371713821735406,0.0137407746167457,,
15.5765287860139,0.370751365041858,0.0137058187235461,,
15.6378537024943,0.369982851921505,0.0137114227120008,,
15.6991786189747,0.368950828511485,0.0137280559994712,,
15.760503535455,0.368023038060489,0.013711406468556,,
15.8218284519354,0.366555110073518,0.0136864727807948,,
15.8831533684158,0.365538780165194,0.013709570959294,,
15.9444782848961,0.364410253431314,0.0136976645142588,,
16.0058032013765,0.363036954917254,0.0136710902385735,,
16.0671281178569,0.361391713784258,0.013648186981412,,
16.1284530343372,0.359824940159741,0.0136039398377892,,
16.1897779508176,0.358209914873294,0.0135807604420664,,
16.251102867298,0.356633069299927,0.0135402655341914,,
16.3124277837784,0.354882189819696,0.013507957322493,,
16.3737527002587,0.352893799731711,0.0134760876838045,,
16.4350776167391,0.350948039752811,0.0134149839053452,,
16.4964025332195,0.348919830332166,0.0133814574352877,,
16.5577274496998,0.346614056739738,0.0133292510037153,,
16.6190523661802,0.344535721806214,0.0132762242781803,,
16.6803772826606,0.342305604945842,0.013230758876198,,
16.7417021991409,0.339582196823214,0.0131860934638719,,
16.8030271156213,0.337366602307694,0.0131077635122074,,
16.8643520321017,0.334749300995038,0.0130529297034392,,
16.9256769485821,0.332186341359896,0.0129697307791972,,
16.9870018650624,0.329710984256607,0.0129116604640531,,
17.0483267815428,0.326847740006929,0.0128240433228268,,
17.1096516980232,0.32389455091171,0.0127445966343323,,
17.1709766145035,0.321151701585489,0.0126873425522898,,
17.2323015309839,0.318181413600363,0.0126032461777226,,
17.2936264474643,0.314987200426863,0.0124821675402176,,
17.3549513639446,0.31206656949188,0.0124348178986389,,
17.416276280425,0.308651944600534,0.0123287319606802,,
17.4776011969054,0.305394020494776,0.0122330377665292,,
17.5389261133857,0.30204943078264,0.0121484946972301,,
17.6002510298661,0.298559851853344,0.0120623516486189,,
17.6615759463465,0.294929031408787,0.0119557621638715,,
17.7229008628269,0.291696872753575,0.0118476133084235,,
17.7842257793072,0.287747966110469,0.0117584733442473,,
17.8455506957876,0.284314134246898,0.0116268851979595,,
17.906875612268,0.280368272611584,0.0114927305873942,,
17.9682005287483,0.276658984658548,0.0114016048620922,,
18.0295254452287,0.272879193063566,0.0112855657533348,,
18.0908503617091,0.268676848079642,0.0111513705341575,,
18.1521752781894,0.26456585332947,0.0110406917621826,,
18.2135001946698,0.260574550808649,0.0109207136180625,,
18.2748251111502,0.256381809310837,0.0107559279314744,,
18.3361500276306,0.252286742293729,0.0106611799179825,,
18.3974749441109,0.248010145965962,0.0105049179790506,,
18.4587998605913,0.243414321561724,0.010373009024728,,
18.5201247770717,0.239326720669489,0.0102041584160797,,
18.581449693552,0.234610267110426,0.0101016704011432,,
18.6427746100324,0.230317948002042,0.00996159099408844,,
18.7040995265128,0.225573825862563,0.00981734920430544,,
18.7654244429931,0.221089466310854,0.00963514648403496,,
18.8267493594735,0.216322155265884,0.00950809025884514,,
18.8880742759539,0.21165720332899,0.00934127008079644,,
18.9493991924343,0.206802523983535,0.00920432565858764,,
19.0107241089146,0.202085338451445,0.00903568215386041,,
19.072049025395,0.197246821070423,0.0088715583876473,,
19.1333739418754,0.192344358525776,0.00870801532458598,,
19.1946988583557,0.187305778277055,0.00854006216626235,,
19.2560237748361,0.182459824050081,0.00838135152802755,,
19.3173486913165,0.177272038419566,0.00820916695233498,,
19.3786736077968,0.172183098426598,0.00803840367806208,,
19.4399985242772,0.167200353080365,0.0078764808986187,,
19.5013234407576,0.161862425142582,0.00768836962530406,,
19.562648357238,0.156773485149614,0.00754481006020225,,
19.6239732737183,0.151533319529298,0.00736463777053142,,
19.6852981901987,0.146286507593898,0.00715602320902375,,
19.7466231066791,0.140917690394382,0.00696664088615417,,
19.8079480231594,0.135417967138744,0.00682505896045615,,
19.8692729396398,0.130150074380171,0.00661139674847844,,
19.9305978561202,0.124679132303949,0.00645230845015199,,
19.9919227726005,0.119205613682672,0.0062238606425491,,
20.0532476890809,0.113750130876777,0.00604942228889138,,
20.1145726055613,0.108277080718238,0.00588138385248271,,
20.1758975220416,0.102777064673389,0.00569401571676753,,
20.237222438522,0.0971808380938907,0.00546709479297558,,
20.2985473550024,0.0916461850854113,0.00528230936498275,,
20.3598722714828,0.0860600011758415,0.00510275432621432,,
20.4211971879631,0.0803344203230379,0.0049118451195338,,
20.4825221044435,0.0748440663221435,0.00471387001436741,,
20.5438470209239,0.0691442801988062,0.00451189902178095,,
20.6051719374042,0.0634685906275129,0.0042968358126898,,
20.6664968538846,0.0577496560897931,0.00408807912104026,,
20.727821770365,0.0520704823268919,0.00392257060115853,,
20.7891466868453,0.0463355322193446,0.00369067918325916,,
20.8504716033257,0.0406799865457502,0.00349869790922197,,
20.9117965198061,0.0349429869137277,0.00329156150119081,,
20.9731214362865,0.0292174353398451,0.00308064037052214,,
21.0344463527668,0.0234157585711699,0.00284412363171738,,
21.0957712692472,0.0177037924166658,0.00267267001104043,,
21.1570961857276,0.0119571892985309,0.00244403946468363,,
21.2184211022079,0.00619483412085823,0.00226169461427173,,
21.2797460186883,0.000409787779353114,0.00204097868639153,,
