Time domain (s),Current (AC) (A),Potential (AC) (V),Frequency (Hz),Column 5
0,-0.434369353020396,-0.00859674342489258,125.89,0.5
0.000242414632814362,-0.398569592897903,-0.00812236669001365,,
0.000484829265628723,-0.348655330171054,-0.00738576464323071,,
0.000727243898443085,-0.285465857965044,-0.00639061268410224,,
0.000969658531257447,-0.212043970458422,-0.00514739950227616,,
0.00121207316407181,-0.130825101169126,-0.00368731353440621,,
0.00145448779688617,-0.0446546306650236,-0.00210686105575686,,
0.00169690242970053,0.0429003026319271,-0.000415810848991782,,
0.00193931706251489,0.129395421530479,0.00126209540581845,,
0.00218173169532926,0.210851358320467,0.00287436422205634,,
0.00242414632814362,0.284511169167132,0.00440445065221651,,
0.00266656096095798,0.34730752583048,0.00577003026579348,,
0.00290897559377234,0.397962660156962,0.00693585344682424,,
0.0031513902265867,0.433474002417604,0.00784728474329244,,
0.00339380485940106,0.453043910335708,0.00843070640243315,,
0.00363621949221543,0.456668675274081,0.00872793759497625,,
0.00387863412502979,0.443202898899055,0.00873586625664924,,
0.00412104875784415,0.41385017662028,0.0083875378096443,,
0.00436346339065851,0.36929803271774,0.00773578309609357,,
0.00460587802347287,0.311337453676803,0.00684438974873114,,
0.00484829265628724,0.241680118202826,0.00565013508425061,,
0.0050907072891016,0.163186526692239,0.00426282267328659,,
0.00533312192191596,0.0785585639814445,0.00271103895684677,,
0.00557553655473032,-0.00868712602940536,0.00107934879344906,,
0.00581795118754468,-0.0962323598136923,-0.000583319968243678,,
0.00606036582035904,-0.180238911834497,-0.00223057045300257,,
0.00630278045317341,-0.25716096833373,-0.0038057656736985,,
0.00654519508598777,-0.324591695091826,-0.00525234612198044,,
0.00678760971880213,-0.380115414215905,-0.00649239397287404,,
0.00703002435161649,-0.42196845475994,-0.00749019312360311,,
0.00727243898443085,-0.448168906742966,-0.0082109249339104,,
0.00751485361724521,-0.457855296536568,-0.00865656995507269,,
0.00775726825005958,-0.451045953366883,-0.0087693919697891,,
0.00799968288287394,-0.427312957557571,-0.00853694272097183,,
0.0082420975156883,-0.388169504404114,-0.00801837725605292,,
0.00848451214850266,-0.334972527200179,-0.00724375734111415,,
0.00872692678131702,-0.269203769145037,-0.00611535641012928,,
0.00896934141413138,-0.19383655878978,-0.00481566281287193,,
0.00921175604694575,-0.111107418322793,-0.00336200596948144,,
0.00945417067976011,-0.0243769436022549,-0.00173404770058472,,
0.00969658531257447,0.0631571642704472,-5.99379059242899E-05,,
0.00993899994538883,0.148751619230225,0.00159312348722684,,
0.0101814145782032,0.228622862478812,0.00322242794990135,,
0.0104238292110176,0.300025539672683,0.00471667076012894,,
0.0106662438438319,0.36041584663587,0.00603762905381888,,
0.0109086584766463,0.407531229399679,0.00714670871440015,,
0.0111510731094606,0.439132526937722,0.00797388829574608,,
0.011393487742275,0.455366658338874,0.00852966940063471,,
0.0116359023750894,0.455073961280259,0.00876375861693157,,
0.0118783170079037,0.437780300760492,0.00867572981135467,,
0.0121207316407181,0.404849314148173,0.00826568628894231,,
0.0123631462735324,0.357031001996031,0.00756144293119787,,
0.0126055609063468,0.296068138505903,0.00656399404911356,,
0.0128479755391612,0.224193037989354,0.00535280704323426,,
0.0130903901719755,0.144023713026224,0.00392482473009004,,
0.0133328048047899,0.0584178112151043,0.00236907345453075,,
0.0135752194376043,-0.0290594546605909,0.000681172437286381,,
0.0138176340704186,-0.11618996295856,-0.00096939672182117,,
0.014060048703233,-0.198565855732729,-0.00262908255053906,,
0.0143024633360473,-0.273721673767875,-0.00415833285554745,,
0.0145448779688617,-0.338661979329625,-0.0055678655345468,,
0.0147872926016761,-0.391183699284297,-0.00675877892670185,,
0.0150297072344904,-0.429141600974459,-0.0076965304099037,,
0.0152721218673048,-0.452030453902246,-0.00835034799593393,,
0.0155145365001192,-0.457917772809313,-0.00871474360464308,,
0.0157569511329335,-0.447084059043501,-0.00873920107240922,,
0.0159993657657479,-0.419675447174279,-0.00844657663890835,,
0.0162417803985622,-0.37699074473928,-0.00785884845099227,,
0.0164841950313766,-0.320406925937018,-0.00698940742422316,,
0.016726609664191,-0.252418191920976,-0.00580359471832326,,
0.0169690242970053,-0.175146739006012,-0.00448893480367385,,
0.0172114389298197,-0.0911831929126802,-0.00296930478033719,,
0.017453853562634,-0.00407671943653249,-0.00133064152686879,,
0.0176962681954484,0.0834028999973826,0.000349511612519393,,
0.0179386828282628,0.168035106244967,0.00200256009254085,,
0.0181810974610771,0.246209540996952,0.00358742724742722,,
0.0184235120938915,0.315188730763852,0.00506355293660077,,
0.0186659267267059,0.372442671779261,0.00632415849007328,,
0.0189083413595202,0.415984069406289,0.00736574767796139,,
0.0191507559923346,0.444708320320415,0.00815905289166308,,
0.0193931706251489,0.456860098009296,0.00863126990558971,,
0.0196355852579633,0.452243129981386,0.00877574200134923,,
0.0198779998907777,0.431745492204979,0.00862354785399289,,
0.020120414523592,0.394842269877101,0.00814864168079366,,
0.0203628291564064,0.343982875225112,0.00737803774921053,,
0.0206052437892207,0.280289598920159,0.00631057064928253,,
0.0208476584220351,0.206194736402549,0.00502114621846772,,
0.0210900730548495,0.124408730902212,0.00355365941310337,,
0.0213324876876638,0.0381523911830574,0.00197360885561793,,
0.0215749023204782,-0.0494329957308594,0.00031459612378848,,
0.0218173169532926,-0.135843743133226,-0.0013592828486777,,
0.0220597315861069,-0.216880318640402,-0.0029984497142066,,
0.0223021462189213,-0.289658044394242,-0.00451622024685738,,
0.0225445608517356,-0.352079258141332,-0.0058399064392094,,
0.02278697548455,-0.40154991080371,-0.00698958820803952,,
0.0230293901173644,-0.435978901562998,-0.00785146214076926,,
0.0232718047501787,-0.45476486063405,-0.00845546087218363,,
0.0235142193829931,-0.456396946279606,-0.00873204719852216,,
0.0237566340158075,-0.442032823864053,-0.00869084301559786,,
0.0239990486486218,-0.411080894434855,-0.00836062684722316,,
0.0242414632814362,-0.365049503531158,-0.00769531496156528,,
0.0244838779142505,-0.305829699522648,-0.00673698156366642,,
0.0247262925470649,-0.235339275758785,-0.00555727515400184,,
0.0249687071798793,-0.156098322533473,-0.00416803061599724,,
0.0252111218126936,-0.0711291652007446,-0.0026454047465565,,
0.025453536445508,0.0162554204050502,-0.000980694096220258,,
0.0256959510783223,0.103422979414995,0.000663403970735832,,
0.0259383657111367,0.186800025931932,0.00236891849697374,,
0.0261807803439511,0.263045577082847,0.0039161858462804,,
0.0264231949767654,0.329326055750944,0.00534091405072479,,
0.0266656096095798,0.384069819944951,0.00654826585706525,,
0.0269080242423942,0.42414193011601,0.00756910041714587,,
0.0271504388752085,0.44908394165087,0.00828789687213005,,
0.0273928535080229,0.457244940438217,0.00867063880994667,,
0.0276352681408372,0.449358095523511,0.00876576015204433,,
0.0278776827736516,0.42453618677781,0.00853212289528926,,
0.028120097406466,0.384466929404593,0.00796225356583191,,
0.0283625120392803,0.329964226628258,0.0071519901844721,,
0.0286049266720947,0.264030969117536,0.00603979845961877,,
0.028847341304909,0.187743160898583,0.00472115161615605,,
0.0290897559377234,0.104754665447761,0.00321558399112831,,
0.0293321705705378,0.0179137874507277,0.00158644739914093,,
0.0295745852033521,-0.0697369285337767,-9.03854517577685E-05,,
0.0298169998361665,-0.155188565301577,-0.00174645721828437,,
0.0300594144689809,-0.234821207670631,-0.00334948023361381,,
0.0303018291017952,-0.305202369277136,-0.00483104235041676,,
0.0305442437346096,-0.364872630064938,-0.0061238032111337,,
0.0307866583674239,-0.410906802446531,-0.00720895645640995,,
0.0310290730002383,-0.441790621327246,-0.00805726998875,,
0.0312714876330527,-0.456944112905751,-0.00855419466233176,,
0.031513902265867,-0.454907785805947,-0.00875738275911209,,
0.0317563168986814,-0.436568004317424,-0.00862100558157097,,
0.0319987315314958,-0.401769861517348,-0.00825595301738513,,
0.0322411461643101,-0.352474370642485,-0.00748182541551845,,
0.0324835607971245,-0.290518448223467,-0.0065070100216218,,
0.0327259754299388,-0.217680243155371,-0.00525583266701579,,
0.0329683900627532,-0.136833949264274,-0.0037981081877505,,
0.0332108046955676,-0.05095503469965,-0.00222499036680501,,
0.0334532193283819,0.0366250032183126,-0.000588134951503339,,
0.0336956339611963,0.123323526603017,0.00111621577891485,,
0.0339380485940106,0.205211626606134,0.0027567094685268,,
0.034180463226825,0.279484218429317,0.00429439527555076,,
0.0344228778596394,0.343231162993678,0.00565997488912817,,
0.0346652924924537,0.394281124541529,0.00685752240169757,,
0.0349077071252681,0.43111160052443,0.00778452693265663,,
0.0351501217580825,0.452300471218016,0.00841828074332129,,
0.0353925363908968,0.457049523786022,0.00873241845100292,,
0.0356349510237112,0.444607331276799,0.00875980397094267,,
0.0358773656565255,0.416344377773766,0.0084397681912427,,
0.0361197802893399,0.37311165287327,0.00781086003252041,,
0.0363621949221543,0.315836886433613,0.00689156141174596,,
0.0366046095549686,0.246917284481643,0.00573575881940958,,
0.036847024187783,0.168954313369716,0.00436902025243624,,
0.0370894388205973,0.0847383303273165,0.0028386335920092,,
0.0373318534534117,-0.00242070594907485,0.00122646485252709,,
0.0375742680862261,-0.0900523438480092,-0.000458695352925975,,
0.0378166827190404,-0.174333691620969,-0.00213302467079268,,
0.0380590973518548,-0.251954612271609,-0.00371307522827813,,
0.0383015119846692,-0.320140189338766,-0.00515121048969691,,
0.0385439266174835,-0.376648408998209,-0.00642192702377153,,
0.0387863412502979,-0.419369912525373,-0.00743402100914548,,
0.0390287558831122,-0.446856691055473,-0.00818251604843745,,
0.0392711705159266,-0.457818495444403,-0.00861554494182348,,
0.039513585148741,-0.452170240996517,-0.00876701756805476,,
0.0397559997815553,-0.429741615680632,-0.0085670561395732,,
0.0399984144143697,-0.391455570918664,-0.00807274153234427,,
0.040240829047184,-0.339247373446857,-0.0072667556252175,,
0.0404832436799984,-0.274435800387738,-0.00620809850806836,,
0.0407256583128128,-0.199531884402064,-0.00490927009050557,,
0.0409680729456271,-0.117374729902449,-0.00345603938039707,,
0.0412104875784415,-0.0306738529595246,-0.00185958914811568,,
0.0414529022112559,0.0568787267792062,-0.000218756488847394,,
0.0416953168440702,0.142825537932476,0.00145450103924905,,
0.0419377314768846,0.223178012517078,0.00308864469730086,,
0.0421801461096989,0.295213725552147,0.00459281447603166,,
0.0424225607425133,0.356359453383964,0.00593965713832656,,
0.0426649753753277,0.404557758208694,0.0070945041590611,,
0.042907390008142,0.437829654163163,0.00793199487452068,,
0.0431498046409564,0.454837179059351,0.00850677442156922,,
0.0433922192737708,0.455231435721151,0.00873417463665049,,
0.0436346339065851,0.439781253167051,0.00868741619378799,,
0.0438770485393995,0.407878985456651,0.00832250405988821,,
0.0441194631722138,0.361005805229649,0.00764160764075061,,
0.0443618778050282,0.300756141200085,0.00663775384630494,,
0.0446042924378426,0.229797359350469,0.00546042506665767,,
0.0448467070706569,0.149944124388262,0.00403912852644694,,
0.0450891217034713,0.0646346282729526,0.0024973912249604,,
0.0453315363362856,-0.0227394376407989,0.00084510461959475,,
0.0455739509691,-0.109956599673226,-0.000851254497642895,,
0.0458163656019144,-0.192945915303428,-0.00251441395826646,,
0.0460587802347287,-0.268642623809465,-0.00406561658386773,,
0.0463011948675431,-0.334440409082652,-0.00548476954453836,,
0.0465436095003575,-0.387944276014467,-0.00667718085974567,,
0.0467860241331718,-0.427260751357058,-0.00763789188766184,,
0.0470284387659862,-0.451005443637523,-0.00830777340711375,,
0.0472708533988005,-0.458005567662909,-0.00870068120633416,,
0.0475132680316149,-0.448473942152249,-0.0087377031493574,,
0.0477556826644293,-0.422106886775235,-0.00847658675247187,,
0.0479980972972436,-0.380584128901388,-0.00792229065750538,,
0.048240511930058,-0.325337701727576,-0.00707256797987998,,
0.0484829265628723,-0.25776176755931,-0.00591057999838807,,
0.0487253411956867,-0.181037695230329,-0.0045917749690858,,
0.0489677558285011,-0.0974530720103945,-0.00309509157733334,,
0.0492101704613154,-0.0103308368261683,-0.00148917763507894,,
0.0494525850941298,0.0771239276065461,0.000201307622258895,,
0.0496949997269442,0.162043981156414,0.00187236669001356,,
0.0499374143597585,0.240882154986373,0.00349788760566838,,
0.0501798289925729,0.310515562618449,0.00494907804127465,,
0.0504222436253872,0.369003338700635,0.00623192000419426,,
0.0506646582582016,0.413502135283525,0.00730076558072446,,
0.050907072891016,0.44322144208503,0.00808150954745157,,
0.0511494875238303,0.456341744641358,0.00860412650683307,,
0.0513919021566447,0.453269851924815,0.00876938874150701,,
0.0516343167894591,0.43362833878087,0.00863742624020292,,
0.0518767314222734,0.398269335925005,0.00816842459558664,,
0.0521191460550878,0.348208154109281,0.00741432364383732,,
0.0523615606879021,0.285346753655129,0.0064083004435922,,
0.0526039753207165,0.211953394126931,0.0051333484029561,,
0.0528463899535309,0.130526555874934,0.00366766943575847,,
0.0530888045863452,0.0444713384036585,0.00209142825155206,,
0.0533312192191596,-0.0430544963553011,0.000436907674738141,,
0.0535736338519739,-0.129787538593897,-0.0012530336170089,,
0.0538160484847883,-0.211246042901943,-0.00288125014850094,,
0.0540584631176027,-0.284738965074836,-0.00439003314283859,,
0.054300877750417,-0.347907897136383,-0.00575696702089967,,
0.0545432923832314,-0.398326819801527,-0.00689812450994642,,
0.0547857070160458,-0.434238409599437,-0.00779970631668991,,
0.0550281216488601,-0.453882204981655,-0.00843739540364874,,
0.0552705362816745,-0.457515528313555,-0.00875756354292889,,
0.0555129509144888,-0.443693080888301,-0.00869192610435654,,
0.0557553655473032,-0.413966214172514,-0.00838220468705275,,
0.0559977801801176,-0.369117593254217,-0.00773889838864772,,
0.0562401948129319,-0.310424701007173,-0.00679510356071811,,
0.0564826094457463,-0.240844747674667,-0.00564889542379321,,
0.0567250240785607,-0.162007322704141,-0.00426877724024699,,
0.056967438711375,-0.0774192991631389,-0.00272475754307555,,
0.0572098533441894,0.0099165749194994,-0.00109564839148879,,
0.0574522679770037,0.0973533667258076,0.000576898914470991,,
0.0576946826098181,0.181044755904988,0.00226092599278749,,
0.0579370972426325,0.257810122482736,0.00381659333300277,,
0.0581795118754468,0.325281073690407,0.00524824943156421,,
0.0584219265082612,0.380199999671928,0.00649528328565818,,
0.0586643411410755,0.421675971661162,0.00749650280163294,,
0.0589067557738899,0.44762302387585,0.00823739362163733,,
0.0591491704067043,0.457458044437033,0.00862503286391547,,
0.0593915850395186,0.450486662349908,0.00877039596562845,,
0.059633999672333,0.426701175060299,0.00852842974017776,,
0.0598764143051473,0.387569347058049,0.00803439599352096,,
0.0601188289379617,0.334352114989434,0.00719839997283112,,
0.0603612435707761,0.268958000610927,0.00612146109222378,,
0.0606036582035904,0.193578523224948,0.00481644728550545,,
0.0608460728364048,0.11088728930929,0.00333150515698755,,
0.0610884874692192,0.0241588115472413,0.00171681835720205,,
0.0613309021020335,-0.0634947928950785,4.1856295977194E-05,,
0.0615733167348479,-0.149228214769747,-0.00164202873791197,,
0.0618157313676622,-0.229060624307706,-0.00325498195002716,,
0.0620581460004766,-0.300397187911583,-0.00473538188515166,,
0.062300560633291,-0.361043604801059,-0.0060666868240622,,
0.0625429752661053,-0.408011854516154,-0.00714437789447775,,
0.0627853898989197,-0.440186992340167,-0.00800795636033591,,
0.0630278045317341,-0.456354439591756,-0.00850906327381917,,
0.0632702191645484,-0.455605009598595,-0.00874223727204448,,
0.0635126337973628,-0.438353285207109,-0.00865865058310522,,
0.0637550484301771,-0.404842538753297,-0.00825471335692818,,
0.0639974630629915,-0.356632109537738,-0.00753976662875377,,
0.0642398776958059,-0.29521023087479,-0.00655712910650408,,
0.0644822923286202,-0.222943155934715,-0.00532641744842755,,
0.0647247069614346,-0.142840729080986,-0.00393245477563697,,
0.0649671215942489,-0.0572528712162183,-0.00234514865336699,,
0.0652095362270633,0.0303191788677859,-0.000703050507382397,,
0.0654519508598777,0.117212833624901,0.000955072832634851,,
0.065694365492692,0.199500075706123,0.00262596725798492,,
0.0659367801255064,0.274550625500889,0.004175052130305,,
0.0661791947583208,0.338966800779071,0.00555065233257634,,
0.0664216093911351,0.3914856679359,0.00676168115261566,,
0.0666640240239495,0.42907955262139,0.00771767888816921,,
0.0669064386567638,0.451406119094468,0.00836986941984952,,
0.0671488532895782,0.457403270718462,0.00872861876257103,,
0.0673912679223926,0.446223441254438,0.00875806069842477,,
0.0676336825552069,0.419063094117438,0.00844886226287622,,
0.0678760971880213,0.376741552847759,0.00789232573989684,,
0.0681185118208357,0.320363991329492,0.00701533376049968,,
0.06836092645365,0.25213761925319,0.00584065540073597,,
0.0686033410864644,0.174958596988316,0.00445729117919624,,
0.0688457557192787,0.0909702315537557,0.00296506281721109,,
0.0690881703520931,0.00392166987380578,0.00132639310717808,,
0.0693305849849075,-0.0837221993958773,-0.000346622299735255,,
0.0695729996177218,-0.168442378796922,-0.00200030352311487,,
0.0698154142505362,-0.246534866930888,-0.00360505851197335,,
0.0700578288833505,-0.315589477540743,-0.0050587783068714,,
0.0703002435161649,-0.373037908049048,-0.00632673143117746,,
0.0705426581489793,-0.416596636422968,-0.00734227160805645,,
0.0707850727817936,-0.44543942108744,-0.00812230212436482,,
0.071027487414608,-0.457727491193235,-0.00859326979298691,,
0.0712699020474224,-0.453075505071811,-0.0087584028963632,,
0.0715123166802367,-0.431821875867206,-0.00858049709351238,,
0.0717547313130511,-0.394940049523144,-0.00811496746666052,,
0.0719971459458654,-0.343344846987692,-0.00734649258734699,,
0.0722395605786798,-0.279300961827925,-0.00630690977699544,,
0.0724819752114942,-0.20516423450198,-0.00500279988936025,,
0.0727243898443085,-0.123328518999241,-0.0035600288143578,,
0.0729668044771229,-0.0369594937653173,-0.00196454868094964,,
0.0732092191099372,0.0505934425731438,-0.0003104784495358,,
0.0734516337427516,0.136804708086391,0.00136048054146309,,
0.073694048375566,0.217715760488507,0.00301186645602769,,
0.0739364630083803,0.290236449156759,0.0045139184814782,,
0.0741788776411947,0.352224322911611,0.00587550470967679,,
0.0744212922740091,0.401284743244272,0.00701628933210197,,
0.0746637069068234,0.435948233986194,0.00788318647230879,,
0.0749061215396378,0.453864660274926,0.00846360582878036,,
0.0751485361724521,0.455969454522943,0.00873280584489589,,
0.0753909508052665,0.441569672134363,0.00870302816766833,,
0.0756333654380809,0.410739200573298,0.00834689696200552,,
0.0758757800708952,0.364655104229465,0.00766474796928129,,
0.0761181947037096,0.305530013109319,0.00674161414896801,,
0.0763606093365239,0.235122391802828,0.00553052721984448,,
0.0766030239693383,0.155887643412822,0.00411926740973989,,
0.0768454386021527,0.0710091693915046,0.00259063693496042,,
0.077087853234967,-0.0164239137776086,0.000940248559669676,,
0.0773302678677814,-0.10389383369886,-0.000736676297278471,,
0.0775726825005958,-0.187142183373138,-0.00239992614981066,,
0.0778150971334101,-0.263463939886414,-0.00394897066860045,,
0.0780575117662245,-0.330033977535501,-0.00539104766287846,,
0.0782999263990388,-0.384433622989785,-0.00659338917487151,,
0.0785423410318532,-0.424906907857411,-0.00758045428648746,,
0.0787847556646676,-0.449694583029005,-0.00827319204561539,,
0.0790271702974819,-0.45804044311653,-0.00866983173933633,,
0.0792695849302963,-0.449608713813953,-0.00873716241204869,,
0.0795119995631107,-0.424711419885271,-0.00851125850587842,,
0.079754414195925,-0.383953497112933,-0.00796597577548486,,
0.0799968288287394,-0.329809391025369,-0.00713396991189086,,
