Time domain (s),Current (AC) (A),Potential (AC) (V),Frequency (Hz),Column 5
0,-0.241357389519505,-0.00838077340937238,1.9953,0.4
0.00122357853455621,-0.236744612619965,-0.00824133270842919,,
0.00244715706911241,-0.232438327466228,-0.00814457832283644,,
0.00367073560366862,-0.227899626237005,-0.00801047814581857,,
0.00489431413822483,-0.223238246328482,-0.00789103600255503,,
0.00611789267278103,-0.21863905484832,-0.00777462394378858,,
0.00734147120733724,-0.213855347607549,-0.00764722782872029,,
0.00856504974189345,-0.209029771509642,-0.0075322171840333,,
0.00978862827644966,-0.204361891680641,-0.00740965026613249,,
0.0110122068110059,-0.199372587856087,-0.00725149879342046,,
0.0122357853455621,-0.19471138362109,-0.00710097934603526,,
0.0134593638801183,-0.189633423223525,-0.00698587401120765,,
0.0146829424146745,-0.184781847443704,-0.00683918241275316,,
0.0159065209492307,-0.179810989339428,-0.00670481473608886,,
0.0171300994837869,-0.174553841944889,-0.00655878360136475,,
0.0183536780183431,-0.169497079486181,-0.00643771278768401,,
0.0195772565528993,-0.164387146506802,-0.00630306340785136,,
0.0208008350874555,-0.159149147526646,-0.00617434163081576,,
0.0220244136220117,-0.153965665897529,-0.00600312291871097,,
0.0232479921565679,-0.148674203607491,-0.00586078469946738,,
0.0244715706911241,-0.143307670163819,-0.00569547465213116,,
0.0256951492256803,-0.138005843135721,-0.0055706541088858,,
0.0269187277602366,-0.132682935284449,-0.00541403661645035,,
0.0281423062947928,-0.127300064202818,-0.00526940689580568,,
0.029365884829349,-0.121848797561558,-0.00510593383719593,,
0.0305894633639052,-0.116317482350081,-0.00493532350924397,,
0.0318130418984614,-0.110941111188928,-0.00480458956672214,,
0.0330366204330176,-0.105367810004631,-0.00462060899092753,,
0.0342601989675738,-0.0997619506600991,-0.00448158492660244,,
0.03548377750213,-0.0942682881411235,-0.00431491134124284,,
0.0367073560366862,-0.08870435621157,-0.00416243890970902,,
0.0379309345712424,-0.0830420471072075,-0.00400245281552447,,
0.0391545131057986,-0.0774415750841535,-0.00383689657382291,,
0.0403780916403548,-0.0717230504513287,-0.00366098123074776,,
0.041601670174911,-0.0660574035499638,-0.00347311599193745,,
0.0428252487094672,-0.06040405379545,-0.00331269195585282,,
0.0440488272440235,-0.0547120558651183,-0.00317527762391689,,
0.0452724057785797,-0.0490016707723522,-0.00301498615402895,,
0.0464959843131359,-0.0433325689583005,-0.00283284019970687,,
0.0477195628476921,-0.0375699502703381,-0.00263870647359399,,
0.0489431413822483,-0.0317910525022586,-0.00248127464594994,,
0.0501667199168045,-0.0260758656664363,-0.00232905077603496,,
0.0513902984513607,-0.0203094992765764,-0.00216131666110142,,
0.0526138769859169,-0.0145682542009982,-0.0019812349518431,,
0.0538374555204731,-0.00874104621314633,-0.00184232688294017,,
0.0550610340550293,-0.00303657546243714,-0.00162175330233749,,
0.0562846125895855,0.00278427899954161,-0.00145672732542312,,
0.0575081911241417,0.00851688679340301,-0.00131294981604357,,
0.0587317696586979,0.0143548694242101,-0.00112529052828947,,
0.0599553481932541,0.0200928645395491,-0.000968654097825983,,
0.0611789267278103,0.0257862971370134,-0.000801736685354104,,
0.0624025052623666,0.0315071640835241,-0.000612148085986419,,
0.0636260837969228,0.0372931473505036,-0.000432085314756137,,
0.064849662331479,0.0430350951201876,-0.000272153667402186,,
0.0660732408660352,0.0487231696750953,-9.84161975590148E-05,,
0.0672968194005914,0.0543367586547905,7.14957906065017E-05,,
0.0685203979351476,0.060052004048455,0.000260629877299579,,
0.0697439764697038,0.065771026422938,0.000445654411894036,,
0.07096755500426,0.0714707539884332,0.000580460030458418,,
0.0721911335388162,0.0771211465719185,0.00075890833479253,,
0.0734147120733724,0.0826757092467283,0.000960977094682125,,
0.0746382906079286,0.0883026494144333,0.00111566290825094,,
0.0758618691424848,0.0939331030526672,0.00128447175627944,,
0.077085447677041,0.0994330898185948,0.00149849514641076,,
0.0783090262115972,0.105042228402287,0.00164170451494705,,
0.0795326047461535,0.110501458910079,0.00182650652771077,,
0.0807561832807097,0.116036111918559,0.00200258757853211,,
0.0819797618152659,0.121579197256307,0.00214342969355519,,
0.0832033403498221,0.126897420480207,0.00232731794646313,,
0.0844269188843783,0.132349360536652,0.00246033865587858,,
0.0856504974189345,0.13769832662768,0.0026430906271,,
0.0868740759534907,0.143120080116497,0.00282326702649938,,
0.0880976544880469,0.148344318003749,0.00298348274427473,,
0.0893212330226031,0.153639147369711,0.0031536788028621,,
0.0905448115571593,0.15881615835727,0.00330434975447202,,
0.0917683900917155,0.164006461974997,0.00348481022429281,,
0.0929919686262717,0.169223263016296,0.00364430629700019,,
0.0942155471608279,0.17429273252675,0.00381205934996176,,
0.0954391256953841,0.179506254328889,0.00399598547892577,,
0.0966627042299403,0.18449959864455,0.004150960097423,,
0.0978862827644966,0.189483339474099,0.00429586915398206,,
0.0991098612990528,0.194297262561418,0.00445709332175426,,
0.100333439833609,0.199156626534245,0.00464071170776137,,
0.101557018368165,0.204156763559595,0.00477767152702313,,
0.102780596902721,0.208906946435736,0.00493502286804759,,
0.104004175437278,0.213607296588209,0.00507278281899648,,
0.105227753971834,0.21824926457206,0.00526232880780109,,
0.10645133250639,0.222866228357314,0.00540539140661966,,
0.107674911040946,0.227777386741521,0.00553991295476264,,
0.108898489575502,0.231991150504663,0.00568957545637616,,
0.110122068110059,0.236614906999606,0.00585056763330405,,
0.111345646644615,0.240942536486806,0.00599114461593375,,
0.112569225179171,0.245384295208352,0.0061375923872764,,
0.113792803713727,0.249539091224452,0.00626860566571263,,
0.115016382248283,0.253839110689078,0.00638321861180913,,
0.11623996078284,0.258110553926737,0.00645631940029778,,
0.117463539317396,0.262563760706423,0.00664668445881755,,
0.118687117851952,0.266330201113395,0.00682583820469906,,
0.119910696386508,0.270344926771076,0.00697351694786841,,
0.121134274921064,0.274292428025971,0.00711011694459618,,
0.122357853455621,0.278106183169399,0.00724001287937392,,
0.123581431990177,0.281763237527238,0.00738358207044465,,
0.124805010524733,0.285584253843093,0.00753012453192747,,
0.126028589059289,0.289479989965528,0.00763916969776091,,
0.127252167593846,0.292882669057076,0.00773739651503913,,
0.128475746128402,0.296545110736393,0.00786867966037574,,
0.129699324662958,0.300017590775781,0.008003049704294,,
0.130922903197514,0.303424954494701,0.00811915402010399,,
0.13214648173207,0.306620104593675,0.00826724939989187,,
0.133370060266627,0.309995847077835,0.00836873829251106,,
0.134593638801183,0.313329662147016,0.00847083320202957,,
0.135817217335739,0.316468596717528,0.00860305851426446,,
0.137040795870295,0.319207229879116,0.0087040171420969,,
0.138264374404851,0.322621854770461,0.00880163794247535,,
0.139487952939408,0.325115247689132,0.00892864109346059,,
0.140711531473964,0.327785251059721,0.00903970789379427,,
0.14193511000852,0.330577288973348,0.00911233996608729,,
0.143158688543076,0.333382678074984,0.00922731746922478,,
0.144382267077632,0.335762703011255,0.00933012728930427,,
0.145605845612189,0.338368995449587,0.0094104624045297,,
0.146829424146745,0.340701705649403,0.00950623674716766,,
0.148053002681301,0.343025280825844,0.00960335095529441,,
0.149276581215857,0.345156083585932,0.00969654025709632,,
0.150500159750413,0.347687656217683,0.00979363552719503,,
0.15172373828497,0.349475544254152,0.00987111100017612,,
0.152947316819526,0.351504456368903,0.00992737588167891,,
0.154170895354082,0.353439910167586,0.0100160958088478,,
0.155394473888638,0.355539560155651,0.0101263009289028,,
0.156618052423194,0.357161612383157,0.0101856290364513,,
0.157841630957751,0.359126110871545,0.0102384708693735,,
0.159065209492307,0.360674614449312,0.0103056629930931,,
0.160288788026863,0.3616703319972,0.0103986487110928,,
0.161512366561419,0.363301987710817,0.0104573565982209,,
0.162735945095976,0.364805753097183,0.0105236207585633,,
0.163959523630532,0.366074818652219,0.0106029710963269,,
0.165183102165088,0.367109418607293,0.0106224962033039,,
0.166406680699644,0.368302124736168,0.0106972446002378,,
0.1676302592342,0.369226401716635,0.0107502142648497,,
0.168853837768757,0.370240389311273,0.0107904386365467,,
0.170077416303313,0.371010073588469,0.0108607555349036,,
0.171300994837869,0.371888909683429,0.0108866627573527,,
0.172524573372425,0.372578955295304,0.0109147289150053,,
0.173748151906981,0.372954662410527,0.0109820536049217,,
0.174971730441538,0.373580294396038,0.011005517821745,,
0.176195308976094,0.373675860794424,0.0110387729990986,,
0.17741888751065,0.374210611008921,0.0110609304919826,,
0.178642466045206,0.37437223065325,0.0111045637087384,,
0.179866044579762,0.374359816390715,0.0111613209789718,,
0.181089623114319,0.374782838242393,0.0111695164106345,,
0.182313201648875,0.374550480724749,0.0111753351197699,,
0.183536780183431,0.374313907042471,0.0111843448866416,,
0.184760358717987,0.374145026225715,0.0112296115083215,,
0.185983937252543,0.374156269331408,0.0112389858322337,,
0.1872075157871,0.373423827841818,0.0112280349174818,,
0.188431094321656,0.37302563451521,0.0112338725646453,,
0.189654672856212,0.372159681145523,0.0112719948152225,,
0.190878251390768,0.3717921721282,0.0112652907532729,,
0.192101829925324,0.370873048237842,0.0112609539448365,,
0.193325408459881,0.370230785825161,0.0112477162631905,,
0.194548986994437,0.369179086980179,0.0112432090125014,,
0.195772565528993,0.367931336479685,0.011239213088571,,
0.196996144063549,0.367003077565952,0.0112361451280178,,
0.198219722598106,0.365757435147775,0.0112264109815716,,
0.199443301132662,0.364474315710624,0.0112239300998898,,
0.200666879667218,0.36337975252519,0.0111961811542076,,
0.201890458201774,0.362053534516217,0.0111508861254852,,
0.20311403673633,0.360369410976035,0.0111534048832236,,
0.204337615270887,0.358590423731573,0.0111002647763585,,
0.205561193805443,0.357108676093855,0.0111067415819708,,
0.206784772339999,0.35556649676304,0.0110454959990762,,
0.208008350874555,0.353490972605939,0.0110225431090121,,
0.209231929409111,0.35146838473814,0.010992299078127,,
0.210455507943668,0.349467346156252,0.0109545745261399,,
0.211679086478224,0.347568666682438,0.010883537982715,,
0.21290266501278,0.345113453476848,0.0108771748052714,,
0.214126243547336,0.343245926775058,0.0108117817942222,,
0.215349822081892,0.340607076176492,0.0107605544281957,,
0.216573400616449,0.338351662328311,0.010706581048094,,
0.217796979151005,0.335741622188082,0.0106519827130649,,
0.219020557685561,0.333256193135943,0.0106082737441966,,
0.220244136220117,0.330592279780937,0.0105336437099384,,
0.221467714754673,0.32786699780736,0.0104653863221378,,
0.22269129328923,0.324951285731117,0.0104252045610043,,
0.223914871823786,0.321805792682284,0.0103679501675331,,
0.225138450358342,0.31903670944278,0.0103132003282793,,
0.226362028892898,0.315976710843484,0.0101879962899645,,
0.227585607427454,0.312971990847175,0.0101789675850648,,
0.228809185962011,0.309665112385382,0.0100429357291807,,
0.230032764496567,0.306470664980513,0.0100029954279055,,
0.231256343031123,0.303116237550896,0.00990307839161897,,
0.232479921565679,0.299857142288295,0.009836373922123,,
0.233703500100236,0.296195871765821,0.00975386093366604,,
0.234927078634792,0.292505556553641,0.00967019746000108,,
0.236150657169348,0.288803529773032,0.00955573601812931,,
0.237374235703904,0.285673261763158,0.00946632958744198,,
0.23859781423846,0.281797201075684,0.009369025999034,,
0.239821392773017,0.277721106799432,0.00928555190565028,,
0.241044971307573,0.274076700935497,0.00918091930036535,,
0.242268549842129,0.269956102699212,0.00910594364709461,,
0.243492128376685,0.266005790667894,0.00897634125175184,,
0.244715706911241,0.261902994015623,0.00886273675565219,,
0.245939285445798,0.257839782464643,0.00880026020093094,,
0.247162863980354,0.253605582014591,0.00867706832810233,,
0.24838644251491,0.249390354305395,0.00852529897086196,,
0.249610021049466,0.244823545311941,0.00844394120211911,,
0.250833599584022,0.240758225678644,0.00832154472647106,,
0.252057178118579,0.236180642042235,0.00820161019447685,,
0.253280756653135,0.231810118935662,0.00808466787092321,,
0.254504335187691,0.227236780742809,0.00795227685094213,,
0.255727913722247,0.222682825195706,0.00782676506967084,,
0.256951492256803,0.217995152816058,0.00771730800172588,,
0.25817507079136,0.213213085194868,0.00760625067040621,,
0.259398649325916,0.208503629297941,0.00746259152370232,,
0.260622227860472,0.203662066909127,0.00732383259177061,,
0.261845806395028,0.19876288360364,0.00718583118096339,,
0.263069384929584,0.193964185555279,0.00710028810800889,,
0.264292963464141,0.189035020634612,0.00692977010294404,,
0.265516541998697,0.184031135907364,0.00679161718791166,,
0.266740120533253,0.179012963066632,0.00664685490107075,,
0.267963699067809,0.173768522723839,0.00652453417753485,,
0.269187277602366,0.168832330862114,0.00637491902099185,,
0.270410856136922,0.163624196381453,0.00621395051659901,,
0.271634434671478,0.158392404532564,0.00607524839875184,,
0.272858013206034,0.153112126790377,0.0059213059027865,,
0.27408159174059,0.147917109266357,0.00577653888143814,,
0.275305170275147,0.142743875259616,0.00565111232129301,,
0.276528748809703,0.137316265986584,0.00549148841689595,,
0.277752327344259,0.131938547995061,0.00532382531956754,,
0.278975905878815,0.126419588488278,0.00521481802979062,,
0.280199484413371,0.121054987453397,0.00502839208111627,,
0.281423062947928,0.115563667248107,0.00490097229351338,,
0.282646641482484,0.110158309955091,0.00471057409344411,,
0.28387022001704,0.104568641853913,0.00455770633057373,,
0.285093798551596,0.0990049148768072,0.00438728301564906,,
0.286317377086152,0.093565594035345,0.00425773269988383,,
0.287540955620709,0.0880276617877053,0.00409046730114593,,
0.288764534155265,0.0823110110058293,0.00393464520589104,,
0.289988112689821,0.0767426286802725,0.00377383767473738,,
0.291211691224377,0.0710885176738108,0.00362652348860903,,
0.292435269758933,0.0653526599197102,0.003463201934224,,
0.29365884829349,0.0596568557296389,0.00328188925313855,,
0.294882426828046,0.0539870512214815,0.00309370206785076,,
0.296106005362602,0.0482968393053353,0.00298058996048134,,
0.297329583897158,0.0426041094019769,0.00279707099912185,,
0.298553162431714,0.036861458938187,0.00260161634554823,,
0.299776740966271,0.0310478363697136,0.00243897656017511,,
0.301000319500827,0.0254267519862234,0.00227160226777556,,
0.302223898035383,0.0196627864678917,0.0021136022992887,,
0.303447476569939,0.0139065505847235,0.00193975120127687,,
0.304671055104496,0.00815242278387261,0.00177262310324267,,
0.305894633639052,0.00236266253607456,0.00159648050383021,,
0.307118212173608,-0.00343711110273083,0.00145169454445382,,
0.308341790708164,-0.00915938343745308,0.00125739511059475,,
0.30956536924272,-0.0149837806488818,0.00107682101260576,,
0.310788947777277,-0.0206845036976935,0.000920222458198339,,
0.312012526311833,-0.0265067928268049,0.000726112404620505,,
0.313236104846389,-0.0322560017689153,0.000564566290370383,,
0.314459683380945,-0.0380220168117223,0.0003849532973077,,
0.315683261915501,-0.043725140732062,0.000218260773919621,,
0.316906840450058,-0.0494577192470024,6.04927962770674E-05,,
0.318130418984614,-0.0550610020464795,-0.000156196121310348,,
0.31935399751917,-0.060820517168808,-0.000279274365969862,,
0.320577576053726,-0.0665282671586775,-0.0004710029625139,,
0.321801154588282,-0.0722629537559351,-0.000638301502800864,,
0.323024733122839,-0.077863367221147,-0.000806509068437045,,
0.324248311657395,-0.0834980955818577,-0.000981060873488815,,
0.325471890191951,-0.0892028005639354,-0.00116801945420297,,
0.326695468726507,-0.0946299413742308,-0.00132560041881824,,
0.327919047261063,-0.100247336613666,-0.0015031823083671,,
0.32914262579562,-0.105761552935235,-0.00167792112644616,,
0.330366204330176,-0.111196657612063,-0.00181940950167858,,
0.331589782864732,-0.11675988684751,-0.00199725652362037,,
0.332813361399288,-0.122168757611056,-0.00217241434557147,,
0.334036939933844,-0.127573353652124,-0.00235255286891434,,
0.335260518468401,-0.133121884869192,-0.00249063239908764,,
0.336484097002957,-0.138530521401369,-0.00267137693932984,,
0.337707675537513,-0.143861100329962,-0.00286815962212428,,
0.338931254072069,-0.149077491466366,-0.00302318632019905,,
0.340154832606626,-0.154309283315255,-0.00317838346052612,,
0.341378411141182,-0.159522805117393,-0.00335111721487991,,
0.342601989675738,-0.1646351389683,-0.00350604922281361,,
0.343825568210294,-0.169902768216583,-0.00367937242329219,,
0.34504914674485,-0.175038232415139,-0.00382013641894918,,
0.346272725279407,-0.180087850817104,-0.00400875917888355,,
0.347496303813963,-0.185031772313993,-0.00414640076715678,,
0.348719882348519,-0.190101007593078,-0.00430532869902134,,
0.349943460883075,-0.195050550642813,-0.00445223098303815,,
0.351167039417631,-0.199990490206435,-0.00461011732335681,,
0.352390617952188,-0.204632663142734,-0.00478860823825444,,
0.353614196486744,-0.209473405721757,-0.00495050944053155,,
0.3548377750213,-0.214142046802707,-0.00509305597808396,,
0.356061353555856,-0.218964402219295,-0.00526921751552489,,
0.357284932090412,-0.223520202338425,-0.00538710674048382,,
0.358508510624969,-0.228260342544638,-0.00554611279171402,,
0.359732089159525,-0.232830899239989,-0.00568998262398068,,
0.360955667694081,-0.237196210698611,-0.00585116418118936,,
0.362179246228637,-0.241744105509052,-0.00599158965959434,,
0.363402824763193,-0.245917171571901,-0.00613529378411526,,
0.36462640329775,-0.250383202519018,-0.00627762963610534,,
0.365849981832306,-0.254850287507293,-0.00643759915951536,,
0.367073560366862,-0.258747897480678,-0.0065686692520357,,
0.368297138901418,-0.262936188582486,-0.00673517239514254,,
0.369520717435974,-0.267162190934637,-0.00685401088876025,,
0.370744295970531,-0.270907609076278,-0.00697627243095811,,
0.371967874505087,-0.274880582992507,-0.00711235873367322,,
0.373191453039643,-0.279004928930689,-0.00724284411457621,,
0.374415031574199,-0.282629893591032,-0.00739546805033475,,
0.375638610108756,-0.286356748896712,-0.00750886659537908,,
0.376862188643312,-0.29009063114345,-0.00763823226537008,,
0.378085767177868,-0.293542967285139,-0.00775835381039203,,
0.379309345712424,-0.297190183925498,-0.00787662416316648,,
0.38053292424698,-0.300623840115542,-0.00801758227361171,,
0.381756502781537,-0.304005848288811,-0.00811473199054147,,
0.382980081316093,-0.307459589818712,-0.00823782917322946,,
0.384203659850649,-0.310867422000369,-0.00836141874464813,,
0.385427238385205,-0.314072878279561,-0.00848315002205924,,
0.386650816919761,-0.317461035026256,-0.00860191276356437,,
0.387874395454318,-0.31990272137031,-0.00869378350515948,,
0.389097973988874,-0.323035975830134,-0.00883918731770272,,
0.39032155252343,-0.326136262224828,-0.00892618861882077,,
0.391545131057986,-0.328793148638776,-0.00902489125405515,,
0.392768709592542,-0.331448395433144,-0.00910278336365433,,
0.393992288127099,-0.333969896116046,-0.00922512539247178,,
0.395215866661655,-0.336493504881265,-0.00931542427773424,,
0.396439445196211,-0.339460747858598,-0.00940577524257336,,
0.397663023730767,-0.341652216543153,-0.00949323105636646,,
0.398886602265323,-0.344012273255252,-0.00960072330389528,,
0.40011018079988,-0.346251173791946,-0.00968679427438257,,
0.401333759334436,-0.348247937651357,-0.00978112695963151,,
0.402557337868992,-0.350420726384266,-0.00984687979321519,,
0.403780916403548,-0.352258915607141,-0.0099328205647593,,
0.405004494938104,-0.354225522177846,-0.0100029125740329,,
0.406228073472661,-0.356336825176499,-0.0101246059753874,,
0.407451652007217,-0.357910918531285,-0.0101860006952532,,
0.408675230541773,-0.359709581210709,-0.0102731179917934,,
0.409898809076329,-0.361115027980108,-0.0103361058732734,,
0.411122387610886,-0.362765129414002,-0.010377823981937,,
0.412345966145442,-0.363956430154665,-0.0104334070944279,,
