Time domain (s),Current (AC) (A),Potential (AC) (V),Frequency (Hz),Column 5
0,0.0226738599900733,-0.00502819082331163,0.0050119,0.4
0.48712189987829,0.028461512155554,-0.00477640118553779,,
0.974243799756579,0.034124026212364,-0.00451949486265324,,
1.46136569963487,0.0399097752479749,-0.00422517988640525,,
1.94848759951316,0.0455833274580298,-0.00398898192520436,,
2.43560949939145,0.0512728074011491,-0.00369746285189176,,
2.92273139926974,0.0569290264899282,-0.00340178139585001,,
3.40985329914803,0.0627377301996612,-0.00315460692682867,,
3.89697519902632,0.0683637334418918,-0.00286177010405675,,
4.38409709890461,0.0740379883460525,-0.00261402508403741,,
4.8712189987829,0.0796857751055622,-0.00228705875331947,,
5.35834089866119,0.0853389199076285,-0.0020136998512883,,
5.84546279853948,0.0909227907824335,-0.00172513505449734,,
6.33258469841777,0.0964616599555476,-0.00146725412492543,,
6.81970659829605,0.101938926278722,-0.00117058181875151,,
7.30682849817434,0.107566569140533,-0.000899155886650682,,
7.79395039805263,0.113035637365806,-0.000655014880944993,,
8.28107229793092,0.118562531460201,-0.000315951244715951,,
8.76819419780921,0.123979629600568,-5.84967055696772E-05,,
9.2553160976875,0.12932408673775,0.000225674239403784,,
9.74243799756579,0.134829460825155,0.000507445215408797,,
10.2295598974441,0.140135972480625,0.000785626390114036,,
10.7166817973224,0.145480663849176,0.00106631717703998,,
11.2038036972007,0.15060166426072,0.00134786480567906,,
11.690925597079,0.15598804881288,0.00162975354665873,,
12.1780474969572,0.161252867284741,0.00192900653012451,,
12.6651693968355,0.16631812063056,0.00219857055736572,,
13.1522912967138,0.171447524092453,0.00246603105850607,,
13.6394131965921,0.176592913845252,0.00273957066886066,,
14.1265350964704,0.181741348605843,0.00300482612236985,,
14.6136569963487,0.186682430047387,0.00328387632137161,,
15.100778896227,0.19152071319704,0.0035759943717113,,
15.5879007961053,0.196579905806197,0.00385309129647604,,
16.0750226959836,0.201392394226384,0.00410849916157829,,
16.5621445958618,0.206104895131103,0.00437643884433969,,
17.0492664957401,0.210926342901138,0.00468623382347788,,
17.5363883956184,0.215649354938522,0.00494460205639413,,
18.0235102954967,0.22042697216371,0.0051840954064577,,
18.510632195375,0.225003150411908,0.00546777092636486,,
18.9977540952533,0.229764371441294,0.00575216115784283,,
19.4848759951316,0.23433235159159,0.00601514252908064,,
19.9719978950099,0.23867523539667,0.00627498485461198,,
20.4591197948882,0.243015308425326,0.00656139333410577,,
20.9462416947665,0.247362876857777,0.006798953714239,,
21.4333635946447,0.251816083637463,0.00705194536692755,,
21.920485494523,0.255969240033982,0.00731541404150926,,
22.4076073944013,0.259972488354602,0.00759158508992108,,
22.8947292942796,0.264294057105139,0.00782638408443859,,
23.3818511941579,0.268003813520912,0.0081007358670333,,
23.8689730940362,0.271973800987192,0.00832379085096413,,
24.3560949939145,0.276089714596104,0.00857355411899974,,
24.8432168937928,0.279932982891975,0.00882775996918683,,
25.3303387936711,0.28372893645139,0.00907698314268268,,
25.8174606935494,0.287297217120533,0.00928359976048032,,
26.3045825934276,0.290997370050193,0.00954027867513751,,
26.7917044933059,0.2945733803545,0.00980907519961249,,
27.2788263931842,0.298110742482988,0.0100301322398333,,
27.7659482930625,0.301534736629078,0.0102699017284582,,
28.2530701929408,0.304970208112229,0.0104949546560986,,
28.7401920928191,0.308151304329088,0.0107085600160199,,
29.2273139926974,0.311282509264436,0.0109449792941558,,
29.7144358925757,0.314807222899021,0.0111650617276888,,
30.201557792454,0.317409533404087,0.0113826264272787,,
30.6886796923322,0.320998192202297,0.011593969887512,,
31.1758015922105,0.323501891301186,0.0118456295777274,,
31.6629234920888,0.326403315263945,0.0120510929109448,,
32.1500453919671,0.329338468543781,0.0122320611294104,,
32.6371672918454,0.332084362877795,0.0124424949567352,,
33.1242891917237,0.334718060386252,0.0126456314164853,,
33.611411091602,0.337033437464792,0.0128503069426302,,
34.0985329914803,0.339549550826216,0.0130653336039708,,
34.5856548913586,0.341758821094783,0.0132803643261723,,
35.0727767912369,0.344284069479582,0.0134371785422274,,
35.5598986911151,0.346331954335189,0.0136394703428482,,
36.0470205909934,0.348411226194188,0.0138235288766864,,
36.5341424908717,0.350587001377046,0.0139791288952429,,
37.02126439075,0.352456870392523,0.0141861475382994,,
37.5083862906283,0.354475007864318,0.0143456906530801,,
37.9955081905066,0.356409524737526,0.014533217162382,,
38.4826300903849,0.358133936073106,0.0146829492365059,,
38.9697519902632,0.359753411755557,0.0148660453462401,,
39.4568738901415,0.361407085217822,0.0149872742356094,,
39.9439957900197,0.362751104810808,0.0151803925507821,,
40.431117689898,0.364075917431569,0.015332999714635,,
40.9182395897763,0.365518548430732,0.0154936636271064,,
41.4053614896546,0.36703191730321,0.0156428759109972,,
41.8924833895329,0.367852429787391,0.015736324448905,,
42.3796052894112,0.368878831644564,0.0158821093659443,,
42.8667271892895,0.369672173289988,0.0160548746447882,,
43.3538490891678,0.370612612234888,0.0161719411514287,,
43.8409709890461,0.371508312988387,0.0163099941887452,,
44.3280928889244,0.37218360202404,0.0164300170023384,,
44.8152147888026,0.372991466014317,0.0165587787892316,,
45.3023366886809,0.373422920195265,0.0166358539347859,,
45.7894585885592,0.373691817806409,0.0168112831385763,,
46.2765804884375,0.374201739495836,0.0168981693247869,,
46.7637023883158,0.374242964216708,0.0169914026370517,,
47.2508242881941,0.374402007315983,0.0170786827267988,,
47.7379461880724,0.374524276090388,0.0171801880133251,,
48.2250680879507,0.374312062470443,0.0172833054617478,,
48.712189987829,0.374705805401047,0.0173623298206773,,
49.1993118877073,0.374396619994505,0.0174503814740521,,
49.6864337875855,0.373908481822358,0.0175379336414996,,
50.1735556874638,0.373731402907701,0.0176243974981456,,
50.6606775873421,0.373080005471645,0.0176876169852891,,
51.1477994872204,0.372897305004142,0.0177477989482564,,
51.6349213870987,0.372416193773053,0.0178249390675895,,
52.122043286977,0.371597555139821,0.0178708917729158,,
52.6091651868553,0.370586612552974,0.0179255022343181,,
53.0962870867336,0.370154221446552,0.0179910729600961,,
53.5834089866119,0.36924235872862,0.0180250258205796,,
54.0705308864901,0.367731800632565,0.0180726312964139,,
54.5576527863684,0.366604445055528,0.0181134876209357,,
55.0447746862467,0.365586709758992,0.0181334386320056,,
55.531896586125,0.364210834699878,0.0182148995076545,,
56.0190184860033,0.362667249980852,0.0182413072880308,,
56.5061403858816,0.361098134042648,0.0182138396228817,,
56.9932622857599,0.359688295435088,0.018244767141772,,
57.4803841856382,0.358165791539235,0.018229839416005,,
57.9675060855165,0.356402029333731,0.0182741677768519,,
58.4546279853948,0.354685113401946,0.018242330625053,,
58.941749885273,0.352451717302414,0.0182763606418992,,
59.4288717851513,0.350905087575595,0.0182505335646743,,
59.9159936850296,0.348746645514013,0.0182690389091578,,
60.4031155849079,0.34658492421327,0.0182617577850279,,
60.8902374847862,0.344134161403683,0.018231837359715,,
61.3773593846645,0.342023736772662,0.0182038336608876,,
61.8644812845428,0.339458200592465,0.0182070336195124,,
62.3516031844211,0.3369289702744,0.0181502830842586,,
62.8387250842994,0.334600476239219,0.0181543601889018,,
63.3258469841777,0.332032597745336,0.0180903569555468,,
63.8129688840559,0.329394215609506,0.0180460610815896,,
64.3000907839342,0.326451801157243,0.017994260736137,,
64.7872126838125,0.323530701759523,0.0179419081135617,,
65.2743345836908,0.32082134751901,0.0178991350625539,,
65.7614564835691,0.317712628795046,0.0178661121392851,,
66.2485783834474,0.314687764901038,0.0177467268808997,,
66.7357002833257,0.311364724474812,0.0177087821938575,,
67.222822183204,0.30802599054689,0.0176772861543992,,
67.7099440830823,0.304916100666084,0.0175619252094625,,
68.1970659829606,0.301884444062387,0.0174976174115171,,
68.6841878828388,0.298281262919324,0.0174054033754136,,
69.1713097827171,0.294787702056762,0.017305100103802,,
69.6584316825954,0.291193187474337,0.0171892356120762,,
70.1455535824737,0.287248965458603,0.0171376992226016,,
70.632675482352,0.283804827414814,0.0170427197400214,,
71.1197973822303,0.279869740422455,0.0169474316319906,,
71.6069192821086,0.276126488920973,0.0168261783774537,,
72.0940411819869,0.272302427597327,0.0167050834965039,,
72.5811630818652,0.268210171356642,0.0166150948123374,,
73.0682849817434,0.264052330332751,0.0164596775325347,,
73.5554068816217,0.259979046832923,0.0163721740954221,,
74.0425287815,0.255801998836807,0.0162206227554806,,
74.5296506813783,0.251843957170326,0.0161367253631122,,
75.0167725812566,0.247453758628791,0.0159653773248265,,
75.5038944811349,0.24314299380013,0.0158630558051991,,
75.9910163810132,0.238660478820448,0.0157122963331915,,
76.4781382808915,0.234419983402365,0.0155576627996004,,
76.9652601807698,0.229625472239718,0.0153882274269392,,
77.4523820806481,0.225297813473597,0.0152478069075443,,
77.9395039805263,0.220514106232826,0.0150881135408993,,
78.4266258804046,0.215791064916521,0.0149169441805062,,
78.9137477802829,0.211136682670135,0.0147825702834363,,
79.4008696801612,0.206334441872324,0.0146062842379329,,
79.8879915800395,0.201574391999781,0.0144362316143694,,
80.3751134799178,0.196518507908705,0.0142312271584677,,
80.8622353797961,0.191751196863736,0.0140881508358484,,
81.3493572796744,0.186740987889536,0.0138669516654857,,
81.8364791795527,0.181642473689376,0.0137221494768571,,
82.3236010794309,0.176760623505165,0.0135080446310085,,
82.8107229793092,0.171495570801936,0.0133468000153858,,
83.2978448791875,0.166401975460516,0.0131516675130583,,
83.7849667790658,0.161187985195641,0.0129677429876396,,
84.2720886789441,0.156009334588501,0.0127557619721985,,
84.7592105788224,0.150809895947399,0.0125295598208384,,
85.2463324787007,0.145633616932867,0.0123369450524544,,
85.733454378579,0.140256367404082,0.0121166189672492,,
86.2205762784573,0.134765749892898,0.0119030663985242,,
86.7076981783355,0.129447058206261,0.0117029024891715,,
87.1948200782138,0.123996260027738,0.0114457768797824,,
87.6819419780921,0.118538903370894,0.0112363704503409,,
88.1690638779704,0.113113197227731,0.0110345131618681,,
88.6561857778487,0.107589992277392,0.0108017608413946,,
89.143307677727,0.102043861931851,0.0106050364814774,,
89.6304295776053,0.0964741034970041,0.0103713257977609,,
90.1175514774836,0.0908752418146092,0.0101158976283529,,
90.6046733773619,0.0853532080211127,0.00987352918856033,,
91.0917952772402,0.0797019077910741,0.00966136137350393,,
91.5789171771185,0.0740679699612324,0.00942350455050356,,
92.0660390769967,0.068498182247464,0.00920400688098288,,
92.553160976875,0.0627393698192413,0.00892892414337254,,
93.0402828767533,0.0569952846883189,0.0086815567834444,,
93.5274047766316,0.0513039601731719,0.0084469973797372,,
94.0145266765099,0.0456151829241585,0.00819398948360384,,
94.5016485763882,0.0399090725538691,0.00793679077871312,,
94.9887704762665,0.0341729805683999,0.00768703157153894,,
95.4758923761448,0.0284132312147028,0.00742719736773001,,
95.9630142760231,0.0226811211624997,0.00718493044946777,,
96.4501361759013,0.0169567407454601,0.00693643823098755,,
96.9372580757796,0.0111981332696849,0.00668638664180676,,
97.4243799756579,0.00537915265865486,0.00639722083755867,,
97.9115018755362,-0.000372867059878673,0.00613279379973397,,
98.3986237754145,-0.0061138193462462,0.00587135555575191,,
98.8857456752928,-0.0118811226615804,0.00561360457373805,,
99.3728675751711,-0.0176746013323549,0.00533878579210567,,
99.8599894750494,-0.0234263868195198,0.00507019637155226,,
100.347111374928,-0.0291894154123772,0.00480102624784706,,
100.834233274806,-0.0349137958294168,0.00454148848690616,,
101.321355174684,-0.0406585543755239,0.0042459187045476,,
101.808477074563,-0.0464410241719745,0.00400888217550932,,
102.295598974441,-0.0521140493614502,0.00371313777611881,,
102.782720874319,-0.0577801647255523,0.00341885528676045,,
103.269842774197,-0.0634813562371012,0.0031368690851119,,
103.756964674076,-0.0691816108231757,0.00285569505570304,,
104.244086573954,-0.0748797573269329,0.00259774915235189,,
104.731208473832,-0.0804096671501983,0.00232310498775101,,
105.218330373711,-0.0861472230817212,0.00203984773654708,,
105.705452273589,-0.0917305962148679,0.0017374800725416,,
106.192574173467,-0.0972551772744978,0.00149709333301429,,
106.679696073345,-0.102803474260198,0.00119098561584474,,
107.166817973224,-0.108365239549592,0.000916581042054609,,
107.653939873102,-0.113789276794253,0.000630960369633282,,
108.14106177298,-0.119319830753782,0.000354155826874258,,
108.628183672859,-0.124703111740309,5.79403675851076E-05,,
109.115305572737,-0.130243093512424,-0.000197991348611648,,
109.602427472615,-0.135512947958709,-0.000480611044606949,,
110.089549372493,-0.140874211196587,-0.000775202159416732,,
110.576671272372,-0.146204907240865,-0.00103285568076172,,
111.06379317225,-0.151461293383456,-0.0013320903903522,,
111.550915072128,-0.156685238481497,-0.00162453940087959,,
112.038036972007,-0.161948534449461,-0.0018796427013914,,
112.525158871885,-0.16718495236788,-0.00215899746498316,,
113.012280771763,-0.1722431202148,-0.00244046590682867,,
113.499402671641,-0.177388832035731,-0.00272857385673442,,
113.98652457152,-0.182241110509657,-0.00298790045289321,,
114.473646471398,-0.187437064959151,-0.00327924287874382,,
114.960768371276,-0.19227441118333,-0.00355294695397745,,
115.447890271155,-0.19719139607283,-0.00381870392384442,,
115.935012171033,-0.202209803144931,-0.00410658649595375,,
116.422134070911,-0.206917150959541,-0.0043689993466236,,
116.90925597079,-0.211911900663414,-0.00464062223049266,,
117.396377870668,-0.216271414895663,-0.00490967865008418,,
117.883499770546,-0.221217444474868,-0.00517982338047673,,
118.370621670424,-0.22572856496044,-0.00545675584036331,,
118.857743570303,-0.230241207949906,-0.00570443791703434,,
119.344865470181,-0.234762341826485,-0.00600330105782509,,
119.831987370059,-0.239365281008544,-0.00626287130565606,,
120.319109269938,-0.243567391761099,-0.00651225691360002,,
120.806231169816,-0.247956594819317,-0.00678889902191093,,
121.293353069694,-0.252471638680312,-0.00705134435947041,,
121.780474969572,-0.256613551971139,-0.00727123187166612,,
122.267596869451,-0.26061164720165,-0.00753340107066425,,
122.754718769329,-0.264781434025339,-0.00782575262052276,,
123.241840669207,-0.268631729262267,-0.00805978411227359,,
123.728962569086,-0.272939712593426,-0.00831506812110927,,
124.216084468964,-0.276828187543435,-0.0086014867527564,,
124.703206368842,-0.280627361784168,-0.00885571696811027,,
125.19032826872,-0.28440141471062,-0.00907483900797024,,
125.677450168599,-0.288359924839838,-0.00930591825362992,,
126.164572068477,-0.291502080091669,-0.00956756766239453,,
126.651693968355,-0.295042018765212,-0.00978094155322706,,
127.138815868234,-0.298878962814131,-0.0100571288450833,,
127.625937768112,-0.302493855525623,-0.0102807036192476,,
128.11305966799,-0.305669330189636,-0.0105036794163849,,
128.600181567868,-0.30913595444481,-0.0107412052791975,,
129.087303467747,-0.31209546778698,-0.0109586562746737,,
129.574425367625,-0.315231123118332,-0.0111672870796262,,
130.061547267503,-0.318541983513391,-0.0114148351478778,,
130.548669167382,-0.321515550737677,-0.0116405073568511,,
131.03579106726,-0.324452577868462,-0.0118432093044532,,
131.522912967138,-0.327505783758069,-0.0120565344649513,,
132.010034867016,-0.330096089905495,-0.0122646129927806,,
132.497156766895,-0.332735233293272,-0.0124712783409127,,
132.984278666773,-0.335421867091031,-0.0126693509067484,,
133.471400566651,-0.337797207399931,-0.0128682518882681,,
133.95852246653,-0.340573551811862,-0.0130957088457384,,
134.445644366408,-0.342280630026166,-0.0132786262775797,,
134.932766266286,-0.344837031182988,-0.0134657324877474,,
135.419888166165,-0.347543398973551,-0.0136664060351808,,
135.907010066043,-0.349272202147293,-0.0138584035526623,,
136.394131965921,-0.351532769085582,-0.0140172319558722,,
136.881253865799,-0.353362818768397,-0.0141940601263455,,
137.368375765678,-0.355336686511529,-0.0144095416041403,,
137.855497665556,-0.356996918452115,-0.0145650746184871,,
138.342619565434,-0.35910500076945,-0.0147303841561701,,
138.829741465313,-0.36034964770431,-0.0148800837434044,,
139.316863365191,-0.36219316569082,-0.0150840364362561,,
139.803985265069,-0.363356768572147,-0.0151940228313965,,
140.291107164947,-0.3650090366462,-0.0153918842324492,,
140.778229064826,-0.365998195715768,-0.0155443594183131,,
141.265350964704,-0.367304738289778,-0.015692481360972,,
141.752472864582,-0.368436778494187,-0.0158578579028648,,
142.239594764461,-0.369714276378493,-0.016021315687841,,
142.726716664339,-0.370649328001915,-0.0161244128319575,,
143.213838564217,-0.371241933364455,-0.0162637673752881,,
143.700960464095,-0.371958212889612,-0.0163741090957834,,
144.188082363974,-0.373150157766538,-0.0165056464813063,,
144.675204263852,-0.373331921308566,-0.0166202602277825,,
145.16232616373,-0.373688655682933,-0.0167520737518667,,
145.649448063609,-0.374404291071826,-0.0168840700147048,,
146.136569963487,-0.374675765228025,-0.0169623309317295,,
146.623691863365,-0.374978802061142,-0.017085976033512,,
147.110813763243,-0.37492586577184,-0.0171713028490226,,
147.597935663122,-0.375062949680309,-0.0172899774566977,,
148.085057563,-0.375169700626545,-0.0173738586056214,,
148.572179462878,-0.374823330990239,-0.0174911525204888,,
149.059301362757,-0.37481817790013,-0.0175767229876711,,
149.546423262635,-0.374459569674814,-0.0176539280807839,,
150.033545162513,-0.373980098063305,-0.0177167739686972,,
150.520667062392,-0.374035142434924,-0.0177602576704148,,
151.00778896227,-0.372986957060471,-0.0178723211960583,,
151.494910862148,-0.372298316836808,-0.0179031999846142,,
151.982032762026,-0.371801453546181,-0.0179882181746738,,
152.469154661905,-0.370899955566309,-0.0180500569690096,,
152.956276561783,-0.370242643788196,-0.0181008177339956,,
153.443398461661,-0.369145562615549,-0.0181369593986651,,
153.93052036154,-0.368033900540208,-0.0181772756286476,,
154.417642261418,-0.366999593374344,-0.0182325520712863,,
154.904764161296,-0.36590965625844,-0.0182764418591237,,
155.391886061174,-0.364312198324637,-0.0183019440674523,,
155.879007961053,-0.362417266552721,-0.0183229955719071,,
156.366129860931,-0.361255713195869,-0.018368672138672,,
156.853251760809,-0.359756105416296,-0.0183679899139904,,
157.340373660688,-0.358166611349025,-0.0183538906039082,,
157.827495560566,-0.356460997080774,-0.018405983331367,,
158.314617460444,-0.354747360388149,-0.0183993397624458,,
158.801739360322,-0.352449550662254,-0.0183926312197449,,
159.288861260201,-0.350808818483104,-0.0183872546395176,,
159.775983160079,-0.348536715649911,-0.0183601930604889,,
160.263105059957,-0.346364746726792,-0.0183639290527915,,
160.750226959836,-0.344156998962121,-0.0183442419976996,,
161.237348859714,-0.341758938210468,-0.0183339598971441,,
161.724470759592,-0.339174487847257,-0.0182847260159691,,
162.21159265947,-0.336950695233837,-0.0182471061978231,,
162.698714559349,-0.334258732672442,-0.0182284099928633,,
163.185836459227,-0.33188005456654,-0.0182002925899227,,
163.672958359105,-0.328944432823966,-0.0181702422170509,,
164.160080258984,-0.326283564476752,-0.0181224377590179,,
164.647202158862,-0.32328774527245,-0.0180590558374263,,
165.13432405874,-0.320257318383438,-0.0179947155525917,,
165.621445958618,-0.317234269782537,-0.0179497861842877,,
166.108567858497,-0.313949174838023,-0.0178947209064311,,
166.595689758375,-0.310967350957995,-0.0178165574500757,,
167.082811658253,-0.307600333592315,-0.0177354539302121,,
167.569933558132,-0.304374499184055,-0.0176658670127083,,
168.05705545801,-0.300991963990206,-0.0175859979946495,,
168.544177357888,-0.297576870636123,-0.0175116375348066,,
169.031299257767,-0.294031017620523,-0.0174179128583369,,
169.518421157645,-0.290563514997717,-0.017310149784703,,
