Time domain (s),Current (AC) (A),Potential (AC) (V),Frequency (Hz),Column 5
0,-0.431397593508116,-0.00742640480513934,501.19,0.5
6.23516031844211E-05,-0.393751359982221,-0.00697745888806045,,
0.000124703206368842,-0.340844654958737,-0.00622619086043796,,
0.000187054809553263,-0.275065555511416,-0.00524807210503031,,
0.000249406412737684,-0.198790941482484,-0.00408791976668255,,
0.000311758015922105,-0.114773406189986,-0.00275141439717608,,
0.000374109619106527,-0.0265996297211041,-0.00134559157600789,,
0.000436461222290948,0.0623426191665366,0.000142948844148894,,
0.000498812825475369,0.150284962410466,0.00162775241133728,,
0.00056116442865979,0.231840675804986,0.00305039608901847,,
0.000623516031844211,0.304124225652601,0.00438836675986787,,
0.000685867635028632,0.36433038451507,0.00550216974329087,,
0.000748219238213053,0.410954051910793,0.00642491148241708,,
0.000810570841397474,0.441897957846061,0.00711052865717265,,
0.000872922444581895,0.455473281658229,0.00751230558729699,,
0.000935274047766316,0.451787894765708,0.00761322403550269,,
0.000997625650950737,0.431005654744563,0.00745549337860441,,
0.00105997725413516,0.393451673568892,0.0069949404683527,,
0.00112232885731958,0.341072522186387,0.00624772711019972,,
0.001184680460504,0.275589222215336,0.00525933451820659,,
0.00124703206368842,0.199226171453293,0.00410534614726643,,
0.00130938366687284,0.11530053191129,0.00276292939083511,,
0.00137173527005726,0.0273484178347507,0.00133813794269244,,
0.00143408687324168,-0.0618555752549171,-0.000142704627258627,,
0.00149643847642611,-0.15010095694964,-0.00165484543171779,,
0.00155879007961053,-0.231666726456555,-0.00306479484924793,,
0.00162114168279495,-0.304077653727826,-0.00436424783285272,,
0.00168349328597937,-0.364699964475535,-0.0054859109201697,,
0.00174584488916379,-0.411557311674512,-0.00643028425400827,,
0.00180819649234821,-0.442469230613973,-0.00708600827773509,,
0.00187054809553263,-0.456255590146522,-0.00749157391509891,,
0.00193289969871705,-0.452401816861362,-0.00760250023766007,,
0.00199525130190147,-0.431477186567915,-0.00741404508867394,,
0.0020576029050859,-0.393902843547645,-0.00698198693684526,,
0.00211995450827032,-0.340944930802892,-0.0062181032668378,,
0.00218230611145474,-0.274966706066182,-0.00525641395183118,,
0.00224465771463916,-0.198696157274174,-0.00410928038100966,,
0.00230700931782358,-0.114737318297282,-0.00275576681052581,,
0.002369360921008,-0.0265902154882246,-0.00134117058120253,,
0.00243171252419242,0.0623299955360846,0.000147905108851543,,
0.00249406412737684,0.150182154708225,0.00163938449528667,,
0.00255641573056126,0.231778805751783,0.00307726663784758,,
0.00261876733374569,0.304174934134247,0.00436923420648716,,
0.00268111893693011,0.36477456513911,0.00550234370600755,,
0.00274347054011453,0.411348130272728,0.00642093710343206,,
0.00280582214329895,0.441813764649741,0.00711616906371226,,
0.00286817374648337,0.455439190724014,0.00751411881407327,,
0.00293052534966779,0.452077453746697,0.00761526809742152,,
0.00299287695285221,0.430666564061038,0.00745022766099268,,
0.00305522855603663,0.393601730735395,0.0069957601003825,,
0.00311758015922105,0.341160744959659,0.00624505410615184,,
0.00317993176240548,0.275355792031893,0.00529870696456802,,
0.0032422833655899,0.199254556791823,0.00408456094807841,,
0.00330463496877432,0.115298249673016,0.00277328686334188,,
0.00336698657195874,0.0273395385014667,0.00133957648054039,,
0.00342933817514316,-0.0619592031365371,-0.000157588475831805,,
0.00349168977832758,-0.150100386390072,-0.00163595709522735,,
0.003554041381512,-0.231568447570889,-0.00306955038773893,,
0.00361639298469642,-0.304200537994881,-0.0043650942283775,,
0.00367874458788084,-0.364616306178811,-0.00550031302583598,,
0.00374109619106526,-0.411715427994919,-0.00641688912483573,,
0.00380344779424969,-0.442292214507861,-0.00708415490571657,,
0.00386579939743411,-0.45591924528092,-0.00747906699941181,,
0.00392815100061853,-0.452309885450895,-0.00759441264405991,,
0.00399050260380295,-0.431486600800795,-0.00741464894002641,,
0.00405285420698737,-0.393754783339632,-0.00696621487478666,,
0.00411520581017179,-0.341003056558928,-0.00622809775944599,,
0.00417755741335621,-0.275178668945862,-0.00526311820729131,,
0.00423990901654063,-0.198827314654972,-0.00409286264963749,,
0.00430226061972505,-0.11473446549944,-0.00274688634839082,,
0.00436461222290948,-0.0265864355310836,-0.00133082481772462,,
0.0044269638260939,0.0623199750836636,0.000137427200617601,,
0.00448931542927832,0.150316200546839,0.00163291107496955,,
0.00455166703246274,0.231909998792553,0.0030800868411176,,
0.00461401863564716,0.304409505436826,0.00437425905264499,,
0.00467637023883158,0.364340939867087,0.00553158951500476,,
0.004738721842016,0.411069483243486,0.00643916638886166,,
0.00480107344520042,0.44155715548383,0.0071139811480081,,
0.00486342504838485,0.455306000724753,0.00750160018935686,,
0.00492577665156927,0.451924793402163,0.00760148155213702,,
0.00498812825475369,0.430883661976833,0.00745263303009214,,
0.00505047985793811,0.393667879985362,0.00698639622262176,,
0.00511283146112253,0.341118059971944,0.00624050096659046,,
0.00517518306430695,0.275532772478032,0.00527999593623107,,
0.00523753466749137,0.199385428892837,0.0040827744847971,,
0.00529988627067579,0.115381872309767,0.00278160696480345,,
0.00536223787386021,0.0273535885308398,0.00134952915518793,,
0.00542458947704463,-0.0618987951422273,-0.000125748280552784,,
0.00548694108022906,-0.149951185062922,-0.00163816006539719,,
0.00554929268341348,-0.231625146928004,-0.00308678775114046,,
0.0056116442865979,-0.30412550941163,-0.00438834835996538,,
0.00567399588978232,-0.364716296743182,-0.00549395669580877,,
0.00573634749296674,-0.411463383305555,-0.00640392555701785,,
0.00579869909615116,-0.442437421918032,-0.00708055354294101,,
0.00586105069933558,-0.456287113562679,-0.00749909780258884,,
0.00592340230252,-0.452243700540955,-0.00760006977778405,,
0.00598575390570442,-0.431392387152054,-0.0074361701353225,,
0.00604810550888884,-0.39355715576911,-0.00697216640695375,,
0.00611045711207327,-0.34098729485085,-0.00622863470206125,,
0.00617280871525769,-0.275101072844553,-0.00527287015572719,,
0.00623516031844211,-0.198730533488174,-0.0040947979848589,,
0.00629751192162653,-0.114777114827181,-0.00275942337300972,,
0.00635986352481095,-0.0265105511084796,-0.00132738570863644,,
0.00642221512799537,0.0623214014825848,0.000132658280378894,,
0.00648456673117979,0.150294127023534,0.00166124357970521,,
0.00654691833436421,0.231714082900736,0.0030544541039248,,
0.00660926993754864,0.30407640562877,0.00436337969198863,,
0.00667162154073306,0.364663448663154,0.0055052207817039,,
0.00673397314391748,0.411012462946613,0.00644022689234491,,
0.0067963247471019,0.441807738114299,0.00710075998155224,,
0.00685867635028632,0.455329215367195,0.0075025536388611,,
0.00692102795347074,0.451928216759574,0.0076094771462234,,
0.00698337955665516,0.430909123197576,0.00746093305893236,,
0.00704573115983958,0.393473426152439,0.00698016367375853,,
0.007108082763024,0.341277567031299,0.00625186541559097,,
0.00717043436620842,0.27546291459087,0.00527272630194231,,
0.00723278596939285,0.199366814386916,0.00409342970118454,,
0.00729513757257727,0.115320002256563,0.0027665692261345,,
0.00735748917576169,0.0273203534359775,0.00134141647081121,,
0.00741984077894611,-0.0619351683147161,-0.000164722619927726,,
0.00748219238213053,-0.150060019300604,-0.00163621302114692,,
0.00754454398531495,-0.23154491198869,-0.0030831328613754,,
0.00760689558849937,-0.30423149085147,-0.00437794906949751,,
0.00766924719168379,-0.364893526809132,-0.00550837385594116,,
0.00773159879486821,-0.411189300752861,-0.00639260125325958,,
0.00779395039805264,-0.442053649288302,-0.00708573897006781,,
0.00785630200123706,-0.456309436705794,-0.00748343279450925,,
0.00791865360442148,-0.452428133921457,-0.00760782115497971,,
0.0079810052076059,-0.431467415735306,-0.00742765432580494,,
0.00804335681079032,-0.393812053256315,-0.00697705576291918,,
0.00810570841397474,-0.341008762154613,-0.00624278088180796,,
0.00816806001715916,-0.275025402381787,-0.00526368191340154,,
0.00823041162034358,-0.198816188743387,-0.00410493967668835,,
0.00829276322352801,-0.114781679303729,-0.00276945801086015,,
0.00835511482671242,-0.0265555539944412,-0.00132238929869155,,
0.00841746642989685,0.0623088135121058,0.000143136188612836,,
0.00847981803308127,0.150257753851045,0.00164678794704942,,
0.00854216963626569,0.231919163405622,0.00308405118379218,,
0.00860452123945011,0.304142840158521,0.00437102066976802,,
0.00866687284263453,0.364522235169962,0.00552511609468809,,
0.00872922444581895,0.411057144892818,0.00643662720228777,,
0.00879157604900337,0.441726148096011,0.00708778303198709,,
0.00885392765218779,0.45565311490221,0.00751986962002915,,
0.00891627925537222,0.45219513165769,0.00762640505671586,,
0.00897863085855664,0.430987646458184,0.00745421542172497,,
0.00904098246174106,0.393350541885384,0.00699906539199624,,
0.00910333406492548,0.341110036478013,0.00623500441383573,,
0.0091656856681099,0.275484381894633,0.0052787715063416,,
0.00922803727129432,0.199361928970611,0.00409509907417593,,
0.00929038887447874,0.115325172952652,0.0027662748276911,,
0.00935274047766316,0.0273908175426812,0.00133416021827015,,
0.00941509208084758,-0.061893374826327,-0.000139559916613408,,
0.00947744368403201,-0.150096392473093,-0.00162224080411688,,
0.00953979528721643,-0.231673287891592,-0.00306409565294485,,
0.00960214689040085,-0.304101189310025,-0.00435962611183571,,
0.00966449849358527,-0.364844601326137,-0.00550427569579215,,
0.00972685009676969,-0.411443627680498,-0.00639277521597625,,
0.00978920169995411,-0.442346346346918,-0.00709782937886638,,
0.00985155330313853,-0.456214081937917,-0.00748554209244734,,
0.00991390490632295,-0.452396325225515,-0.00760279630882188,,
0.00997625650950737,-0.430868328188431,-0.00741063274308074,,
0.0100386081126918,-0.393799429625863,-0.00696383794190014,,
0.0101009597158762,-0.340968109785361,-0.00624929779280414,,
0.0101633113190606,-0.275068408309259,-0.00526992784401203,,
0.0102256629222451,-0.198839367725856,-0.00410598847114274,,
0.0102880145254295,-0.114786814339845,-0.00276456865489472,,
0.0103503661286139,-0.0265297361739687,-0.00133441447147131,,
0.0104127177317983,0.0623288544169477,0.000142249647845816,,
0.0104750693349827,0.150224269136372,0.00163176693556499,,
0.0105374209381672,0.231824628817124,0.00306048592657682,,
0.0105997725413516,0.304134281764995,0.00436410230634943,,
0.010662124144536,0.364701248234564,0.00552105807978132,,
0.0107244757477204,0.411125326761248,0.00643465339454252,,
0.0107868273509048,0.441979298244538,0.00714127656731822,,
0.0108491789540893,0.455633359277152,0.00750139611770884,,
0.0109115305572737,0.451795632979855,0.00761741586788345,,
0.0109738821604581,0.4310379983401,0.00745045515069886,,
0.0110362337636425,0.393482305485723,0.00696525306169038,,
0.011098585366827,0.341250929031447,0.00623833646894445,,
0.0111609369700114,0.275504422799475,0.00527707871529204,,
0.0112232885731958,0.199289753185202,0.00408999059209636,,
0.0112856401763802,0.115335763964642,0.00277066738628351,,
0.0113479917795646,0.0273455650369084,0.00134216919410379,,
0.0114103433827491,-0.0619360241540688,-0.000166509083209032,,
0.0114726949859335,-0.150037981437272,-0.00164290222214092,,
0.0115350465891179,-0.231709375784297,-0.00307069285442507,,
0.0115973981923023,-0.30407251869171,-0.00436498550167963,,
0.0116597497954867,-0.364891529850643,-0.00549645573714042,,
0.0117221013986712,-0.411417025340619,-0.00641152973499226,,
0.0117844530018556,-0.442008147162718,-0.00710461392481099,,
0.01184680460504,-0.455908119369335,-0.00748762462689001,,
0.0119091562082244,-0.452366014248442,-0.00760851867856438,,
0.0119715078114088,-0.431403013824017,-0.00742313965876784,,
0.0120338594145933,-0.39398992520178,-0.00696577160440315,,
0.0120962110177777,-0.341098126047021,-0.00623289344317923,,
0.0121585626209621,-0.275225597470367,-0.00527730453228026,,
0.0122209142241465,-0.198674689970411,-0.00409975424956111,,
0.012283265827331,-0.114769340953061,-0.00275787778118231,,
0.0123456174305154,-0.0265824416141045,-0.00135551915987886,,
0.0124079690336998,0.0623010752979587,0.000147704382639891,,
0.0124703206368842,0.150243454201861,0.00164011045508428,,
0.0125326722400686,0.231973865804247,0.00308210079410509,,
0.0125950238432531,0.304220471919804,0.00436126872133213,,
0.0126573754464375,0.364694686799527,0.00552121866075028,,
0.0127197270496219,0.411042524303876,0.0064239178876706,,
0.0127820786528063,0.441516467454605,0.00709079392515743,,
0.0128444302559907,0.455737878658098,0.00751934438644275,,
0.0129067818591752,0.45181335598645,0.00762894424328975,,
0.0129691334623596,0.430933514619127,0.00744262348301827,,
0.013031485065544,0.393504379009028,0.00697531279031693,,
0.0130938366687284,0.341128080424365,0.00624154808832644,,
0.0131561882719128,0.275420514882939,0.00529209972677691,,
0.0132185398750973,0.199300665136949,0.00408540734360319,,
0.0132808914782817,0.115376701613678,0.00276150423473442,,
0.0133432430814661,0.0273011683704883,0.00134888348587436,,
0.0134055946846505,-0.0619833092783042,-0.000159657628527654,,
0.013467946287835,-0.149983849598216,-0.00165234639038614,,
0.0135302978910194,-0.231788754884257,-0.00305064866950122,,
0.0135926494942038,-0.304141556399492,-0.00435970640232064,,
0.0136550010973882,-0.364795604523197,-0.00550320181056119,,
0.0137173527005726,-0.411179886519981,-0.00643185493661225,,
0.0137797043037571,-0.442422230769522,-0.00707614760260133,,
0.0138420559069415,-0.456011533291117,-0.00749736486629704,,
0.0139044075101259,-0.452401531581578,-0.00761434977500475,,
0.0139667591133103,-0.431315361610313,-0.0074163684945705,,
0.0140291107164947,-0.393766551130731,-0.0069512089177679,,
0.0140914623196792,-0.34066970713106,-0.00625205108733651,,
0.0141538139228636,-0.27508502585669,-0.00527747849499649,,
0.014216165526048,-0.198751430232368,-0.0040932122477888,,
0.0142785171292324,-0.114714067994868,-0.00277287035645335,,
0.0143408687324168,-0.0265770212982042,-0.00134372314952369,,
0.0144032203356013,0.0623815598570834,0.000123227493881384,,
0.0144655719387857,0.150211360226136,0.00163447004854467,,
0.0145279235419701,0.231763079703677,0.0030665311309761,,
0.0145902751451545,0.304060964860449,0.00436374099916881,,
0.014652626748339,0.364533147121709,0.00548794494577809,,
0.0147149783515234,0.410978407672372,0.00641405888525526,,
0.0147773299547078,0.441527664686135,0.00711788861825635,,
0.0148396815578922,0.45536330630141,0.00749494946088669,,
0.0149020331610766,0.452086297420008,0.00760986521689899,,
0.0149643847642611,0.430837838911492,0.00744211163117914,,
0.0150267363674455,0.393198773040176,0.00697550348021769,,
0.0150890879706299,0.34113838615657,0.00626676264591186,,
0.0151514395738143,0.275657938983361,0.0052687117777146,,
0.0152137911769987,0.199305229613497,0.00411389039299737,,
0.0152761427801832,0.115319431696995,0.00278664519270899,,
0.0153384943833676,0.0273919586618181,0.00135724038714136,,
0.015400845986552,-0.0618661306069335,-0.000157158587196005,,
0.0154631975897364,-0.150051674866915,-0.00165895697361407,,
0.0155255491929209,-0.231691902397513,-0.00308011025917576,,
0.0155879007961053,-0.303916470649738,-0.00436452884954885,,
0.0156502523992897,-0.364624935892284,-0.00548698480540066,,
0.0157126040024741,-0.411453969072676,-0.00641345001574756,,
0.0157749556056585,-0.44233400799625,-0.00708121259400141,,
0.015837307208843,-0.455609146155466,-0.007506795652795,,
0.0158996588120274,-0.45222480075525,-0.00759402457338476,,
0.0159620104152118,-0.431374057925918,-0.00741163971957448,,
0.0160243620183962,-0.393790300672768,-0.00695401741200863,,
0.0160867136215806,-0.340801435071427,-0.00627310392147296,,
0.0161490652247651,-0.275052931880964,-0.00526388263961275,,
0.0162114168279495,-0.198870605862229,-0.00410147380410519,,
0.0162737684311339,-0.114749585328004,-0.00277514023536041,,
0.0163361200343183,-0.0265784476971253,-0.0013385912493864,,
0.0163984716375027,0.0622985077799007,0.000148294852245101,,
0.0164608232406872,0.150206795749588,0.00162913407675891,,
0.0165231748438716,0.231798882316597,0.00308361962243753,,
0.016585526447056,0.304032294242134,0.00437467723225193,,
0.0166478780502404,0.364424883443595,0.00551286175948329,,
0.0167102296534248,0.411262760297299,0.00643036788992957,,
0.0167725812566093,0.441740447745195,0.00710871543039637,,
0.0168349328597937,0.455373576373642,0.00752271658679371,,
0.0168972844629781,0.451726880551857,0.0076268867996232,,
0.0169596360661625,0.431008257922594,0.00746825622021063,,
0.017021987669347,0.393479987587477,0.00698594124320939,,
0.0170843392725314,0.341046169466319,0.00624667998846373,,
0.0171466908757158,0.275650486048998,0.00528582368723463,,
0.0172090424789002,0.199361643690827,0.00407929523046668,,
0.0172713940820846,0.115370425458425,0.00276053740348292,,
0.0173337456852691,0.0272942859956938,0.00134464147194091,,
0.0173960972884535,-0.0619486477845208,-0.000162559795000128,,
0.0174584488916379,-0.150043116473388,-0.00165366281978896,,
0.0175208004948223,-0.231725993331728,-0.00304586636751525,,
0.0175831520980067,-0.304210023547707,-0.00436395176169091,,
0.0176455037011912,-0.364774993058786,-0.00549438825716342,,
0.0177078553043756,-0.411405542829304,-0.00641975114606641,,
0.01777020690756,-0.442448333869778,-0.00707578462270231,,
0.0178325585107444,-0.45600803861376,-0.00750310061778725,,
0.0178949101139289,-0.452421857766204,-0.00759263956252632,,
0.0179572617171133,-0.431389819633996,-0.00741678500145904,,
0.0180196133202977,-0.393894570433903,-0.0069651945165452,,
0.0180819649234821,-0.340919683541988,-0.00623513823130972,,
0.0181443165266665,-0.275083599457769,-0.00526857126936697,,
0.018206668129851,-0.198864828946598,-0.00410569239998093,,
0.0182690197330354,-0.114724409387046,-0.00279265861545808,,
0.0183313713362198,-0.0265497770788106,-0.00133069100025018,,
0.0183937229394042,0.0622589608698123,0.000148577541659645,,
0.0184560745425886,0.150234004309009,0.00164544308143322,,
0.0185184261457731,0.231899407780564,0.0030354185682131,,
0.0185807777489575,0.304046629551291,0.00437544333729223,,
0.0186431293521419,0.364630498848076,0.00549674344471018,,
0.0187054809553263,0.410818009113691,0.0064293040410095,,
0.0187678325585107,0.441694909959638,0.00709475492239564,,
0.0188301841616952,0.455334635683095,0.00747103627823842,,
0.0188925357648796,0.451615478796116,0.00764913395471734,,
0.018954887368064,0.430849856322403,0.00744848134295362,,
0.0190172389712484,0.393592566122327,0.00697877866290009,,
0.0190795905744329,0.341123230668033,0.00623600135401858,,
0.0191419421776173,0.275526781602563,0.00528121702068329,,
0.0192042937808017,0.19917549863162,0.00408633402961245,,
0.0192666453839861,0.115294220096064,0.00275658978799243,,
0.0193289969871705,0.0273194975966248,0.00132459561429821,,
0.019391348590355,-0.0618987951422273,-0.000144987887912951,,
0.0194537001935394,-0.150131909806229,-0.00163627992988413,,
0.0195160517967238,-0.231626288047141,-0.00304715603342309,,
0.0195784033999082,-0.304152753631023,-0.00436936635124274,,
0.0196407550030926,-0.364752669915671,-0.00549159314466996,,
0.0197031066062771,-0.411258338460643,-0.00642379410650706,,
0.0197654582094615,-0.442284511953687,-0.00709033392758984,,
0.0198278098126459,-0.456080570998899,-0.00750388010457481,,
0.0198901614158303,-0.452398036904221,-0.00761496700810449,,
0.0199525130190147,-0.431399019907037,-0.00743145474207374,,
0.0200148646221992,-0.393481271346506,-0.00694752893722583,,
0.0200772162253836,-0.340997921522812,-0.00624141092541519,,
0.020139567828568,-0.275192148415667,-0.00527812249159165,,
0.0202019194317524,-0.198887793969228,-0.00409647739416075,,
0.0202642710349369,-0.114751867566277,-0.00277011538920213,,
0.0203266226381213,-0.0265678210251629,-0.0013398825880131,,
0.0203889742413057,0.0623013605777429,0.000146561915953747,,
0.0204513258444901,0.150217957321146,0.00164341574669802,,
