Time domain (s),Current (AC) (A),Potential (AC) (V),Frequency (Hz),Column 5
0,-0.459293463248796,-0.0212917411806601,0.0050119,0.5
0.48712189987829,-0.459856248943128,-0.0214084281732072,,
0.974243799756579,-0.460082475812019,-0.0215254274199541,,
1.46136569963487,-0.459889911957666,-0.0216331204240081,,
1.94848759951316,-0.460049668636833,-0.0217441014380988,,
2.43560949939145,-0.459800405425365,-0.0218985738576727,,
2.92273139926974,-0.459073512535158,-0.0219746010832496,,
3.40985329914803,-0.458810769853886,-0.0220628702747665,,
3.89697519902632,-0.458302115998612,-0.0221602695655814,,
4.38409709890461,-0.457730343991077,-0.0222429608829287,,
4.8712189987829,-0.456880210234084,-0.0223167062508911,,
5.35834089866119,-0.456440879366376,-0.0223917540124399,,
5.84546279853948,-0.455191924471036,-0.0224983794807674,,
6.33258469841777,-0.454318112491952,-0.0225401174588207,,
6.81970659829605,-0.453182984230518,-0.022591038912958,,
7.30682849817434,-0.452101488568518,-0.0226534497203481,,
7.79395039805263,-0.450692776994011,-0.0227198290918,,
8.28107229793092,-0.448988800842831,-0.022720512314665,,
8.76819419780921,-0.447405783320162,-0.0227615270372636,,
9.2553160976875,-0.445988513352128,-0.0228398201074196,,
9.74243799756579,-0.443904829808143,-0.0228477198717929,,
10.2295598974441,-0.442026048469178,-0.0228905494051261,,
10.7166817973224,-0.439992502847271,-0.0229112168967847,,
11.2038036972007,-0.438177267580242,-0.0229150600253987,,
11.690925597079,-0.435677004231341,-0.0229096582946244,,
12.1780474969572,-0.43359560292563,-0.0229061807969964,,
12.6651693968355,-0.43136478633293,-0.0229092312803338,,
13.1522912967138,-0.428765031659281,-0.0228710135013377,,
13.6394131965921,-0.426244584765646,-0.0228706318573155,,
14.1265350964704,-0.423405266393193,-0.0228355072630859,,
14.6136569963487,-0.420815425192045,-0.022822248469367,,
15.100778896227,-0.417413178485368,-0.0227933609526176,,
15.5879007961053,-0.414518159235045,-0.0227527091921655,,
16.0750226959836,-0.411480785372393,-0.022721326310656,,
16.5621445958618,-0.408558093983,-0.0226623289487504,,
17.0492664957401,-0.405170967104887,-0.0226219360657121,,
17.5363883956184,-0.401827987273384,-0.0225338216668756,,
18.0235102954967,-0.398234389151437,-0.0224705568309047,,
18.510632195375,-0.394678376641063,-0.0224280075256997,,
18.9977540952533,-0.391222782614736,-0.0223299009924665,,
19.4848759951316,-0.387093357738068,-0.0222663399153316,,
19.9719978950099,-0.383476010074085,-0.0222017540038992,,
20.4591197948882,-0.379415551585253,-0.022105803892833,,
20.9462416947665,-0.375594014915711,-0.0220052446962691,,
21.4333635946447,-0.371532201347904,-0.0219331406644852,,
21.920485494523,-0.367120349484852,-0.0218164163081882,,
22.4076073944013,-0.363053044281199,-0.0216740710944632,,
22.8947292942796,-0.358591839015477,-0.0215993862950614,,
23.3818511941579,-0.353957540240675,-0.0214596458685086,,
23.8689730940362,-0.349491556538566,-0.0213218697076916,,
24.3560949939145,-0.344856829844088,-0.0212054842939873,,
24.8432168937928,-0.340166544911632,-0.0210746070828005,,
25.3303387936711,-0.335384399888655,-0.0209351228648216,,
25.8174606935494,-0.330538994073526,-0.02078434411886,,
26.3045825934276,-0.325366728945621,-0.020626757163805,,
26.7917044933059,-0.320439162552635,-0.0204906623717567,,
27.2788263931842,-0.315546043693594,-0.0203029068570806,,
27.7659482930625,-0.310246686421816,-0.0201645115255427,,
28.2530701929408,-0.305012372940842,-0.0199813010442207,,
28.7401920928191,-0.299621155578543,-0.0198033615205464,,
29.2273139926974,-0.294346617647992,-0.0196279680695794,,
29.7144358925757,-0.288876092505679,-0.0194547710733688,,
30.201557792454,-0.283365057634005,-0.0192494225699256,,
30.6886796923322,-0.277781062457516,-0.0190550429960688,,
31.1758015922105,-0.272146786719056,-0.0188472364916161,,
31.6629234920888,-0.266295341744855,-0.0186760891639999,,
32.1500453919671,-0.26069843765813,-0.0184598491273107,,
32.6371672918454,-0.254810048951871,-0.0182711942137854,,
33.1242891917237,-0.24899169643264,-0.0180173342181069,,
33.611411091602,-0.242823091658326,-0.0178068802250535,,
34.0985329914803,-0.23696686824774,-0.0175722999245891,,
34.5856548913586,-0.231055300559013,-0.0173587073765011,,
35.0727767912369,-0.224906094810026,-0.0171200063881338,,
35.5598986911151,-0.218574309999135,-0.0169097232007966,,
36.0470205909934,-0.212276116882836,-0.0166669442259555,,
36.5341424908717,-0.205976925287293,-0.0164055927983187,,
37.02126439075,-0.199717030982026,-0.0162086938401478,,
37.5083862906283,-0.193521324628211,-0.015944246558905,,
37.9955081905066,-0.187046044085854,-0.0157087054762872,,
38.4826300903849,-0.18046328438479,-0.0154215143463992,,
38.9697519902632,-0.173920321213626,-0.0151575768134653,,
39.4568738901415,-0.167498673270703,-0.0148653282330744,,
39.9439957900197,-0.160799448097729,-0.0146512019171232,,
40.431117689898,-0.154210340921467,-0.0143429616515545,,
40.9182395897763,-0.147527162736355,-0.0141060114217781,,
41.4053614896546,-0.14085725006121,-0.0138113502106458,,
41.8924833895329,-0.134018237793966,-0.0135116075294572,,
42.3796052894112,-0.127303036953075,-0.0132748067546826,,
42.8667271892895,-0.120458033810362,-0.0129434463341247,,
43.3538490891678,-0.113672654142551,-0.0126469676434189,,
43.8409709890461,-0.106953245424843,-0.0123767316497014,,
44.3280928889244,-0.09992901525769,-0.0120776935420919,,
44.8152147888026,-0.0930600486131016,-0.0117696908032223,,
45.3023366886809,-0.0861100625097931,-0.0114857850145311,,
45.7894585885592,-0.0791478093757629,-0.0111710140991579,,
46.2765804884375,-0.0721444759528042,-0.0108895502984403,,
46.7637023883158,-0.0651935626901969,-0.0105429828314634,,
47.2508242881941,-0.0581951503435161,-0.0102173657531122,,
47.7379461880724,-0.0511981643957564,-0.00992541074504594,,
48.2250680879507,-0.0441242242262018,-0.00960560106104502,,
48.712189987829,-0.0370599122493648,-0.00929763835476516,,
49.1993118877073,-0.0300970885557661,-0.0089853414534371,,
49.6864337875855,-0.0230441164503521,-0.0086586515016811,,
50.1735556874638,-0.015930379750898,-0.00831516387527431,,
50.6606775873421,-0.00881913924955584,-0.0080188399772485,,
51.1477994872204,-0.00173257544954923,-0.00766783156165074,,
51.6349213870987,0.0053501014133973,-0.00734104019400084,,
52.122043286977,0.0123556814146568,-0.00699773938634607,,
52.6091651868553,0.0194836821033222,-0.00668283769784628,,
53.0962870867336,0.0265571943532005,-0.00634767418126403,,
53.5834089866119,0.0335616688952961,-0.00597583280597069,,
54.0705308864901,0.0405490266503382,-0.00563987664411147,,
54.5576527863684,0.0476929673469472,-0.00531771571267381,,
55.0447746862467,0.0546683790110249,-0.00499634208883437,,
55.531896586125,0.0616491753310297,-0.00464773295978116,,
56.0190184860033,0.0686179542401241,-0.00432356239233878,,
56.5061403858816,0.0756193263645663,-0.00395929785186189,,
56.9932622857599,0.0825975551665132,-0.00363619748898492,,
57.4803841856382,0.0895535678052635,-0.00328839434940509,,
57.9675060855165,0.096435336380169,-0.00294473324844269,,
58.4546279853948,0.103364782339013,-0.00260969783614762,,
58.941749885273,0.110224655690479,-0.00222087997396914,,
59.4288717851513,0.117014885114621,-0.0018776245365828,,
59.9159936850296,0.123829292000477,-0.00155283746725843,,
60.4031155849079,0.130720546128208,-0.00120153547933644,,
60.8902374847862,0.137426368396192,-0.000868672502243761,,
61.3773593846645,0.144102450246671,-0.000517989685042686,,
61.8644812845428,0.150958864580753,-0.000155433201727284,,
62.3516031844211,0.157488063002329,0.000206359993543792,,
62.8387250842994,0.164202408003867,0.000550533511654461,,
63.3258469841777,0.170699619429636,0.000857786306676545,,
63.8129688840559,0.177180926507434,0.00121319030062672,,
64.3000907839342,0.183797991102551,0.00156609626097781,,
64.7872126838125,0.190153454135533,0.00189376567676236,,
65.2743345836908,0.196597353901625,0.00223546251198847,,
65.7614564835691,0.202810783262036,0.00260820328613143,,
66.2485783834474,0.20921784627599,0.00295145872351776,,
66.7357002833257,0.21552053254889,0.00328538389865773,,
67.222822183204,0.221679723090325,0.00361612781733367,,
67.7099440830823,0.227818658767079,0.00397748866063585,,
68.1970659829606,0.233953600526855,0.00431971926372521,,
68.6841878828388,0.240119352503327,0.00464805055165973,,
69.1713097827171,0.245919090516637,0.00500669985421753,,
69.6584316825954,0.252004964153525,0.00534736651746792,,
70.1455535824737,0.257733382220779,0.00568059245670716,,
70.632675482352,0.263611536514778,0.00600578518960715,,
71.1197973822303,0.269456099114185,0.00631778318093223,,
71.6069192821086,0.275216753797056,0.00665364593341478,,
72.0940411819869,0.280692984535054,0.00698673843068853,,
72.5811630818652,0.285921628080317,0.00729020147388271,,
73.0682849817434,0.291559576795999,0.00764537060997306,,
73.5554068816217,0.297107983319406,0.00794944748620985,,
74.0425287815,0.302266127097992,0.0083038266458626,,
74.5296506813783,0.307627390082947,0.00860307826061701,,
75.0167725812566,0.312709364159145,0.00894383566440426,,
75.5038944811349,0.318021559021214,0.00924767768278167,,
75.9910163810132,0.32289613469428,0.00957462117427221,,
76.4781382808915,0.327968409257814,0.00985711247812615,,
76.9652601807698,0.332815883351378,0.0101714590480486,,
77.4523820806481,0.337572638473559,0.0104694509706462,,
77.9395039805263,0.342341375346677,0.010778716070512,,
78.4266258804046,0.347007696777258,0.0110895130841451,,
78.9137477802829,0.351518540725437,0.0113791835657575,,
79.4008696801612,0.356113542209961,0.0116560382809774,,
79.8879915800395,0.360443233495156,0.0119332506206655,,
80.3751134799178,0.364626861530827,0.0122395052697835,,
80.8622353797961,0.369300314956014,0.0125191782793204,,
81.3493572796744,0.373354996529215,0.0128471732935016,,
81.8364791795527,0.377019985917163,0.0131113029828658,,
82.3236010794309,0.381253823194858,0.01335551245558,,
82.8107229793092,0.385174137989689,0.0136543157053297,,
83.2978448791875,0.388867940635844,0.0139139830953585,,
83.7849667790658,0.392346642324694,0.0141715794660784,,
84.2720886789441,0.396439551388981,0.0144529818834918,,
84.7592105788224,0.399712281073619,0.014708784794192,,
85.2463324787007,0.403063747978704,0.0149807875595367,,
85.733454378579,0.406477691156534,0.0152189120786117,,
86.2205762784573,0.409685662330152,0.0154741918968062,,
86.7076981783355,0.412789791662313,0.0157473903021641,,
87.1948200782138,0.415915602258075,0.0159691174724856,,
87.6819419780921,0.418758130028101,0.0162399085847809,,
88.1690638779704,0.421531049530775,0.0164461351363587,,
88.6561857778487,0.424339629006478,0.0166791568346629,,
89.143307677727,0.426910570421921,0.0168819726095957,,
89.6304295776053,0.429445566584551,0.0171109963866054,,
90.1175514774836,0.432030201429637,0.0173050743816194,,
90.6046733773619,0.43422314713098,0.017536964492054,,
91.0917952772402,0.436368165828574,0.0177753665704179,,
91.5789171771185,0.438793329274278,0.0179577870753023,,
92.0660390769967,0.440761474505651,0.0181500929610112,,
92.553160976875,0.442558451866489,0.018351344796105,,
93.0402828767533,0.444440157323243,0.0185495915181297,,
93.5274047766316,0.446107047102474,0.0187366184396729,,
94.0145266765099,0.44785124770323,0.0189202345845709,,
94.5016485763882,0.449559503051174,0.0191281905440248,,
94.9887704762665,0.450796761475362,0.0192546081247156,,
95.4758923761448,0.452071106271498,0.0194557105048081,,
95.9630142760231,0.453393663351169,0.0195768331082968,,
96.4501361759013,0.45432538712645,0.0197658723346836,,
96.9372580757796,0.455064832327163,0.0199367848044405,,
97.4243799756579,0.456163444776217,0.0200911291197272,,
97.9115018755362,0.456922859561826,0.0202143440932394,,
98.3986237754145,0.457663445881676,0.0203760330543221,,
98.8857456752928,0.458083092444272,0.0204930349699084,,
99.3728675751711,0.458688456146399,0.0206238881615413,,
99.8599894750494,0.458973735930625,0.020780906653822,,
100.347111374928,0.459160023629725,0.0208855678564142,,
100.834233274806,0.459638723107655,0.0209850141469836,,
101.321355174684,0.459443877015029,0.0211284375717917,,
101.808477074563,0.459284405615647,0.0212574172382256,,
102.295598974441,0.458976303448683,0.0213368205455367,,
102.782720874319,0.458691308944242,0.0214207235159334,,
103.269842774197,0.458516717716295,0.0214911595231446,,
103.756964674076,0.457889958030351,0.0216150150180927,,
104.244086573954,0.457081475121855,0.0216733451701696,,
104.731208473832,0.456540014091395,0.0217814011363706,,
105.218330373711,0.455507301272498,0.0218301234669123,,
105.705452273589,0.454834611541293,0.0219050004227443,,
106.192574173467,0.453556272828178,0.0219811584214478,,
106.679696073345,0.452448246146245,0.0220059252502947,,
107.166817973224,0.451690257759557,0.0220842396711651,,
107.653939873102,0.450114086951709,0.0221337092767149,,
108.14106177298,0.447970209373252,0.0221803178865185,,
108.628183672859,0.446398317762168,0.0222133901433148,,
109.115305572737,0.44506919924746,0.0222021383167612,,
109.602427472615,0.443289338673676,0.0222386480385954,,
110.089549372493,0.44141419465196,0.022270887617525,,
110.576671272372,0.439144508688659,0.0223115607286917,,
111.06379317225,0.437431974143952,0.0223291323667438,,
111.550915072128,0.435235605085198,0.0223057319836268,,
112.038036972007,0.432910004284189,0.0223077763145421,,
112.525158871885,0.430376719800264,0.0222723768298629,,
113.012280771763,0.427820612933601,0.0222888168800459,,
113.499402671641,0.425572322954118,0.0222788087326133,,
113.98652457152,0.422633655896808,0.0222281167986571,,
114.473646471398,0.419676160373739,0.0222284584100891,,
114.960768371276,0.416853887468394,0.0221781401136374,,
115.447890271155,0.41392777272159,0.022150939303335,,
115.935012171033,0.410885263822822,0.0221163458081288,,
116.422134070911,0.407770864418429,0.0220648745730925,,
116.90925597079,0.404415974155934,0.0219989382289669,,
117.396377870668,0.400928714073558,0.0219575391935067,,
117.883499770546,0.397280841472663,0.0218929372690386,,
118.370621670424,0.393618419602772,0.0217794368706343,,
118.857743570303,0.390375644295478,0.0217328923129743,,
119.344865470181,0.386410255294739,0.0216767612844935,,
119.831987370059,0.382657970292818,0.0215577097003128,,
120.319109269938,0.378405875108932,0.0214897343629503,,
120.806231169816,0.374522931965835,0.0213853026805397,,
121.293353069694,0.37051389515811,0.0213003695381673,,
121.780474969572,0.366370776851799,0.0211914435303493,,
122.267596869451,0.362178019863033,0.0210995874187927,,
122.754718769329,0.357701124209178,0.0209724652645225,,
123.241840669207,0.353273011398425,0.0208799739692092,,
123.728962569086,0.348890543353149,0.0207465960555839,,
124.216084468964,0.343988010261229,0.0206116168383694,,
124.703206368842,0.339315412675395,0.0204639979981573,,
125.19032826872,0.33458404745401,0.0203431956553861,,
125.677450168599,0.329570540526026,0.0202020674323888,,
126.164572068477,0.324530787857893,0.0200838698767893,,
126.651693968355,0.319592594792945,0.0198888524503364,,
127.138815868234,0.314689776421241,0.0197343373293331,,
127.625937768112,0.309581841884678,0.0195699314898272,,
128.11305966799,0.304057113583362,0.019412646113615,,
128.600181567868,0.298801974678138,0.019231485300887,,
129.087303467747,0.293565093679106,0.0190704368612402,,
129.574425367625,0.288048638491532,0.018835621702916,,
130.061547267503,0.282632031228437,0.0187037383393074,,
130.548669167382,0.277017439795089,0.0185028334533244,,
131.03579106726,0.271248226718691,0.0183159026099968,,
131.522912967138,0.265734588668987,0.0181064307498118,,
132.010034867016,0.259796240340516,0.0179115627783601,,
132.497156766895,0.253983379457131,0.0177137057068752,,
132.984278666773,0.248087252536726,0.0174844417343274,,
133.471400566651,0.242152541525504,0.0172806278134905,,
133.95852246653,0.236176785885326,0.0170792105103592,,
134.445644366408,0.230030468594155,0.016850539020139,,
134.932766266286,0.223930580587866,0.016605069855268,,
135.419888166165,0.217669545163463,0.0163922032314736,,
135.907010066043,0.211569443197336,0.0161327493485897,,
136.394131965921,0.205110102662923,0.0159247506877067,,
136.881253865799,0.198871283401716,0.015666855406983,,
137.368375765678,0.192486472210932,0.0154168385399185,,
137.855497665556,0.186021461740807,0.015152559395553,,
138.342619565434,0.179576706135363,0.0148986940621958,,
138.829741465313,0.173007568543995,0.0146474868927964,,
139.316863365191,0.166381660275567,0.0143850225591651,,
139.803985265069,0.159854458812482,0.0141214106246279,,
140.291107164947,0.153225376806454,0.0138449135338763,,
140.778229064826,0.146543304080507,0.0135873598645855,,
141.265350964704,0.139806992535583,0.0133165474015753,,
141.752472864582,0.133274085476813,0.0130509712013023,,
142.239594764461,0.126246467612222,0.0127795395675712,,
142.726716664339,0.119453991609779,0.0124982385660521,,
143.213838564217,0.112714541987229,0.0122083599149732,,
143.700960464095,0.105918000747861,0.0119310141333191,,
144.188082363974,0.0989746473995357,0.0116055651918447,,
144.675204263852,0.0919564437678242,0.0113175280398936,,
145.16232616373,0.0851034527911524,0.0110295816284789,,
145.649448063609,0.0781722951536028,0.0107300150906853,,
146.136569963487,0.0711030621004879,0.0104213478108259,,
146.623691863365,0.0640980169988239,0.0101397799253751,,
147.110813763243,0.0571731355165272,0.00980096009893083,,
147.597935663122,0.0501290070844242,0.00949023781279879,,
148.085057563,0.0430974309628271,0.00918202423562331,,
148.572179462878,0.0361046528918847,0.00886750685998461,,
149.059301362757,0.0290451193514335,0.00856383564732388,,
149.546423262635,0.0219701450426611,0.00824459442609715,,
150.033545162513,0.0148364744182842,0.00790975650791159,,
150.520667062392,0.00787850048101738,0.00756628756337951,,
151.00778896227,0.000703428627954724,0.00727455140013733,,
151.494910862148,-0.00636830062327214,0.00693483484368285,,
151.982032762026,-0.0134125003753212,0.00662279948860789,,
152.469154661905,-0.0204925027402906,0.00629993398359074,,
152.956276561783,-0.0275295704977341,0.00594948335541012,,
153.443398461661,-0.0346843874861167,0.00561626275384963,,
153.93052036154,-0.0417014143387183,0.00529838797835236,,
154.417642261418,-0.0486953335287975,0.00495558624364945,,
154.904764161296,-0.0558099260676043,0.00460169815043043,,
155.391886061174,-0.0627636208081078,0.00429162706109132,,
155.879007961053,-0.069699342922205,0.00393090140154628,,
156.366129860931,-0.0766621666158037,0.00361049122869961,,
156.853251760809,-0.0836575122048041,0.0032455648160723,,
157.340373660688,-0.0906378092851866,0.00291719616438701,,
157.827495560566,-0.0975754570378273,0.00257980683581582,,
158.314617460444,-0.104503262637912,0.00225525462435128,,
158.801739360322,-0.111289141545345,0.00188104065090666,,
159.288861260201,-0.118100410353574,0.00153545798563703,,
159.775983160079,-0.12492836802918,0.00118964046250802,,
160.263105059957,-0.131767380296424,0.000851872158753597,,
160.750226959836,-0.138512749474497,0.000499115653404658,,
161.237348859714,-0.145149926294402,0.000178988377525169,,
161.724470759592,-0.152030232810413,-0.000199052711498116,,
162.21159265947,-0.158583965293432,-0.000565687181286911,,
162.698714559349,-0.165297454455617,-0.000905502484795928,,
163.185836459227,-0.171847478301441,-0.00123902466519921,,
163.672958359105,-0.178248871379684,-0.00156910671172517,,
164.160080258984,-0.184790336831981,-0.00194729191807141,,
164.647202158862,-0.191181459837991,-0.00224827294070229,,
165.13432405874,-0.197690759994617,-0.00261243072760653,,
165.621445958618,-0.203924337239788,-0.00295094363752968,,
166.108567858497,-0.210232372508643,-0.00330660650889314,,
166.595689758375,-0.216471797989391,-0.00363956823304035,,
167.082811658253,-0.22271971054372,-0.00396984777367537,,
167.569933558132,-0.228687763629723,-0.00435212964837062,,
168.05705545801,-0.235024398196946,-0.00465806403677105,,
168.544177357888,-0.240775353367154,-0.00499694257768013,,
169.031299257767,-0.246743335133211,-0.00533622945100465,,
169.518421157645,-0.252685285118958,-0.00566626612726218,,
