Time domain (s),Current (AC) (A),Potential (AC) (V),Frequency (Hz),Column 5
0,0.133555407004032,0.00134333351928229,79.433,0.5
0.000239736239975829,0.18477560926312,0.00243506116174785,,
0.000479472479951657,0.233442664433306,0.00347430984486685,,
0.000719208719927486,0.2785838754303,0.00446516011764375,,
0.000958944959903315,0.319840217645653,0.0053965551127213,,
0.00119868119987914,0.356563428429685,0.00623509824825641,,
0.00143841743985497,0.387872884748465,0.00698647130134367,,
0.0016781536798308,0.414163699103145,0.0076672676437255,,
0.00191788991980663,0.433855421489113,0.00819501434390446,,
0.00215762615978246,0.44755284504893,0.00862565430828477,,
0.00239736239975829,0.455274798248354,0.00892305659979709,,
0.00263709863973412,0.456528032340457,0.00908163306153753,,
0.00287683487970994,0.450838982883427,0.00915505388907301,,
0.00311657111968577,0.439219537271911,0.00908540046714545,,
0.0033563073596616,0.420703452876736,0.00887580422972123,,
0.00359604359963743,0.396755070830335,0.00853123350347662,,
0.00383577983961326,0.366918228757729,0.00808675389227531,,
0.00407551607958909,0.331839655929758,0.007502741457448,,
0.00431525231956492,0.292496150327612,0.00681098509618217,,
0.00455498855954074,0.248371640821626,0.00602953413560003,,
0.00479472479951657,0.20049969607005,0.00520136347154487,,
0.0050344610394924,0.150289883486744,0.00421895838563158,,
0.00527419727946823,0.0975336992094113,0.00323069396708897,,
0.00551393351944406,0.0433892721820901,0.00218485635950971,,
0.00575366975941989,-0.0111573636810164,0.00114076525273044,,
0.00599340599939572,-0.0657505001489517,1.60316505972702E-05,,
0.00623314223937154,-0.119633004674381,-0.00107134426713884,,
0.00647287847934737,-0.171607272723123,-0.00213983957502384,,
0.0067126147193232,-0.220962957632457,-0.00318767871771586,,
0.00695235095929903,-0.267249317343306,-0.00419260268779054,,
0.00719208719927486,-0.309643604957963,-0.00513300136259343,,
0.00743182343925069,-0.34761063560122,-0.00599575338814695,,
0.00767155967922652,-0.380753299813434,-0.00676504018049462,,
0.00791129591920234,-0.408210623205813,-0.00746704956679034,,
0.00815103215917817,-0.429956716637938,-0.00803755163960584,,
0.008390768399154,-0.445343210480209,-0.00851364582074332,,
0.00863050463912983,-0.454464746301045,-0.00882610482155632,,
0.00887024087910566,-0.457168342816152,-0.00903797054153532,,
0.00910997711908149,-0.453299663662266,-0.00915331061655555,,
0.00934971335905732,-0.443051771933362,-0.00910165971165533,,
0.00958944959903315,-0.426596406059542,-0.00889560328592687,,
0.00982918583900897,-0.403549436811348,-0.00861035063537763,,
0.0100689220789848,-0.375291047784863,-0.00820064446848034,,
0.0103086583189606,-0.34155642802038,-0.00765777649335186,,
0.0105483945589365,-0.302486862331037,-0.00700610248686218,,
0.0107881307989123,-0.259357979271999,-0.00623920462352023,,
0.0110278670388881,-0.212746044007402,-0.00538447165154832,,
0.0112676032788639,-0.162834063518828,-0.00449072811456963,,
0.0115073395188398,-0.110652397066953,-0.00350562418453615,,
0.0117470757588156,-0.0568534795183022,-0.00246194629790919,,
0.0119868119987914,-0.00219672565848458,-0.00140911300228197,,
0.0122265482387673,0.0522668937874122,-0.000330582578432104,,
0.0124662844787431,0.106426404983324,0.000757103254418467,,
0.0127060207187189,0.15875869916127,0.00183945596467794,,
0.0129457569586947,0.20895795639256,0.00294501034083394,,
0.0131854931986706,0.255904168244323,0.00393972809597454,,
0.0134252294386464,0.299304922937728,0.00490328001243778,,
0.0136649656786222,0.338467561156675,0.00576246478589493,,
0.0139047019185981,0.372660910814194,0.00657889741499806,,
0.0141444381585739,0.401208858821668,0.00727922809442472,,
0.0143841743985497,0.42443291549592,0.00791618113298753,,
0.0146239106385255,0.441300368018054,0.00841447298418263,,
0.0148636468785014,0.452302753456289,0.00876765999626006,,
0.0151033831184772,0.456942543866938,0.00901728693594128,,
0.015343119358453,0.454587559248154,0.00913674307107248,,
0.0155828555984289,0.44614527459356,0.00911505224135745,,
0.0158225918384047,0.431051691769742,0.00897742410437097,,
0.0160623280783805,0.409898195769401,0.00872518548419565,,
0.0163020643183563,0.38284853718868,0.00832563065143122,,
0.0165418005583322,0.350517779242372,0.00780428886361362,,
0.016781536798308,0.313131007680231,0.00718776439633162,,
0.0170212730382838,0.271290198506945,0.00643919026411988,,
0.0172610092782597,0.225496196043697,0.00562469460448112,,
0.0175007455182355,0.176374119617671,0.00472476890662987,,
0.0177404817582113,0.124732523457309,0.00375447310814891,,
0.0179802179981871,0.0712251261881636,0.00273473616409792,,
0.018219954238163,0.0167817616069468,0.00168466627823971,,
0.0184596904781388,-0.0377303197422954,0.000599948851093046,,
0.0186994267181146,-0.0922392986738841,-0.000505826662410502,,
0.0189391629580905,-0.145376652402915,-0.00163205818759593,,
0.0191788991980663,-0.196092266043654,-0.00269540115670663,,
0.0194186354380421,-0.24400472052459,-0.00368562030026665,,
0.0196583716780179,-0.288366582811051,-0.00467486934495343,,
0.0198981079179938,-0.328733386999215,-0.00558547742939908,,
0.0201378441579696,-0.364404485939023,-0.00637878264310077,,
0.0203775803979454,-0.394728871162871,-0.00710191790968473,,
0.0206173166379213,-0.419496291469785,-0.00773865142504171,,
0.0208570528778971,-0.438406632526759,-0.00825320090660497,,
0.0210967891178729,-0.450642282472203,-0.00865578064001626,,
0.0213365253578487,-0.456738711461108,-0.00895357032542154,,
0.0215762615978246,-0.456285687163758,-0.00910681043628836,,
0.0218159978378004,-0.449206255358357,-0.00913063677483761,,
0.0220557340777762,-0.435649118132433,-0.00902900721534072,,
0.0222954703177521,-0.416049541116769,-0.00877304477137075,,
0.0225352065577279,-0.390695585573487,-0.00842333139119855,,
0.0227749427977037,-0.35938156477816,-0.00791536760581302,,
0.0230146790376796,-0.323066589365354,-0.00734273486658665,,
0.0232544152776554,-0.281847654461708,-0.00665359987066205,,
0.0234941515176312,-0.237026135122912,-0.00581810746203315,,
0.023733887757607,-0.188822481302228,-0.00498198231004521,,
0.0239736239975829,-0.137643858571691,-0.00398763419324455,,
0.0242133602375587,-0.0847019214948547,-0.00300050128769724,,
0.0244530964775345,-0.0303075537165787,-0.00196937657733898,,
0.0246928327175104,0.0243522669009194,-0.000883522794773217,,
0.0249325689574862,0.0787516983953654,0.000226656095978495,,
0.025172305197462,0.132219727054287,0.00131551863777846,,
0.0254120414374378,0.183521840271421,0.00238167828331814,,
0.0256517776774137,0.23232294128022,0.00342676370108874,,
0.0258915139173895,0.277502950327868,0.00442507776286716,,
0.0261312501573653,0.318816063220282,0.00536138297553634,,
0.0263709863973412,0.355607455872745,0.00620521726599055,,
0.026610722637317,0.387129730910557,0.00693001509803137,,
0.0268504588772928,0.413209152945125,0.00761830105567407,,
0.0270901951172686,0.433325656929806,0.00815933859465856,,
0.0273299313572445,0.447664960004131,0.00860007339822921,,
0.0275696675972203,0.454956140729373,0.00893409732574213,,
0.0278094038371961,0.456165441734706,0.00911047776514007,,
0.028049140077172,0.451187880059535,0.00915791091903229,,
0.0282888763171478,0.439570431406508,0.00908450946119155,,
0.0285286125571236,0.421571559260135,0.00886596442484366,,
0.0287683487970994,0.397584664442863,0.0084977110186184,,
0.0290080850370753,0.367725570547087,0.00805209182371591,,
0.0292478212770511,0.332877503784771,0.00752415142659091,,
0.0294875575170269,0.293377094301301,0.0068348356468495,,
0.0297272937570028,0.249471109110032,0.00606424462839605,,
0.0299670299969786,0.201753215441938,0.005193873856284,,
0.0302067662369544,0.151538588762273,0.00427358092451779,,
0.0304465024769302,0.0989235109982132,0.0032514421383314,,
0.0306862387169061,0.0447728434756121,0.00220624050239282,,
0.0309259749568819,-0.00987617217005842,0.00111338941763828,,
0.0311657111968577,-0.0644119674013643,6.67027717771163E-05,,
0.0314054474368336,-0.118346392847522,-0.00102373517185317,,
0.0316451836768094,-0.170356320869293,-0.00211573237590246,,
0.0318849199167852,-0.219869694179358,-0.00316999902893267,,
0.032124656156761,-0.266275942719528,-0.00417032915309523,,
0.0323643923967369,-0.308433448113277,-0.00511054542994005,,
0.0326041286367127,-0.346727979948825,-0.00599598421034164,,
0.0328438648766885,-0.379875493917371,-0.00674966064295024,,
0.0330836011166644,-0.407657180424415,-0.00745248355642092,,
0.0333233373566402,-0.429361266408313,-0.00802324227769047,,
0.033563073596616,-0.44502255600274,-0.00848604884830406,,
0.0338028098365918,-0.454223684883374,-0.0088199969111793,,
0.0340425460765677,-0.457406266156197,-0.00904345862168388,,
0.0342822823165435,-0.45326143617118,-0.00914412938129594,,
0.0345220185565193,-0.44330681206046,-0.00907394652104809,,
0.0347617547964952,-0.426915277538361,-0.00894335603978069,,
0.035001491036471,-0.404424389909568,-0.00860865901537933,,
0.0352412272764468,-0.375970869510673,-0.0081987317111345,,
0.0354809635164226,-0.342232826388779,-0.00765332146358455,,
0.0357206997563985,-0.303573706988991,-0.00700924037739403,,
0.0359604359963743,-0.260673689636848,-0.00628549819371171,,
0.0362001722363501,-0.213960194769067,-0.00542605192937673,,
0.036439908476326,-0.164073318901505,-0.00451605076202988,,
0.0366796447163018,-0.112092846017455,-0.00353361984985678,,
0.0369193809562776,-0.0582156904879803,-0.00249350598704368,,
0.0371591171962534,-0.00362055706155546,-0.00142512366904368,,
0.0373988534362293,0.0509306432780987,-0.000341571651857997,,
0.0376385896762051,0.105087301676169,0.000754675586023712,,
0.0378783259161809,0.157517981719699,0.00185316970848337,,
0.0381180621561568,0.20778920077656,0.00290334289937988,,
0.0383577983961326,0.254888286932695,0.00388086682224387,,
0.0385975346361084,0.298246820218035,0.00487427389471362,,
0.0388372708760842,0.337307328274229,0.00576045033765249,,
0.0390770071160601,0.371579415152194,0.00657007774737162,,
0.0393167433560359,0.400530178214994,0.00728497766545066,,
0.0395564795960117,0.423851230015884,0.00788644219514945,,
0.0397962158359876,0.441072714750241,0.00840010067075925,,
0.0400359520759634,0.452219166479511,0.0087634729139352,,
0.0402756883159392,0.456692353496171,0.009018045582315,,
0.040515424555915,0.454318825691413,0.00915646142021664,,
0.0407551607958909,0.446061972896566,0.00914176627854957,,
0.0409948970358667,0.431477899767376,0.00899071171489441,,
0.0412346332758425,0.410446218234898,0.00872150847049635,,
0.0414743695158184,0.383645323626023,0.00832909137020676,,
0.0417141057557942,0.351569320527029,0.00780808532376298,,
0.04195384199577,0.314251301392886,0.00720518420837868,,
0.0421935782357458,0.272461272021192,0.0064561839428845,,
0.0424333144757217,0.226741157022058,0.00562916254737811,,
0.0426730507156975,0.177656487907739,0.00474956211576982,,
0.0429127869556733,0.126013429688482,0.0037842378722468,,
0.0431525231956492,0.0725796346036676,0.00273594999829552,,
0.043392259435625,0.0181930406995117,0.00167930732938881,,
0.0436319956756008,-0.0363692498917541,0.00059616691821418,,
0.0438717319155766,-0.0908807963414009,-0.000487785405994146,,
0.0441114681555525,-0.143950752721409,-0.00154676696552825,,
0.0443512043955283,-0.194831899956944,-0.00262852567181859,,
0.0445909406355041,-0.242962379512975,-0.0036669624419039,,
0.04483067687548,-0.287333798672208,-0.0046304223523177,,
0.0450704131154558,-0.327902866227388,-0.00553941629554355,,
0.0453101493554316,-0.363519833328139,-0.00638664673912492,,
0.0455498855954074,-0.394094694202537,-0.007114843952575,,
0.0457896218353833,-0.418949410123424,-0.00773609462534885,,
0.0460293580753591,-0.437718537687207,-0.00827095807416711,,
0.0462690943153349,-0.450709323221496,-0.00867418346406579,,
0.0465088305553108,-0.456670244312894,-0.00896995708708737,,
0.0467485667952866,-0.456251453589651,-0.00911994308925479,,
0.0469883030352624,-0.449543384743366,-0.00911555423927712,,
0.0472280392752382,-0.436067623575892,-0.0089938076377547,,
0.0474677755152141,-0.416597848862051,-0.00878098796031468,,
0.0477075117551899,-0.39116230330048,-0.00843779409653056,,
0.0479472479951657,-0.360304730159914,-0.00794744382013768,,
0.0481869842351416,-0.324103866660799,-0.00735325745320026,,
0.0484267204751174,-0.283366198753142,-0.00666704243874294,,
0.0486664567150932,-0.23838527933491,-0.00587280909383914,,
0.048906192955069,-0.190038058462814,-0.00500012525735904,,
0.0491459291950449,-0.139126172330528,-0.00403195044044136,,
0.0493856654350207,-0.0860323950885376,-0.00302834038131961,,
0.0496254016749965,-0.0316900195509368,-0.00197404951617086,,
0.0498651379149724,0.0229127451097161,-0.000901265435063969,,
0.0501048741549482,0.0774354174709476,0.000194710627092309,,
0.050344610394924,0.130850384090003,0.00129048976402002,,
0.0505843466348998,0.182365601305954,0.00237369796912601,,
0.0508240828748757,0.231119631150356,0.00339765750660881,,
0.0510638191148515,0.27647198484765,0.00436842786260838,,
0.0513035553548273,0.317885765843922,0.00532017395018825,,
0.0515432915948032,0.354781285617627,0.00616169679041567,,
0.051783027834779,0.386310977929829,0.00691627875624867,,
0.0520227640747548,0.412467140226354,0.00762331135002103,,
0.0522625003147306,0.432907436766131,0.00814510509738042,,
0.0525022365547065,0.447207656510017,0.00856780348695807,,
0.0527419727946823,0.455005494132044,0.0089040452445075,,
0.0529817090346581,0.456426187457489,0.00908782813554021,,
0.053221445274634,0.451386149509572,0.00913660102664515,,
0.0534611815146098,0.439723341370854,0.00909130176744588,,
0.0537009177545856,0.421845998412561,0.00890931702973186,,
0.0539406539945614,0.39818460782909,0.00856531125291449,,
0.0541803902345373,0.368468153825427,0.00809248409360652,,
0.0544201264745131,0.333855442885097,0.00752417725285026,,
0.0546598627144889,0.294356174520764,0.00686749295201361,,
0.0548995989544648,0.250566868761243,0.00604422927726755,,
0.0551393351944406,0.20303009209616,0.00520208660681165,,
0.0553790714344164,0.152791787194404,0.00427192804390852,,
0.0556188076743922,0.100141976616615,0.00327359138415328,,
0.0558585439143681,0.0461887227046977,0.00224252639701961,,
0.0560982801543439,-0.00849370633570028,0.00115799136783101,,
0.0563380163943197,-0.0630605970634868,8.88100499270017E-05,,
0.0565777526342956,-0.116965923971654,-0.00103378158680689,,
0.0568174888742714,-0.169089464667493,-0.00210151502003608,,
0.0570572251142472,-0.218625018480781,-0.0031420824565318,,
0.057296961354223,-0.26494718080455,-0.00416729295346041,,
0.0575366975941989,-0.307476904996768,-0.0050897940304151,,
0.0577764338341747,-0.345880984269459,-0.00595050578146639,,
0.0580161700741505,-0.379073857723697,-0.0067390977028059,,
0.0582559063141264,-0.406900618436648,-0.00742850387445548,,
0.0584956425541022,-0.428840060242532,-0.00803015241625316,,
0.058735378794078,-0.444838550541914,-0.00847742449176536,,
0.0589751150340538,-0.454369177573329,-0.00880756156722029,,
0.0592148512740297,-0.457728632312372,-0.0090521475438714,,
0.0594545875140055,-0.453944681254401,-0.00911512649185386,,
0.0596943237539813,-0.443826377867481,-0.00911062142370866,,
0.0599340599939572,-0.427364949798247,-0.00894273620955222,,
0.060173796233933,-0.404840042555185,-0.00863240626100881,,
0.0604135324739088,-0.376802460081691,-0.00821840002190077,,
0.0606532687138846,-0.343090947979731,-0.0076616116928907,,
0.0608930049538605,-0.304732228192732,-0.00700802654319643,,
0.0611327411938363,-0.26205644075099,-0.0062815467760049,,
0.0613724774338121,-0.215194315115628,-0.00544004976203682,,
0.061612213673788,-0.165484597994069,-0.00453330270338981,,
0.0618519499137638,-0.11335257022465,-0.00355431959686259,,
0.0620916861537396,-0.0597291710632442,-0.00252630533663512,,
0.0623314223937154,-0.00504353262527366,-0.00147233568558924,,
0.0625711586336913,0.0494825630933686,-0.000390796502504731,,
0.0628108948736671,0.103626419561121,0.000732660313923272,,
0.0630506311136429,0.156140116021862,0.00178669291647671,,
0.0632903673536188,0.206286311213286,0.00285991604399527,,
0.0635301035935946,0.25356943849022,0.00388707803765875,,
0.0637698398335704,0.297174168229346,0.00484979060068769,,
0.0640095760735463,0.336415258388955,0.00573436581553644,,
0.0642493123135221,0.370688486386056,0.00655037231135713,,
0.0644890485534979,0.4001376332319,0.00724154758178397,,
0.0647287847934737,0.423201647947202,0.00786903206794998,,
0.0649685210334496,0.440807404550912,0.00837019386223448,,
0.0652082572734254,0.451697104474378,0.00874999160646572,,
0.0654479935134012,0.456211657059751,0.00902517362994271,,
0.0656877297533771,0.454673428463206,0.00914388403183031,,
0.0659274659933529,0.446724392555538,0.00914708648801099,,
0.0661672022333287,0.431868733071765,0.00900548433534043,,
0.0664069384733045,0.410947169535999,0.00872318717736542,,
0.0666466747132804,0.38463752671556,0.00832010383189363,,
0.0668864109532562,0.352458537614461,0.00782068853840912,,
0.067126147193232,0.315339929049491,0.00721257051860169,,
0.0673658834332078,0.273631739315898,0.00647006878565959,,
0.0676056196731837,0.227840375690653,0.00565716144098127,,
0.0678453559131595,0.179043518218645,0.00475883051465509,,
0.0680850921531353,0.127321152219373,0.0038036721325363,,
0.0683248283931112,0.0740146275782963,0.0027726620262043,,
0.068564564633087,0.0195823889086643,0.00173594431651836,,
0.0688043008730628,-0.0349810784617115,0.000643519365045808,,
0.0690440371130387,-0.0894875611951882,-0.000476436379075906,,
0.0692837733530145,-0.142568072927212,-0.00155379332225936,,
0.0695235095929903,-0.193659400043776,-0.00263166194820919,,
0.0697632458329661,-0.241687178877485,-0.00363831950595417,,
0.070002982072942,-0.286288319582967,-0.00464062211068716,,
0.0702427183129178,-0.326759821451941,-0.00552554759418067,,
0.0704824545528936,-0.362501955058021,-0.00634137330618501,,
0.0707221907928695,-0.393442901215527,-0.00710170000062016,,
0.0709619270328453,-0.418569417450835,-0.00775355317678494,,
0.0712016632728211,-0.437254672758056,-0.00826141365713262,,
0.0714413995127969,-0.450244031893424,-0.00865570316123776,,
0.0716811357527728,-0.456743275937656,-0.00892554883384111,,
0.0719208719927486,-0.45664970416843,-0.00910625517170871,,
0.0721606082327244,-0.44968345711742,-0.00912486299169357,,
0.0724003444727002,-0.436721698801176,-0.00902983365564536,,
0.0726400807126761,-0.417498477140852,-0.00878487319823096,,
0.0728798169526519,-0.391905528458334,-0.0084455274471158,,
0.0731195531926277,-0.3611260506587,-0.00797481965522984,,
0.0733592894326036,-0.324802445532422,-0.0073829205264011,,
0.0735990256725794,-0.28424371936942,-0.00667436579745839,,
0.0738387619125552,-0.239426835827118,-0.00588317672289573,,
0.0740784981525311,-0.191309835740893,-0.0050037667599514,,
0.0743182343925069,-0.140363929994338,-0.00408378374329965,,
0.0745579706324827,-0.0873384059407233,-0.00304199117361748,,
0.0747977068724585,-0.0330991590451201,-0.00199964333935609,,
0.0750374431124344,0.0215185828042047,-0.000916798316024536,,
0.0752771793524102,0.0759787788926908,0.000156189146875985,,
0.075516915592386,0.129454438785841,0.00128921136417404,,
0.0757566518323619,0.180976288756774,0.00235292397162423,,
0.0759963880723377,0.229799071029175,0.00336798636270164,,
0.0762361243123135,0.275180237984675,0.00435542434093961,,
0.0764758605522893,0.3168824368428,0.00528042733678546,,
0.0767155967922652,0.35380734043428,0.00611920290865653,,
0.076955333032241,0.385649414110209,0.00691670488953067,,
0.0771950692722168,0.412233496083073,0.00758613767772331,,
0.0774348055121927,0.432609889951184,0.00815983897843697,,
0.0776745417521685,0.446929794000181,0.00859277747991483,,
0.0779142779921443,0.45503830130723,0.00890514608881965,,
0.0781540142321201,0.456637294497816,0.00909566640530457,,
0.078393750472096,0.451588127596804,0.00914070740190898,,
0.0786334867120718,0.440069385749119,0.00907248733738486,,
0.0788732229520476,0.422722092629918,0.00884117121570371,,
0.0791129591920234,0.398972265313337,0.00853211159630041,,
0.0793526954319993,0.369337971887532,0.00810193650459112,,
