Time domain (s),Current (AC) (A),Potential (AC) (V),Frequency (Hz),Column 5
0,-0.237002649488099,-0.00485586130143956,12.589,0.3
0.000232718047501787,-0.239985889716571,-0.00492623034976258,,
0.000465436095003575,-0.242646762859834,-0.00500538839068065,,
0.000698154142505362,-0.245425072288309,-0.00510970718631265,,
0.000930872190007149,-0.247768239939363,-0.00517100448997976,,
0.00116359023750894,-0.250648521714731,-0.00526134307662929,,
0.00139630828501072,-0.253191644811714,-0.00535790638719424,,
0.00162902633251251,-0.255565292109313,-0.00541249564199653,,
0.0018617443800143,-0.257586451259235,-0.00549470824088028,,
0.00209446242751609,-0.259765208110993,-0.00554427063763541,,
0.00232718047501787,-0.261916309165812,-0.00563670270382044,,
0.00255989852251966,-0.264016401635681,-0.0057123298261601,,
0.00279261657002145,-0.265667367549127,-0.00573532885084083,,
0.00302533461752323,-0.267867594622494,-0.00581704001750039,,
0.00325805266502502,-0.269503813765774,-0.0058596283277379,,
0.00349077071252681,-0.271082480164698,-0.00594579666972317,,
0.0037234887600286,-0.27251860939302,-0.00600436395350368,,
0.00395620680753038,-0.274233537741198,-0.00605905349475044,,
0.00418892485503217,-0.275452320195859,-0.00611480161513756,,
0.00442164290253396,-0.276837754600298,-0.00618534755760569,,
0.00465436095003575,-0.278143000640521,-0.00622581731669625,,
0.00488707899753753,-0.279100240834031,-0.00628373831005469,,
0.00511979704503932,-0.279829062970502,-0.00629295491290804,,
0.00535251509254111,-0.280839552899444,-0.00634268584660491,,
0.0055852331400429,-0.281905264776241,-0.00640466426237696,,
0.00581795118754468,-0.282626915231172,-0.00643847054435565,,
0.00605066923504647,-0.283245652056009,-0.00647263479322735,,
0.00628338728254826,-0.283638122328269,-0.00649565610378477,,
0.00651610533005004,-0.28415520056728,-0.0065278926243284,,
0.00674882337755183,-0.284163089416974,-0.00656489832247065,,
0.00698154142505362,-0.284791642480918,-0.00659334624398733,,
0.00721425947255541,-0.28463207256666,-0.0066131681383812,,
0.00744697752005719,-0.284633506902968,-0.00665846696836381,,
0.00767969556755898,-0.284688773673833,-0.00665832211016548,,
0.00791241361506077,-0.284241933090901,-0.0066873146427926,,
0.00814513166256256,-0.284173443532197,-0.00669736557315215,,
0.00837784971006434,-0.283902578085044,-0.00672947952137415,,
0.00861056775756613,-0.283347265818825,-0.00673776011740879,,
0.00884328580506792,-0.282885812934755,-0.00671881572940736,,
0.0090760038525697,-0.282397421421902,-0.00671017995221357,,
0.00930872190007149,-0.281791055747722,-0.00671173996357766,,
0.00954143994757328,-0.280837759979059,-0.00675054106765538,,
0.00977415799507507,-0.279881774829818,-0.00678044871409123,,
0.0100068760425769,-0.278890334679966,-0.00673269008047583,,
0.0102395940900786,-0.277699970013407,-0.00672266143599298,,
0.0104723121375804,-0.276544477648334,-0.00673485181050903,,
0.0107050301850822,-0.275105434924386,-0.00672200400263234,,
0.010937748232584,-0.273708167245406,-0.00672503348898656,,
0.0111704662800858,-0.272308255008859,-0.00670937766065505,,
0.0114031843275876,-0.270746979937669,-0.0066914375299687,,
0.0116359023750894,-0.268937788800254,-0.00665393039960271,,
0.0118686204225912,-0.267394667047961,-0.0066441357568241,,
0.0121013384700929,-0.265507618342831,-0.00662656195023503,,
0.0123340565175947,-0.26349569273289,-0.00663215709813603,,
0.0125667745650965,-0.261444995219626,-0.00655859141938464,,
0.0127994926125983,-0.259335624386765,-0.00653698526199298,,
0.0130322106601001,-0.257019171249446,-0.00649660325354162,,
0.0132649287076019,-0.254935439178089,-0.00647165421465568,,
0.0134976467551037,-0.252463853604465,-0.00644929033745889,,
0.0137303648026054,-0.249793836567239,-0.00641075805676783,,
0.0139630828501072,-0.247446948606385,-0.00636000197274544,,
0.014195800897609,-0.244686747673798,-0.00629350091688519,,
0.0144285189451108,-0.242346627987398,-0.00626334812580653,,
0.0146612369926126,-0.239139989878964,-0.0062026748266848,,
0.0148939550401144,-0.236372617264837,-0.00616676113649728,,
0.0151266730876162,-0.23342922469192,-0.00612920943437789,,
0.015359391135118,-0.230480184419791,-0.00607213530433182,,
0.0155921091826197,-0.227215231575838,-0.00601986378069874,,
0.0158248272301215,-0.223988557582103,-0.00595627103173868,,
0.0160575452776233,-0.220829655978919,-0.00592139224194721,,
0.0162902633251251,-0.217558069329542,-0.00585878146442598,,
0.0165229813726269,-0.213969673648149,-0.00578685379760691,,
0.0167556994201287,-0.210494500889064,-0.00568597677704652,,
0.0169884174676305,-0.206894002995073,-0.0056734966861347,,
0.0172211355151323,-0.203148188903885,-0.00558504543466221,,
0.017453853562634,-0.199470550610333,-0.00554346834607644,,
0.0176865716101358,-0.19566095337645,-0.00543813554305794,,
0.0179192896576376,-0.192080984420867,-0.00536637502031345,,
0.0181520077051394,-0.188062915369227,-0.00530605829521758,,
0.0183847257526412,-0.184017593927737,-0.00520697528772596,,
0.018617443800143,-0.18015739151599,-0.00513667448990063,,
0.0188501618476448,-0.176048735161903,-0.00505117333134697,,
0.0190828798951466,-0.171964865932137,-0.00495925662605901,,
0.0193155979426483,-0.16753630775837,-0.00485922786167814,,
0.0195483159901501,-0.163303222729569,-0.0048159681894071,,
0.0197810340376519,-0.159058304426227,-0.00470832879815708,,
0.0200137520851537,-0.154841534972929,-0.00464567205601529,,
0.0202464701326555,-0.150126154360584,-0.00454282273537343,,
0.0204791881801573,-0.145705888443597,-0.00442566588193616,,
0.0207119062276591,-0.141198486595903,-0.00438079326934426,,
0.0209446242751609,-0.136723536607176,-0.00425127889731591,,
0.0211773423226626,-0.131998250109704,-0.00416760657351345,,
0.0214100603701644,-0.127331726577848,-0.00405018228955623,,
0.0216427784176662,-0.122656776320183,-0.00396905055568908,,
0.021875496465168,-0.117927635043884,-0.00386935468659022,,
0.0221082145126698,-0.113143764872835,-0.00378082543454994,,
0.0223409325601716,-0.108227039301263,-0.00362007601355918,,
0.0225736506076734,-0.103481358334413,-0.00353122222344027,,
0.0228063686551752,-0.0984885681155107,-0.00344130985418145,,
0.0230390867026769,-0.0936859171034296,-0.00331470239618614,,
0.0232718047501787,-0.0887137902919636,-0.00322467999041143,,
0.0235045227976805,-0.08370096418776,-0.0030890258593721,,
0.0237372408451823,-0.0786522796758579,-0.00299319519700125,,
0.0239699588926841,-0.0735795700307979,-0.00289145042011985,,
0.0242026769401859,-0.0684463044997371,-0.00278957053511153,,
0.0244353949876877,-0.0634529315817099,-0.00268848319159032,,
0.0246681130351895,-0.0582743051649106,-0.00254848192174117,,
0.0249008310826912,-0.0531035227747953,-0.00245190607537049,,
0.025133549130193,-0.0479395534821427,-0.00232444200399229,,
0.0253662671776948,-0.0428143112698045,-0.00220451055891457,,
0.0255989852251966,-0.0375836005158232,-0.00207062815506687,,
0.0258317032726984,-0.0323680847621041,-0.00197401887988136,,
0.0260644213202002,-0.0271483108224709,-0.00182589580086834,,
0.026297139367702,-0.0219314503784631,-0.00173824544808721,,
0.0265298574152038,-0.0166923577216823,-0.00159878182501183,,
0.0267625754627055,-0.0114480655957852,-0.00147793526612494,,
0.0269952935102073,-0.00620005316008941,-0.00135288921236087,,
0.0272280115577091,-0.000956791963413667,-0.00121692307904864,,
0.0274607296052109,0.00425845485224767,-0.00115344175947163,,
0.0276934476527127,0.00952840815115395,-0.00102465167843402,,
0.0279261657002145,0.0147968822907427,-0.000883604365250257,,
0.0281588837477163,0.0200155356551354,-0.000735782145571573,,
0.0283916017952181,0.0252587520288015,-0.000604295473461747,,
0.0286243198427198,0.0304917487562735,-0.000496087792358324,,
0.0288570378902216,0.0357127329171666,-0.000359340260496666,,
0.0290897559377234,0.0409174015025569,-0.000248969456492887,,
0.0293224739852252,0.0460424644228567,-0.000132146891204776,,
0.029555192032727,0.0512318931849751,1.2099838142543E-05,,
0.0297879100802288,0.0563996500219409,0.000115917201550353,,
0.0300206281277306,0.0615275592033517,0.000246412152149933,,
0.0302533461752323,0.0666185342248331,0.000357351246007998,,
0.0304860642227341,0.0716844531839353,0.000490498215926838,,
0.0307187822702359,0.0767243523859512,0.000634999839987493,,
0.0309515003177377,0.0817852287564708,0.000750997827840383,,
0.0311842183652395,0.086806660878522,0.000865290946130859,,
0.0314169364127413,0.0917398813176351,0.000994894461665563,,
0.0316496544602431,0.0967098566246391,0.00112345054099894,,
0.0318823725077449,0.101676246090873,0.00124501999800852,,
0.0321150905552466,0.10653290882955,0.00138152377809453,,
0.0323478086027484,0.111329329443294,0.00149273865967592,,
0.0325805266502502,0.116135431827116,0.00162867136417288,,
0.032813244697752,0.120898885117282,0.00174661936623099,,
0.0330459627452538,0.125677690288243,0.00184531237088148,,
0.0332786807927556,0.130383770126092,0.00195646596630183,,
0.0335113988402574,0.135025999586732,0.00210211252727488,,
0.0337441168877592,0.139535216766316,0.00219464627277199,,
0.0339768349352609,0.144227827289772,0.0022933476346263,,
0.0342095529827627,0.148605018294511,0.00240663788846884,,
0.0344422710302645,0.15317196751049,0.00252663619117621,,
0.0346749890777663,0.157480175903419,0.0026755615617482,,
0.0349077071252681,0.161845757748666,0.00276474964001627,,
0.0351404251727699,0.166129761716399,0.00288483987196519,,
0.0353731432202717,0.170257602318605,0.0030035985227852,,
0.0356058612677735,0.174546626463415,0.00309951693579569,,
0.0358385793152752,0.178574242816104,0.00321629214359564,,
0.036071297362777,0.182537314034936,0.00331760373875012,,
0.0363040154102788,0.186496261536882,0.00343184392808382,,
0.0365367334577806,0.190491067446527,0.00352314916463214,,
0.0367694515052824,0.194269647157751,0.00366091209674746,,
0.0370021695527842,0.198169428286995,0.00375064339325837,,
0.037234887600286,0.201926851537676,0.00387053026658313,,
0.0374676056477878,0.205404220624232,0.00396614782025884,,
0.0377003236952895,0.20894201112776,0.00406335602837871,,
0.0379330417427913,0.212504185348524,0.0041650046974171,,
0.0381657597902931,0.215749371245233,0.00425507306781236,,
0.0383984778377949,0.219155740684546,0.00434392685793128,,
0.0386311958852967,0.222563544460167,0.00444828326098001,,
0.0388639139327985,0.22589156327866,0.00453579711276664,,
0.0390966319803003,0.22883213200197,0.00459417496659587,,
0.0393293500278021,0.23196185382589,0.00472679543267907,,
0.0395620680753038,0.235000853878333,0.00480581279400116,,
0.0397947861228056,0.237768047200422,0.00491459294356078,,
0.0400275041703074,0.240883067077186,0.00500167500648763,,
0.0402602222178092,0.243731121108634,0.00505801091687053,,
0.040492940265311,0.245939461146743,0.0051515001693283,,
0.0407256583128128,0.248420862959475,0.00520855201349812,,
0.0409583763603146,0.251148432741057,0.00530190755069571,,
0.0411910944078163,0.253673581811181,0.00537082662417054,,
0.0414238124553181,0.255886583442291,0.0054633575839329,,
0.0416565305028199,0.258104963834555,0.00555394688669431,,
0.0418892485503217,0.260262743517808,0.00563232910053246,,
0.0421219665978235,0.262329622137547,0.00569319461534024,,
0.0423546846453253,0.264114653672775,0.00575674000681259,,
0.0425874026928271,0.266203943797325,0.00580755459126081,,
0.0428201207403289,0.268144959406041,0.00589177013330611,,
0.0430528387878307,0.269529631819317,0.00593373443899825,,
0.0432855568353324,0.271211929016489,0.005996068035929,,
0.0435182748828342,0.272844024442884,0.00605909249503522,,
0.043750992930336,0.27418333597042,0.00609842706728481,,
0.0439837109778378,0.275555816525078,0.00617351932858545,,
0.0442164290253396,0.276681411942732,0.00622848465755599,,
0.0444491470728414,0.277842686476046,0.00625268711957494,,
0.0446818651203432,0.279077112161065,0.00629713630051087,,
0.0449145831678449,0.279988095008644,0.00632771809471455,,
0.0451473012153467,0.280650220506796,0.00640017783683833,,
0.0453800192628485,0.281823507606689,0.00644584159805106,,
0.0456127373103503,0.282287515402307,0.00647048142039841,,
0.0458454553578521,0.282510016822075,0.00651781662235829,,
0.0460781734053539,0.28308142054875,0.00651343744760036,,
0.0463108914528557,0.283707687639203,0.00657174565806518,,
0.0465436095003575,0.283832116313917,0.00659063293850792,,
0.0467763275478592,0.283949194015052,0.006619872008645,,
0.047009045595361,0.284347580924582,0.00664858736068119,,
0.0472417636428628,0.284044935963607,0.00667721356921103,,
0.0474744816903646,0.283932340563434,0.00669824029381028,,
0.0477071997378664,0.284025751715489,0.00670929408861776,,
0.0479399177853682,0.283760758082597,0.00672809222555415,,
0.04817263583287,0.283091102318829,0.00676050424737618,,
0.0484053538803718,0.282730546029421,0.00676629021809605,,
0.0486380719278735,0.282002620353143,0.00674899359209746,,
0.0488707899753753,0.281615170257961,0.00677370027207491,,
0.0491035080228771,0.280812479801631,0.00676005017264014,,
0.0493362260703789,0.280208265631913,0.00678015203335924,,
0.0495689441178807,0.27903730932852,0.00679864931096086,,
0.0498016621653825,0.278077379754433,0.0067770654394459,,
0.0500343802128843,0.276854787343954,0.00673439912864016,,
0.0502670982603861,0.275743176705303,0.00676598935876171,,
0.0504998163078878,0.274097634376021,0.00672588592376799,,
0.0507325343553896,0.272885082319698,0.00672771336565159,,
0.0509652524028914,0.271476026189188,0.00671264811305061,,
0.0511979704503932,0.269828153063406,0.00669438483715323,,
0.051430688497895,0.26824141852275,0.00668938165784994,,
0.0516634065453968,0.266349708224619,0.00665728999550463,,
0.0518961245928986,0.264527025361307,0.00663399011148913,,
0.0521288426404004,0.262480406741919,0.00661691912999185,,
0.0523615606879021,0.260356692545978,0.00658759091634842,,
0.0525942787354039,0.258069464010933,0.00654752091016952,,
0.0528269967829057,0.255988600612193,0.00649143850163325,,
0.0530597148304075,0.253737051192807,0.00648153242947203,,
0.0532924328779093,0.251696707794766,0.00646311315243819,,
0.0535251509254111,0.248679402078981,0.0064179758950611,,
0.0537578689729129,0.246224176903869,0.00636975761524017,,
0.0539905870204146,0.243627848894463,0.00631397606603823,,
0.0542233050679164,0.240940619821542,0.00630369113397444,,
0.0544560231154182,0.238173247207414,0.00624911302211029,,
0.05468874116292,0.235145721845435,0.00620040723873805,,
0.0549214592104218,0.232299281442333,0.00614058080292823,,
0.0551541772579236,0.229336659798287,0.00608848756630831,,
0.0553868953054254,0.226169107354246,0.00599797347838082,,
0.0556196133529272,0.223026835087631,0.00596993784558153,,
0.0558523314004289,0.219615804055317,0.00590771567803428,,
0.0560850494479307,0.216306969484943,0.00584759952582825,,
0.0563177674954325,0.212762545175991,0.0057954505745168,,
0.0565504855429343,0.209334839984097,0.00572481827427662,,
0.0567832035904361,0.2056672420447,0.00563724313632896,,
0.0570159216379379,0.202340478270477,0.00558506354193744,,
0.0572486396854397,0.19826983182855,0.00549273872653355,,
0.0574813577329415,0.19461460503981,0.00543791825576134,,
0.0577140757804432,0.190859871169706,0.00534192184218307,,
0.057946793827945,0.186983420416971,0.00528254112390547,,
0.0581795118754468,0.18294466554639,0.00517623749238627,,
0.0584122299229486,0.17901942494768,0.00508818599382588,,
0.0586449479704504,0.174808953127234,0.00502847377313387,,
0.0588776660179522,0.170697405689026,0.00494643667552852,,
0.059110384065454,0.166434715062369,0.00485564679987771,,
0.0593431021129558,0.162130137333219,0.00476502685403579,,
0.0595758201604575,0.157895236972528,0.00469869572798487,,
0.0598085382079593,0.153455248931307,0.00460459361391985,,
0.0600412562554611,0.148964521243193,0.00451560610854118,,
0.0602739743029629,0.144444053488194,0.00442781089756217,,
0.0605066923504647,0.139970694716308,0.00432729045102809,,
0.0607394103979665,0.135345497999325,0.00421923737819352,,
0.0609721284454683,0.130787356504738,0.00414155159799989,,
0.0612048464929701,0.126035377905035,0.00400469124388803,,
0.0614375645404718,0.121314842646584,0.0039117591383464,,
0.0616702825879736,0.116554795905149,0.00382528993702635,,
0.0619030006354754,0.111760168211791,0.00369600956670313,,
0.0621357186829772,0.106895975207497,0.00362379496922216,,
0.062368436730479,0.10207857742525,0.00349816948266568,,
0.0626011547779808,0.0971245815211764,0.00338441679688328,,
0.0628338728254826,0.0923152294691566,0.00330076954469183,,
0.0630665908729844,0.0872721030104478,0.00319523477591632,,
0.0632993089204861,0.0822218048701993,0.00307750963262476,,
0.0635320269679879,0.0771480194729083,0.00297325630175527,,
0.0637647450154897,0.0722139025736027,0.00286704181374242,,
0.0639974630629915,0.0670705518653768,0.00275246176479005,,
0.0642301811104933,0.0619410290556195,0.00260883486138708,,
0.0644628991579951,0.0568232946973931,0.00250116343418982,,
0.0646956172054969,0.0516876535468223,0.00240211385551303,,
0.0649283352529987,0.0465394619535571,0.00229101876051852,,
0.0651610533005004,0.0413728032803271,0.00216938244587883,,
0.0653937713480022,0.0361573771726273,0.00204557325826737,,
0.065626489395504,0.0310131300042089,0.00192855012008986,,
0.0658592074430058,0.0257134366384177,0.0017949128608854,,
0.0660919254905076,0.0205609196247238,0.00167557199153823,,
0.0663246435380094,0.0152779228300173,0.00156559119037514,,
0.0665573615855112,0.0100590901735861,0.00144275143839767,,
0.066790079633013,0.00481963893272828,0.00133435572020968,,
0.0670227976805147,-0.000399373015741393,0.001182017824779,,
0.0672555157280165,-0.00568342315117412,0.00103724877019884,,
0.0674882337755183,-0.0110049004996421,0.00092016991732935,,
0.0677209518230201,-0.0161872920492497,0.000808907678260251,,
0.0679536698705219,-0.0214712077156536,0.000714861278886758,,
0.0681863879180237,-0.0266658359468883,0.000579675151256787,,
0.0684191059655255,-0.0319721631181037,0.000450871141546294,,
0.0686518240130272,-0.037176831703494,0.000326426806450897,,
0.068884542060529,-0.0423388287837232,0.00019506549239745,,
0.0691172601080308,-0.0474597679871376,7.73069202910648E-05,,
0.0693499781555326,-0.05270580821041,-4.54548311186187E-05,,
0.0695826962030344,-0.057865922724235,-0.000172441149016933,,
0.0698154142505362,-0.0629910752905539,-0.000310790478260881,,
0.070048132298038,-0.0680496656875827,-0.000388778510655996,,
0.0702808503455398,-0.0731334466160196,-0.000542374165248827,,
0.0705135683930415,-0.0780889440909154,-0.000650037235242262,,
0.0707462864405433,-0.0831878303735953,-0.000801948913282668,,
0.0709790044880451,-0.0882851030279288,-0.000899015048938967,,
0.0712117225355469,-0.0932199370953883,-0.00103397831780283,,
0.0714444405830487,-0.098093632577722,-0.00113807564753587,,
0.0716771586305505,-0.103123177664515,-0.00129139272867107,,
0.0719098766780523,-0.107905389384208,-0.0014098950919097,,
0.0721425947255541,-0.112674557608101,-0.00153865313700008,,
0.0723753127730558,-0.117609750259637,-0.00163208667476589,,
0.0726080308205576,-0.122238891401468,-0.001752062691597,,
0.0728407488680594,-0.127003577324398,-0.00187423247440854,,
0.0730734669155612,-0.131589150500875,-0.00198401409554938,,
0.073306184963063,-0.136206279076126,-0.00211485447723669,,
0.0735389030105648,-0.140813725881299,-0.00223702565291584,,
0.0737716210580666,-0.145454521005631,-0.00236570430457039,,
0.0740043391055684,-0.149866001612732,-0.00247868255614003,,
0.0742370571530701,-0.154310651246954,-0.00259465825811622,,
0.0744697752005719,-0.158685735570241,-0.00270037131390444,,
0.0747024932480737,-0.162962029980318,-0.00282814738755555,,
0.0749352112955755,-0.167147602618919,-0.00293203300146061,,
0.0751679293430773,-0.171585977031793,-0.00306816627884743,,
0.0754006473905791,-0.175498129311693,-0.00313918161759252,,
0.0756333654380809,-0.179820994828769,-0.00324365641436097,,
0.0758660834855827,-0.183696661178836,-0.00337137816618771,,
0.0760988015330844,-0.18773678315121,-0.0034453658837279,,
0.0763315195805862,-0.191595282288591,-0.00358468604147255,,
0.076564237628088,-0.1954576362048,-0.00369679514385357,,
0.0767969556755898,-0.199215776623635,-0.00376756394508826,,
