Time domain (s),Current (AC) (A),Potential (AC) (V),Frequency (Hz),Column 5
0,0.257000367996909,0.00534464539736135,79.433,0.3
0.000239736239975829,0.241164577989123,0.00516977200102886,,
0.000479472479951657,0.221819684203968,0.0048569044570983,,
0.000719208719927486,0.199413558153597,0.00451529929573047,,
0.000958944959903315,0.174336877189884,0.00407267547842594,,
0.00119868119987914,0.146413755823069,0.00358314754113342,,
0.00143841743985497,0.116492603979297,0.00303120216466457,,
0.0016781536798308,0.0849735790769777,0.00244807408020886,,
0.00191788991980663,0.0521766277588002,0.00185276216156804,,
0.00215762615978246,0.0185978959182823,0.00118421197748919,,
0.00239736239975829,-0.015127653690256,0.000529250254081237,,
0.00263709863973412,-0.0488542790510252,-0.000142723056767213,,
0.00287683487970994,-0.0819191374977196,-0.000815788854882094,,
0.00311657111968577,-0.113775388312938,-0.00145524766374194,,
0.0033563073596616,-0.143855213610776,-0.00211874119247168,,
0.00359604359963743,-0.171877259359829,-0.00270729919875956,,
0.00383577983961326,-0.197565774404896,-0.00325177534383192,,
0.00407551607958909,-0.220376697055173,-0.00377633570614622,,
0.00431525231956492,-0.239953594738137,-0.00425939195696312,,
0.00455498855954074,-0.256187547540405,-0.00463522838602382,,
0.00479472479951657,-0.268890836697674,-0.00500003459543041,,
0.0050344610394924,-0.27752298635991,-0.00523584667138932,,
0.00527419727946823,-0.281960643604631,-0.00541632426728444,,
0.00551393351944406,-0.282878977425788,-0.00555419746093477,,
0.00575366975941989,-0.279477269579475,-0.00555624717514025,,
0.00599340599939572,-0.272001508742504,-0.00552010145357018,,
0.00623314223937154,-0.26064479244033,-0.00543505262042965,,
0.00647287847934737,-0.245673055589048,-0.00519739111959794,,
0.0067126147193232,-0.227423949920148,-0.00493818030742821,,
0.00695235095929903,-0.205443821753234,-0.00460154856428474,,
0.00719208719927486,-0.180933703631157,-0.00414301605144729,,
0.00743182343925069,-0.153461008688044,-0.00368445232468817,,
0.00767155967922652,-0.124152990792906,-0.00315557403650946,,
0.00791129591920234,-0.0928929308286833,-0.00258396388923821,,
0.00815103215917817,-0.0603083509300999,-0.00196553155852364,,
0.008390768399154,-0.0268585524767626,-0.00129724279104071,,
0.00863050463912983,0.00688492633562484,-0.000659874014368622,,
0.00887024087910566,0.0405280240179615,-1.56212673352307E-05,,
0.00910997711908149,0.0738121342162271,0.000669014491167186,,
0.00934971335905732,0.105994181076891,0.00128978786602474,,
0.00958944959903315,0.136495858129796,0.00195562504005764,,
0.00982918583900897,0.165098339441963,0.00256885895219439,,
0.0100689220789848,0.191380916245069,0.00316408763371001,,
0.0103086583189606,0.214722408860254,0.00366528177431569,,
0.0105483945589365,0.234979002661142,0.00414855652258606,,
0.0107881307989123,0.252130258355345,0.00456612336407813,,
0.0110278670388881,0.265199213625119,0.00490951292131481,,
0.0112676032788639,0.2751162148582,0.00521587496368747,,
0.0115073395188398,0.28092258752477,0.00541012180088485,,
0.0117470757588156,0.28264683905895,0.00551959682849912,,
0.0119868119987914,0.280329668753477,0.00559972296603828,,
0.0122265482387673,0.273955478201002,0.00556207117273599,,
0.0124662844787431,0.263718261387174,0.00545349614653734,,
0.0127060207187189,0.249789421500791,0.00526248775373794,,
0.0129457569586947,0.232345561199769,0.00503252438639645,,
0.0131854931986706,0.211404251103879,0.00467910215442657,,
0.0134252294386464,0.187632457596312,0.00427941568786716,,
0.0136649656786222,0.161071417845923,0.00382445977024881,,
0.0139047019185981,0.132179581595134,0.0032912271399641,,
0.0141444381585739,0.101250449910959,0.00274013234286707,,
0.0143841743985497,0.0691112762589999,0.00213329208240109,,
0.0146239106385255,0.0358605143798938,0.00151193734824817,,
0.0148636468785014,0.0021297428907345,0.000849277491349554,,
0.0151033831184772,-0.0315022162737108,0.000189913304372347,,
0.015343119358453,-0.0651488773853125,-0.000456683087964205,,
0.0155828555984289,-0.0976403598929089,-0.00113815583571331,,
0.0158225918384047,-0.128716511048648,-0.00177926898243452,,
0.0160623280783805,-0.157916371021566,-0.00240760523045447,,
0.0163020643183563,-0.184529405463118,-0.00299317840545976,,
0.0165418005583322,-0.208898779334979,-0.0035318058419147,,
0.016781536798308,-0.230186257534188,-0.00398903777467208,,
0.0170212730382838,-0.248377631166694,-0.00444555178722617,,
0.0172610092782597,-0.262711850352107,-0.00480359628079885,,
0.0175007455182355,-0.273416660802323,-0.00510812970757968,,
0.0177404817582113,-0.27995351405672,-0.00535680061878496,,
0.0179802179981871,-0.282923441851334,-0.00550905172521432,,
0.018219954238163,-0.281520347181103,-0.00558012582540046,,
0.0184596904781388,-0.276565387582323,-0.00558158247508933,,
0.0186994267181146,-0.266818131086685,-0.00548434070370352,,
0.0189391629580905,-0.253810897101161,-0.00532079015754316,,
0.0191788991980663,-0.237247360709136,-0.00508298169116195,,
0.0194186354380421,-0.217086150272726,-0.00477923901706934,,
0.0196583716780179,-0.19379826597705,-0.00436108691454118,,
0.0198981079179938,-0.167768109952636,-0.00391785832750013,,
0.0201378441579696,-0.13939196242756,-0.00343441840555991,,
0.0203775803979454,-0.109038851240051,-0.00288907997589449,,
0.0206173166379213,-0.0771899513984107,-0.00229508814603463,,
0.0208570528778971,-0.0440979750308943,-0.00167526289405506,,
0.0210967891178729,-0.0103557960857859,-0.00103600307394736,,
0.0213365253578487,0.023316884782902,-0.000362177737065483,,
0.0215762615978246,0.0568333574630535,0.000292211731107273,,
0.0218159978378004,0.0896572474100144,0.000977607028376237,,
0.0220557340777762,0.121170512555597,0.00160164615981362,,
0.0222954703177521,0.150712439326454,0.00224092808978282,,
0.0225352065577279,0.178150239556575,0.00283710359359635,,
0.0227749427977037,0.203201819634899,0.00338948596497213,,
0.0230146790376796,0.224860656468834,0.00391228534185872,,
0.0232544152776554,0.243663550421628,0.00436411986728658,,
0.0234941515176312,0.258995709093289,0.00474836584714167,,
0.023733887757607,0.270658118321091,0.00505809899308041,,
0.0239736239975829,0.278334686241174,0.00530007711919644,,
0.0242133602375587,0.282208470024836,0.00548112046742633,,
0.0244530964775345,0.281869249488009,0.00555486856025578,,
0.0246928327175104,0.277625765520976,0.00559433336218884,,
0.0249325689574862,0.269619300250068,0.00553276130006397,,
0.025172305197462,0.257495393315186,0.00539814605951294,,
0.0254120414374378,0.241719486848257,0.00514961561095628,,
0.0256517776774137,0.222600501031602,0.00486492643502867,,
0.0258915139173895,0.200125347546411,0.00450294898729542,,
0.0261312501573653,0.174835286645388,0.00408760873889902,,
0.0263709863973412,0.147304837254376,0.00357309665827898,,
0.026610722637317,0.117321471073247,0.00303751778153094,,
0.0268504588772928,0.0858112314808133,0.00243158272480049,,
0.0270901951172686,0.0529952527950508,0.00184537226555648,,
0.0273299313572445,0.0194823435441643,0.0011982452365471,,
0.0275696675972203,-0.0142520361972697,0.000547260687022266,,
0.0278094038371961,-0.0479596117789491,-0.000125805111092614,,
0.028049140077172,-0.0810726997839979,-0.000780829262344351,,
0.0282888763171478,-0.112839842456086,-0.0014630511442193,,
0.0285286125571236,-0.143091653641847,-0.00209391702049411,,
0.0287683487970994,-0.171178782400873,-0.00266864595879612,,
0.0290080850370753,-0.196955553951888,-0.00325974529855921,,
0.0292478212770511,-0.219624208369621,-0.00378534742551739,,
0.0294875575170269,-0.239703661636479,-0.00423974799544213,,
0.0297272937570028,-0.255623718902356,-0.00461507329653132,,
0.0299670299969786,-0.268256680757527,-0.00498328442458584,,
0.0302067662369544,-0.277253869010133,-0.00523643973590548,,
0.0304465024769302,-0.282071132323351,-0.00542912327584721,,
0.0306862387169061,-0.282761227379508,-0.00555275121588661,,
0.0309259749568819,-0.279232491123924,-0.00557263448414203,,
0.0311657111968577,-0.272193889099806,-0.00554352229964206,,
0.0314054474368336,-0.261108083067794,-0.0053850804320339,,
0.0316451836768094,-0.246182738031472,-0.00518965136754446,,
0.0318849199167852,-0.227859450281645,-0.00493338376809493,,
0.032124656156761,-0.206015584063986,-0.00459883295307861,,
0.0323643923967369,-0.181398607886967,-0.0041569998884623,,
0.0326041286367127,-0.154226182285319,-0.00369003961670966,,
0.0328438648766885,-0.124851826335939,-0.00316820527024175,,
0.0330836011166644,-0.0936984899576288,-0.00261464717447435,,
0.0333233373566402,-0.0612363665213355,-0.00202610737630771,,
0.033563073596616,-0.0277184370933713,-0.00135068232592861,,
0.0338028098365918,0.00604350879898091,-0.000732614157636036,,
0.0340425460765677,0.03966253652515,-3.81473143127309E-05,,
0.0342822823165435,0.0730270143796697,0.000619061811472754,,
0.0345220185565193,0.105121028849434,0.00129541677660905,,
0.0347617547964952,0.135830326082913,0.0019431914944974,,
0.035001491036471,0.164446254297966,0.0025355224835959,,
0.0352412272764468,0.190567826850507,0.00310775690930543,,
0.0354809635164226,0.214266827790445,0.00364957076695527,,
0.0357206997563985,0.234674385487744,0.00411905936638224,,
0.0359604359963743,0.251400898342759,0.00454280916557259,,
0.0362001722363501,0.265197599996773,0.00489595307340585,,
0.036439908476326,0.274863054499849,0.00518996740850364,,
0.0366796447163018,0.28069667955627,0.00541504059474596,,
0.0369193809562776,0.282410352860179,0.0055509147968138,,
0.0371591171962534,0.280165257954179,0.0055898801759966,,
0.0373988534362293,0.274063949884289,0.00555384890547339,,
0.0376385896762051,0.263821175017268,0.0054578765002451,,
0.0378783259161809,0.250156790887661,0.00527290279901482,,
0.0381180621561568,0.232919475014982,0.00501033128791972,,
0.0383577983961326,0.212055439787682,0.00469608252794451,,
0.0385975346361084,0.188232727341184,0.00427947811571094,,
0.0388372708760842,0.161609114669361,0.00380237331933841,,
0.0390770071160601,0.13296488072373,0.00331288700060828,,
0.0393167433560359,0.102232432405781,0.00273563753811201,,
0.0395564795960117,0.0699299237067553,0.0021766820350142,,
0.0397962158359876,0.0367632273821973,0.00153134200303473,,
0.0400359520759634,0.00302351370261816,0.000860960602203864,,
0.0402756883159392,-0.0307083111272673,0.000196104065550706,,
0.040515424555915,-0.0642855413969629,-0.000466962872912813,,
0.0407551607958909,-0.096820457400884,-0.00113689687419649,,
0.0409948970358667,-0.127888719706929,-0.00178185973795308,,
0.0412346332758425,-0.157064554546689,-0.00239229090001825,,
0.0414743695158184,-0.184036128242216,-0.00296644758308551,,
0.0417141057557942,-0.208618501055806,-0.00350374452611879,,
0.04195384199577,-0.229618843055369,-0.00399486437342844,,
0.0421935782357458,-0.248099190630915,-0.00440450547991622,,
0.0424333144757217,-0.26215496928055,-0.00479948774832772,,
0.0426730507156975,-0.273003392653598,-0.00509686278235089,,
0.0429127869556733,-0.280223124459603,-0.00534973586779275,,
0.0431525231956492,-0.282625996359475,-0.00550229911344147,,
0.043392259435625,-0.281695112095624,-0.00557241598668901,,
0.0436319956756008,-0.276316485409886,-0.00556931540377903,,
0.0438717319155766,-0.267534985479586,-0.00548580905861318,,
0.0441114681555525,-0.254369571093103,-0.00530836701662363,,
0.0443512043955283,-0.237664976689794,-0.00506918513767829,,
0.0445909406355041,-0.217761901965803,-0.0047728921862813,,
0.04483067687548,-0.194414672005386,-0.00436511351046764,,
0.0450704131154558,-0.168391508370473,-0.0039277024181219,,
0.0453101493554316,-0.140109623634635,-0.00346477914693599,,
0.0455498855954074,-0.109871662758847,-0.00287777013152324,,
0.0457896218353833,-0.0780202528286681,-0.00230609755640776,,
0.0460293580753591,-0.0449796436301797,-0.00171250240347209,,
0.0462690943153349,-0.0112917453497248,-0.00105274414073087,,
0.0465088305553108,0.0224252206524706,-0.000365768638665109,,
0.0467485667952866,0.0560419624051489,0.000271579328725569,,
0.0469883030352624,0.0888020243864066,0.000943677495261586,,
0.0472280392752382,0.120266163513443,0.00158770394136099,,
0.0474677755152141,0.14985849375862,0.00222570610053197,,
0.0477075117551899,0.177679060079417,0.00284441805596369,,
0.0479472479951657,0.202294601920128,0.00339572874935357,,
0.0481869842351416,0.224619867261139,0.00388965524847507,,
0.0484267204751174,0.243371125106847,0.00434557879767272,,
0.0486664567150932,0.258909290330736,0.0047459077507912,,
0.048906192955069,0.270510919557489,0.00505846315550285,,
0.0491459291950449,0.278078477918168,0.00529355340951732,,
0.0493856654350207,0.282185520643909,0.00549785112956913,,
0.0496254016749965,0.281936125418367,0.00556343418065941,,
0.0498651379149724,0.277865299684401,0.00559085821221617,,
0.0501048741549482,0.269597426621372,0.00549856904977331,,
0.050344610394924,0.257787997922005,0.00535881391674797,,
0.0505843466348998,0.242075202252625,0.00513480980733094,,
0.0508240828748757,0.223235912016018,0.00485877729241269,,
0.0510638191148515,0.200575370563026,0.00449303076360907,,
0.0513035553548273,0.175673320044805,0.00407871016999506,,
0.0515432915948032,0.147979714898765,0.00355691744208952,,
0.051783027834779,0.1181736461322,0.00304157559137863,,
0.0520227640747548,0.0866532093050775,0.00247572961501996,,
0.0522625003147306,0.0538822105094718,0.00186169714671447,,
0.0525022365547065,0.0203357736473872,0.00120056547140912,,
0.0527419727946823,-0.0134060915366538,0.000536491883964096,,
0.0529817090346581,-0.0471219593751135,-0.000104975020538856,,
0.053221445274634,-0.0802942585758744,-0.00080290790977422,,
0.0534611815146098,-0.112114919921452,-0.00145167887200381,,
0.0537009177545856,-0.14229106986697,-0.00209039895137897,,
0.0539406539945614,-0.17067497177271,-0.00265999970242747,,
0.0541803902345373,-0.196124400884448,-0.00324121463358606,,
0.0544201264745131,-0.219070554554757,-0.0037881969964717,,
0.0546598627144889,-0.238945614897734,-0.00421478726255575,,
0.0548995989544648,-0.255306013410148,-0.00464023301816985,,
0.0551393351944406,-0.268051346550444,-0.00496727168264677,,
0.0553790714344164,-0.276961398872343,-0.00522054144501327,,
0.0556188076743922,-0.281848765372611,-0.00544380552436508,,
0.0558585439143681,-0.282956610878455,-0.00554672692895819,,
0.0560982801543439,-0.279749434893906,-0.00558832468222148,,
0.0563380163943197,-0.272557672645907,-0.00553720798335622,,
0.0565777526342956,-0.261426505728157,-0.00539247813152643,,
0.0568174888742714,-0.246583814321579,-0.00521236339747322,,
0.0570572251142472,-0.228377783564926,-0.00492501843702353,,
0.057296961354223,-0.206699762482872,-0.00460793701363516,,
0.0575366975941989,-0.18209623320874,-0.0041822831652083,,
0.0577764338341747,-0.154919863182245,-0.00369152617974056,,
0.0580161700741505,-0.125640576836275,-0.00318497755094738,,
0.0582559063141264,-0.0944343044836008,-0.00259375465607681,,
0.0584956425541022,-0.0619366812236861,-0.00199101382402178,,
0.058735378794078,-0.0285908721526743,-0.00137466502259498,,
0.0589751150340538,0.00513111402659887,-0.000702471913712976,,
0.0592148512740297,0.0388259822850501,-3.97275191090785E-05,,
0.0594545875140055,0.0721769908251782,0.000612112812107934,,
0.0596943237539813,0.104272237927707,0.00127680287451071,,
0.0599340599939572,0.134920082814993,0.00190382813781076,,
0.060173796233933,0.163571466030658,0.00252024066766143,,
0.0604135324739088,0.19008588985104,0.0031051557491466,,
0.0606532687138846,0.213573684769634,0.00364367133571442,,
0.0608930049538605,0.234260579462904,0.00412459463520065,,
0.0611327411938363,0.251231825950461,0.00452169814972203,,
0.0613724774338121,0.26492202813361,0.00490753343843409,,
0.061612213673788,0.274485286174746,0.00519785412610574,,
0.0618519499137638,0.280524021323202,0.005378210768054,,
0.0620916861537396,0.282502150383887,0.00555000959307872,,
0.0623314223937154,0.280456966100806,0.00559067092868482,,
0.0625711586336913,0.274415541571773,0.00555665815844497,,
0.0628108948736671,0.264414631664677,0.0054662028139143,,
0.0630506311136429,0.250662932312325,0.00525846115781148,,
0.0632903673536188,0.233110600328015,0.00503723768860498,,
0.0635301035935946,0.212535225282688,0.00469742472658652,,
0.0637698398335704,0.188968900451233,0.00430598914005209,,
0.0640095760735463,0.162520433689512,0.00385568669795822,,
0.0642493123135221,0.133770081268599,0.0033221575354152,,
0.0644890485534979,0.103017731534377,0.00276867227213184,,
0.0647287847934737,0.0707605837210897,0.00216922971115885,,
0.0649685210334496,0.0375910187239158,0.00155148538730643,,
0.0652082572734254,0.00389774168230616,0.000871927093434532,,
0.0654479935134012,-0.0297828056245705,0.000252590859564528,,
0.0656877297533771,-0.0634810580202483,-0.000446007926671488,,
0.0659274659933529,-0.0960584662372921,-0.00109825403887331,,
0.0661672022333287,-0.127114402215691,-0.00171798564908743,,
0.0664069384733045,-0.156387368517304,-0.00238329998992848,,
0.0666466747132804,-0.183458673409243,-0.0029715887761399,,
0.0668864109532562,-0.207859019980753,-0.00350409828390053,,
0.067126147193232,-0.229352773670247,-0.00398145279164863,,
0.0673658834332078,-0.247583188144135,-0.00442555406792344,,
0.0676056196731837,-0.261862723257808,-0.00479964251735732,,
0.0678453559131595,-0.272807247163488,-0.0051324362486862,,
0.0680850921531353,-0.280022362199501,-0.00533885261368727,,
0.0683248283931112,-0.282764051229114,-0.005513380055719,,
0.068564564633087,-0.281725457273138,-0.00555594674114168,,
0.0688043008730628,-0.276792192011016,-0.00556845181860632,,
0.0690440371130387,-0.267617235702244,-0.00549875113098475,,
0.0692837733530145,-0.254607446805173,-0.00533005028770939,,
0.0695235095929903,-0.238104914529244,-0.00509186595368538,,
0.0697632458329661,-0.218191306397992,-0.00478892573750178,,
0.070002982072942,-0.195162678389975,-0.00439903263894159,,
0.0702427183129178,-0.169293885200204,-0.00395289205310201,,
0.0704824545528936,-0.141000391304874,-0.00344853750290319,,
0.0707221907928695,-0.110718638348684,-0.00292527772066808,,
0.0709619270328453,-0.0788028625766866,-0.00232165249415894,,
0.0712016632728211,-0.0458986946194907,-0.00169126653193352,,
0.0714413995127969,-0.0121155922665965,-0.00105719732692311,,
0.0716811357527728,0.0215698407483291,-0.000402402077765096,,
0.0719208719927486,0.0552188326564312,0.000251550395501177,,
0.0721606082327244,0.0879962859654226,0.000929475160793114,,
0.0724003444727002,0.119515467748276,0.00160341494872185,,
0.0726400807126761,0.149221827729934,0.00219848756062779,,
0.0728798169526519,0.176746046722609,0.00278300986692859,,
0.0731195531926277,0.201951616250493,0.00335358995477719,,
0.0733592894326036,0.22394913574514,0.00388587836392418,,
0.0735990256725794,0.2429605463387,0.0043292955350771,,
0.0738387619125552,0.25833322501106,0.00471181174342661,,
0.0740784981525311,0.270237857782866,0.00502289749264806,,
0.0743182343925069,0.277943829597261,0.00531131933340356,,
0.0745579706324827,0.282165977811714,0.005493429157299,,
0.0747977068724585,0.281717030547329,0.00558366860553683,,
0.0750374431124344,0.277822986763317,0.00558672756988354,,
0.0752771793524102,0.269935392113929,0.00553605696998538,,
0.075516915592386,0.25781005084274,0.00539358622575392,,
0.0757566518323619,0.242396672877642,0.0051668561004905,,
0.0759963880723377,0.223591806712425,0.00488750450520925,,
0.0762361243123135,0.20140369978086,0.00449984840438589,,
0.0764758605522893,0.176111689078919,0.00408485150913052,,
0.0767155967922652,0.148643073029681,0.00359573715630335,,
0.076955333032241,0.118949980658871,0.00304333397564616,,
0.0771950692722168,0.0874193241855547,0.00247690533941158,,
0.0774348055121927,0.0547659409671999,0.00186913646476938,,
0.0776745417521685,0.0211979666489915,0.00122180654526804,,
0.0779142779921443,-0.0125223610789257,0.000569618959169738,,
0.0781540142321201,-0.046268708563929,-0.000117949607412182,,
0.078393750472096,-0.0793986500205962,-0.000762747297498922,,
0.0786334867120718,-0.111333027341588,-0.00143202580642221,,
0.0788732229520476,-0.141722534812911,-0.00209526962377682,,
0.0791129591920234,-0.169818852288909,-0.00263288650950955,,
