Time domain (s),Current (AC) (A),Potential (AC) (V),Frequency (Hz),Column 5
0,-0.00972534498181545,-0.00586568253265707,0.0063096,0.4
0.386935186065678,-0.00400717169604357,-0.00561777507818961,,
0.773870372131355,0.00178648264825733,-0.00536879555636505,,
1.16080555819703,0.00751578192403736,-0.00508895348942984,,
1.54774074426271,0.0133687553624344,-0.00485127940518337,,
1.93467593032839,0.0191064576885627,-0.00460655566589541,,
2.32161111639407,0.0248168135024078,-0.00432974909270634,,
2.70854630245974,0.0304985638103635,-0.00404930804874404,,
3.09548148852542,0.03632998796285,-0.00378730128419358,,
3.4824166745911,0.0420559787205486,-0.00354043544062366,,
3.86935186065678,0.0477689110794482,-0.00328794530429288,,
4.25628704672245,0.053487435712273,-0.0030276603448911,,
4.64322223278813,0.0590736196218428,-0.00274590155146992,,
5.03015741885381,0.0647953942149068,-0.00247234569767008,,
5.41709260491949,0.070482092660524,-0.00219705179527763,,
5.80402779098517,0.0761570502587905,-0.00194604184285385,,
6.19096297705084,0.0817671257679568,-0.00166031964890268,,
6.57789816311652,0.0873722531394616,-0.00141444465546492,,
6.9648333491822,0.0929012845950948,-0.00115079527255979,,
7.35176853524788,0.0985418394610992,-0.000853897588589003,,
7.73870372131355,0.104054006258194,-0.000588918273641603,,
8.12563890737923,0.109571999560582,-0.0003422981121739,,
8.51257409344491,0.115081384860174,-7.75299620086045E-05,,
8.89950927951059,0.120668739926587,0.000216009389750749,,
9.28644446557626,0.12598787079704,0.000488168307298142,,
9.67337965164194,0.131409185102042,0.000765427666510998,,
10.0603148377076,0.136823004003248,0.00101604371539832,,
10.4472500237733,0.142114993313866,0.00129758322231499,,
10.834185209839,0.147325206597923,0.00154815054086788,,
11.2211203959047,0.15278537403119,0.00181587093712476,,
11.6080555819703,0.157911088349027,0.00209899417990878,,
11.994990768036,0.163184309871236,0.00234759198078027,,
12.3819259541017,0.1683603546544,0.00265299716896239,,
12.7688611401674,0.173444141557259,0.00289366004705149,,
13.155796326233,0.178455931593197,0.00314237561289765,,
13.5427315122987,0.183631302961176,0.00341583806688961,,
13.9296666983644,0.188620665343572,0.00368232802220358,,
14.3166018844301,0.193521927452455,0.00394069625511939,,
14.7035370704958,0.198421169315784,0.00421230289554364,,
15.0904722565614,0.203248853496009,0.00446610672047187,,
15.4774074426271,0.207990896832091,0.00475069187328758,,
15.8643426286928,0.212754460175163,0.00498752129840474,,
16.2512778147585,0.217587824466075,0.00526659992343514,,
16.6382130008241,0.22225113678339,0.00552115094682382,,
17.0251481868898,0.226758216777852,0.00576553357377119,,
17.4120833729555,0.231316827673406,0.00601465928659817,,
17.7990185590212,0.23596678880271,0.00625014050579731,,
18.1859537450869,0.240163980696524,0.0065001636689499,,
18.5728889311525,0.244684177647628,0.00675770348618121,,
18.9598241172182,0.248980917873095,0.00701338748984481,,
19.3467593032839,0.253152812779101,0.00725034686252002,,
19.7336944893496,0.25752403857978,0.00751201657559086,,
20.1206296754152,0.261380189600924,0.00774309582125055,,
20.5075648614809,0.265829180215975,0.00797165327210569,,
20.8945000475466,0.269685799699856,0.00822774742275012,,
21.2814352336123,0.273542419183736,0.0084607758817854,,
21.6683704196779,0.277446353404073,0.00870452501438512,,
22.0553056057436,0.281590843239954,0.00890669092830887,,
22.4422407918093,0.28498719808455,0.00916978600366036,,
22.829175977875,0.28876558429132,0.00938132438523098,,
23.2161111639407,0.292272027879154,0.00959551450916463,,
23.6030463500063,0.295929082236994,0.00981247414043596,,
23.989981536072,0.299510948325515,0.0100606414900204,,
24.3769167221377,0.302683612213105,0.0102556440447894,,
24.7638519082034,0.306067552795165,0.0104874542454647,,
25.150787094269,0.309405584028981,0.0107085437725751,,
25.5377222803347,0.312505636192307,0.0109245694057707,,
25.9246574664004,0.315679939699476,0.0111366925513541,,
26.3115926524661,0.318753055255414,0.0113107370014758,,
26.6985278385318,0.321692190468517,0.0115295199594252,,
27.0854630245974,0.324850566242622,0.0117414684879771,,
27.4723982106631,0.327469741406227,0.0119405928168628,,
27.8593333967288,0.330362030345611,0.0121000384709746,,
28.2462685827945,0.332917494576958,0.0123466139629693,,
28.6332037688601,0.335578128692804,0.0124939420072634,,
29.0201389549258,0.337904983108405,0.0126764046226504,,
29.4070741409915,0.340525329428853,0.0128665219613975,,
29.7940093270572,0.343014037720151,0.0130850734502586,,
30.1809445131229,0.345048805619117,0.0132386105513258,,
30.5678796991885,0.347091537384615,0.0134206467762872,,
30.9548148852542,0.349453994968242,0.0135993733993711,,
31.3417500713199,0.35142833117411,0.013751720668107,,
31.7286852573856,0.35321270574005,0.0139328553818823,,
32.1156204434512,0.355112790602075,0.0140718627215799,,
32.5025556295169,0.356896696705278,0.0142183461067451,,
32.8894908155826,0.358595342590313,0.0143773531878475,,
33.2764260016483,0.360320925082736,0.014546447448168,,
33.663361187714,0.361809231198775,0.0146640499884865,,
34.0502963737796,0.363366869799917,0.0148313574698795,,
34.4372315598453,0.364831987010465,0.0149906772372943,,
34.824166745911,0.365976909940147,0.0151095305228623,,
35.2111019319767,0.367052734616094,0.0152313522979668,,
35.5980371180423,0.368354124099995,0.0153591069912826,,
35.984972304108,0.36926387873561,0.0155157750163344,,
36.3719074901737,0.370359613077887,0.0156163056961733,,
36.7588426762394,0.37101663206679,0.015720036334637,,
37.1457778623051,0.371800370226101,0.0158656750606725,,
37.5327130483707,0.372437948011411,0.015966465635628,,
37.9196482344364,0.372855348310243,0.0160557436690851,,
38.3065834205021,0.373387287748317,0.0161935165069784,,
38.6935186065678,0.373913605633545,0.0162668231733401,,
39.0804537926334,0.374031658243316,0.0163546027490145,,
39.4673889786991,0.374567813846025,0.0164415539090044,,
39.8543241647648,0.37427244809023,0.016558961527986,,
40.2412593508305,0.374451635087203,0.0166127110868137,,
40.6281945368962,0.374667830640414,0.0167108377368228,,
41.0151297229618,0.374316717818894,0.0167728389656072,,
41.4020649090275,0.373841696603388,0.0168466938482306,,
41.7890000950932,0.374127224641702,0.0168948597229104,,
42.1759352811589,0.373462007554899,0.0170013842338785,,
42.5628704672245,0.372817871291268,0.0170566281896276,,
42.9498056532902,0.372443335332888,0.0170967332548275,,
43.3367408393559,0.37187040540531,0.0171471894552235,,
43.7236760254216,0.371013118596261,0.0172211093116261,,
44.1106112114873,0.37053716045528,0.0172631635902016,,
44.4975463975529,0.369365769380948,0.0172984768391866,,
44.8844815836186,0.368308683214488,0.0173396214848536,,
45.2714167696843,0.367466387213028,0.0173848269917194,,
45.65835195575,0.366227069041804,0.0173828940217886,,
46.0452871418156,0.365052398728311,0.0173975131221047,,
46.4322223278813,0.363464310049252,0.0174138052972341,,
46.819157513947,0.361963355439309,0.0174164692221805,,
47.2060927000127,0.360540165643739,0.0174863525825519,,
47.5930278860784,0.359092381554467,0.0174833434844035,,
47.979963072144,0.357541535663014,0.017486478469249,,
48.3668982582097,0.355549163641764,0.0174756278481256,,
48.7538334442754,0.353792194145949,0.0174758390129082,,
49.1407686303411,0.351827695657561,0.0174901007574384,,
49.5277038164067,0.350048708413099,0.0174601478452354,,
49.9146390024724,0.347901977919946,0.0174436445053234,,
50.3015741885381,0.345855264221182,0.0174070480241992,,
50.6885093746038,0.343371943251361,0.0173867437182049,,
51.0754445606695,0.341079755078312,0.0173857041377383,,
51.4623797467351,0.338565281336468,0.0173485878663806,,
51.8493149328008,0.336229057666123,0.0172958454011298,,
52.2362501188665,0.333553432742688,0.0172552246065578,,
52.6231853049322,0.331085805274562,0.017204443537266,,
53.0101204909978,0.328302668152943,0.0171884802918933,,
53.3970556770635,0.325399136107866,0.0171033808846102,,
53.7839908631292,0.322441028153908,0.0170737162935528,,
54.1709260491949,0.31958106314339,0.0169958086714526,,
54.5578612352606,0.316463209396051,0.0169202319836805,,
54.9447964213262,0.313358238373985,0.0168919805723204,,
55.3317316073919,0.310027234081226,0.0167878479085979,,
55.7186667934576,0.306865579067961,0.0167158569612647,,
56.1056019795233,0.303565961778594,0.0166493238113827,,
56.4925371655889,0.300264939101015,0.0165586691459794,,
56.8794723516546,0.296991789956299,0.0164503578560837,,
57.2664075377203,0.29348113020383,0.0163785943169774,,
57.653342723786,0.289817048904933,0.016267391693908,,
58.0402779098517,0.286029527674788,0.0161696386431291,,
58.4272130959173,0.282266132275607,0.0160714470193408,,
58.814148281983,0.278441134026486,0.0159754645040446,,
59.2010834680487,0.274526659394563,0.0158683877159533,,
59.5880186541144,0.270507014878142,0.0157610144849945,,
59.97495384018,0.266760952600238,0.0156357490995935,,
60.3618890262457,0.262349204772792,0.0154997102494319,,
60.7488242123114,0.25833471334648,0.015366611462778,,
61.1357593983771,0.254297267246046,0.0152549377798095,,
61.5226945844428,0.250102651897286,0.0151315200862538,,
61.9096297705084,0.245682471740571,0.0149500320775546,,
62.2965649565741,0.241336074464963,0.0148368315107756,,
62.6835001426398,0.236896453104655,0.014696305408989,,
63.0704353287055,0.232519839982498,0.0145814845585917,,
63.4573705147711,0.227914148581858,0.0144201871517731,,
63.8443057008368,0.223274493632772,0.0142586460932828,,
64.2312408869025,0.218816133762976,0.0141015760429721,,
64.6181760729682,0.213968949821317,0.0139215458834432,,
65.0051112590339,0.209183368729597,0.0137971048528658,,
65.3920464450995,0.204482110930571,0.0136226989860972,,
65.7789816311652,0.199849248691174,0.0134485205275561,,
66.1659168172309,0.194655636555365,0.0132908941392613,,
66.5528520032966,0.189931189850848,0.0130700035943496,,
66.9397871893622,0.184820729850891,0.0128958048315022,,
67.3267223754279,0.179815439735431,0.0127633029914449,,
67.7136575614936,0.174779494589607,0.012532893787883,,
68.1005927475593,0.169761292469953,0.0123804815453674,,
68.4875279336249,0.164552221063818,0.0121737349800113,,
68.8744631196906,0.159302159168179,0.0119616808690686,,
69.2613983057563,0.15413688902797,0.011798202779786,,
69.648333491822,0.148762918738346,0.0115748554138491,,
70.0352686778877,0.143508669956993,0.0113684174739443,,
70.4222038639533,0.138230939480939,0.0111814066940146,,
70.809139050019,0.132868885712191,0.0109771616191572,,
71.1960742360847,0.127308730763456,0.0107367302101564,,
71.5830094221504,0.121891456949563,0.0104954460203039,,
71.9699446082161,0.116569925207582,0.0103166056931063,,
72.3568797942817,0.111048623387112,0.0101219117637887,,
72.7438149803474,0.10550463040281,0.00988963050321434,,
73.1307501664131,0.0999975874169035,0.00967869718996184,,
73.5176853524788,0.0944034103618804,0.00942353703739318,,
73.9046205385444,0.088868347448506,0.00920066479221671,,
74.2915557246101,0.0832123333121744,0.00901472607964315,,
74.6784909106758,0.0775987443324793,0.00873097340337337,,
75.0654260967415,0.0719982723094253,0.00852075074083114,,
75.4523612828071,0.0662891462102653,0.00830717380693846,,
75.8392964688728,0.0605616915065129,0.00803972954924292,,
76.2262316549385,0.0549115624333173,0.0078170968948772,,
76.6131668410042,0.0491555607815176,0.00757800963093347,,
77.0001020270699,0.0435312264377883,0.00733648178940927,,
77.3870372131355,0.0378175913847829,0.00708550838473609,,
77.7739723992012,0.0320325450432778,0.0068102956995677,,
78.1609075852669,0.0263268738568045,0.00659870858766221,,
78.5478427713326,0.0205655434413694,0.00632307357292916,,
78.9347779573982,0.0148526110824698,0.00608687764215876,,
79.3217131434639,0.00901413071000447,0.00584251125865665,,
79.7086483295296,0.00329750920704952,0.00558412678229558,,
80.0955835155953,-0.00253086993764527,0.00530218931098148,,
80.482518701661,-0.00826789884858886,0.00506821873214847,,
80.8694538877266,-0.0140365489942925,0.00482076609413529,,
81.2563890737923,-0.0198297934336984,0.0045401768287392,,
81.643324259858,-0.0255874932629203,0.00429820229248268,,
82.0302594459237,-0.0312916126665766,0.00402953165470565,,
82.4171946319893,-0.0370797040158734,0.0037749319009821,,
82.804129818055,-0.0427954764301172,0.00349757914196136,,
83.1910650041207,-0.0484856590673422,0.00323126786454075,,
83.5780001901864,-0.0541969225277406,0.00295814652288939,,
83.9649353762521,-0.0598901501727573,0.0027055771997655,,
84.3518705623177,-0.0655817381981939,0.00244766784416495,,
84.7388057483834,-0.0712627858120439,0.00217446528528953,,
85.1257409344491,-0.076987400460452,0.00191127274926917,,
85.5126761205148,-0.0825754582209706,0.0016267525702327,,
85.8996113065804,-0.0881391559191555,0.00137856897720345,,
86.2865464926461,-0.0936803674059555,0.00106219540292329,,
86.6734816787118,-0.0993429107416866,0.000828740553462382,,
87.0604168647775,-0.104781763120412,0.000548171592372082,,
87.4473520508432,-0.110317821517103,0.000289368847307792,,
87.8342872369088,-0.115805218346968,9.42525884273238E-06,,
88.2212224229745,-0.121389938310484,-0.000246218136208842,,
88.6081576090402,-0.126718936177339,-0.000548114740315242,,
88.9950927951059,-0.132306291243752,-0.000769707814214371,,
89.3820279811715,-0.137535272316218,-0.00106426644213453,,
89.7689631672372,-0.14286093238607,-0.00131566623723334,,
90.1558983533029,-0.148244154814755,-0.00157237763878015,,
90.5428335393686,-0.153457383827683,-0.00183628488637133,,
90.9297687254343,-0.15865398241344,-0.0021249309003859,,
91.3167039114999,-0.16384952695804,-0.00240066337578781,,
91.7036390975656,-0.168992076655495,-0.00265865800947385,,
92.0905742836313,-0.174001114472852,-0.00292591343712312,,
92.477509469697,-0.179199879698769,-0.0031970632306626,,
92.8644446557626,-0.184227187562876,-0.00345010361368558,,
93.2513798418283,-0.189338116025572,-0.00372408179705008,,
93.638315027894,-0.1941288502074,-0.00400028533235108,,
94.0252502139597,-0.199054033194801,-0.00424957347962662,,
94.4121854000254,-0.203945721096493,-0.00447564974428927,,
94.799120586091,-0.208916813432138,-0.00476588761589358,,
95.1860557721567,-0.213470037006214,-0.00502137872865038,,
95.5729909582224,-0.218202681808632,-0.0052829347376071,,
95.9599261442881,-0.222974209018236,-0.00554298822792054,,
96.3468613303537,-0.227352227528604,-0.00582848504407574,,
96.7337965164194,-0.23185368597022,-0.00604278481126164,,
97.1207317024851,-0.236528944087333,-0.00627527723661814,,
97.5076668885508,-0.2408987644998,-0.00655305638606496,,
97.8946020746165,-0.245330656224945,-0.00680136992665226,,
98.2815372606821,-0.249475380292194,-0.0070604203842497,,
98.6684724467478,-0.253897258626331,-0.00731120292844611,,
99.0554076328135,-0.258162084827827,-0.0075367106725408,,
99.4423428188792,-0.26232133123993,-0.00774873838788626,,
99.8292780049448,-0.26623082845527,-0.00803224944291481,,
100.216213191011,-0.270429484295138,-0.008284138571788,,
100.603148377076,-0.274300391892503,-0.00853157293592588,,
100.990083563142,-0.278405765089829,-0.00874473566197631,,
101.377018749208,-0.282111539572336,-0.00896434703561022,,
101.763953935273,-0.285775152408496,-0.00920171249440571,,
102.150889121339,-0.289567358266013,-0.00943873684086061,,
102.537824307405,-0.29309131064865,-0.00965823451038084,,
102.92475949347,-0.296828764923759,-0.0099034455530127,,
103.311694679536,-0.300113625636904,-0.0101092987289051,,
103.698629865602,-0.303517534443137,-0.0103655857704563,,
104.085565051667,-0.307073576523271,-0.0105430819525973,,
104.472500237733,-0.310353986840413,-0.0107694485688357,,
104.859435423799,-0.313541114515013,-0.0110009014137256,,
105.246370609864,-0.316520830312725,-0.0112105555556998,,
105.63330579593,-0.319696539208106,-0.0114034464626456,,
106.020240981996,-0.322448055094966,-0.011617049792136,,
106.407176168061,-0.325594192280062,-0.0117976748678301,,
106.794111354127,-0.328384590574108,-0.0120045534111752,,
107.181046540193,-0.33090474442664,-0.0122065711036652,,
107.567981726258,-0.33369959311669,-0.0124006640255256,,
107.954916912324,-0.336247093481505,-0.0125873986668941,,
108.34185209839,-0.338748684498076,-0.0128012761045153,,
108.728787284455,-0.340883644864957,-0.0129400925837371,,
109.115722470521,-0.343386231364845,-0.0131428432616731,,
109.502657656587,-0.345790440689924,-0.0133435310221208,,
109.889592842652,-0.348206244467748,-0.0135037888484724,,
110.276528028718,-0.350084604370336,-0.013682582475766,,
110.663463214784,-0.351980882972621,-0.0138570025555484,,
111.050398400849,-0.354040479396657,-0.0140358916130805,,
111.437333586915,-0.355970077411125,-0.0141852663314195,,
111.824268772981,-0.357920522017397,-0.0143338451209631,,
112.211203959047,-0.35939313463174,-0.014503083541856,,
112.598139145112,-0.361144541132551,-0.0146351285350286,,
112.985074331178,-0.36229783783366,-0.0148150409295824,,
113.372009517244,-0.364139423411378,-0.0149527041242234,,
113.758944703309,-0.36524727922698,-0.015089666820308,,
114.145879889375,-0.366790161251901,-0.0152263757125675,,
114.532815075441,-0.367360983097162,-0.0153669931837306,,
114.919750261506,-0.368821884143075,-0.0154927316594615,,
115.306685447572,-0.369640522776307,-0.0156233309860472,,
115.693620633638,-0.370746738972329,-0.015753083623073,,
116.080555819703,-0.371592138539422,-0.0158588934224704,,
116.467491005769,-0.372276738271977,-0.0159840654080639,,
116.854426191835,-0.373130101705603,-0.0160771058294213,,
117.2413613779,-0.373513538455989,-0.0162013377256476,,
117.628296563966,-0.374098414183365,-0.0162878523430585,,
118.015231750032,-0.374368482951353,-0.0163958874943928,,
118.402166936097,-0.374624966299962,-0.0165258005354358,,
118.789102122163,-0.375018474999198,-0.0165923011984281,,
119.176037308229,-0.374949318187621,-0.016687485754499,,
119.562972494294,-0.375002957171028,-0.0167722643537473,,
119.94990768036,-0.374979768265538,-0.0168709757677692,,
120.336842866426,-0.374980705191012,-0.016932244011107,,
120.723778052491,-0.374597092767099,-0.0170029842131907,,
121.110713238557,-0.37454368801506,-0.0170987718071496,,
121.497648424623,-0.374164877334203,-0.0171647689233532,,
121.884583610688,-0.373396188540324,-0.0172017532167219,,
122.271518796754,-0.372860735631721,-0.0173055853767154,,
122.65845398282,-0.372160383839628,-0.0173116279381791,,
123.045389168886,-0.371588859300262,-0.0173897751510901,,
123.432324354951,-0.370765067576921,-0.0174380161517016,,
123.819259541017,-0.369599532286803,-0.0174745801459362,,
124.206194727083,-0.368554391920142,-0.0174906956736041,,
124.593129913148,-0.367709050910891,-0.0175307499780391,,
124.980065099214,-0.366212605254793,-0.0175674601632765,,
125.36700028528,-0.365293657037962,-0.0176037155320596,,
125.753935471345,-0.363599520106772,-0.0176219081902307,,
126.140870657411,-0.36234772911517,-0.0176311994406535,,
126.527805843477,-0.360694114210747,-0.0176469230952159,,
126.914741029542,-0.358886726412843,-0.017616742774786,,
127.301676215608,-0.357441987331362,-0.0176564904842,,
127.688611401674,-0.355697666329452,-0.0176673411053234,,
128.075546587739,-0.353840445807879,-0.0176624355849953,,
128.462481773805,-0.351979009121672,-0.0176412703764268,,
128.849416959871,-0.349711883705062,-0.0176252380964139,,
129.236352145936,-0.347689295837264,-0.0176071916292462,,
129.623287332002,-0.345524588086571,-0.0175978191615993,,
130.010222518068,-0.343371416230782,-0.0175524674637302,,
130.397157704133,-0.340806641302533,-0.0175584125645254,,
130.784092890199,-0.338611659147449,-0.0175029087136593,,
131.171028076265,-0.335994826297531,-0.0174893941675895,,
131.55796326233,-0.333498915391648,-0.0174426962942333,,
131.944898448396,-0.330682751647056,-0.0174199229846304,,
132.331833634462,-0.327802818412366,-0.0173195851956982,,
132.718768820527,-0.324975411562082,-0.0173105558708229,,
133.105704006593,-0.322344759061416,-0.0172428674059297,,
133.492639192659,-0.319167176315086,-0.0171876072067354,,
133.879574378724,-0.316003647450872,-0.0170961078822032,,
134.26650956479,-0.313032129751061,-0.0170236946053048,,
