Time domain (s),Current (AC) (A),Potential (AC) (V),Frequency (Hz),Column 5
0,0.238281508813398,0.00883758650241973,1.2589,0.5
0.00193931706251489,0.232106913163615,0.00864899564103805,,
0.00387863412502979,0.226044432469033,0.00843121835290317,,
0.00581795118754468,0.219843626739074,0.00826626273249831,,
0.00775726825005958,0.213435957505579,0.00811595370225637,,
0.00969658531257447,0.207313817676121,0.00791361298072202,,
0.0116359023750894,0.200926403307306,0.00775978108258357,,
0.0135752194376043,0.194621720075916,0.00757705633001704,,
0.0155145365001192,0.188071981509876,0.00736961812539016,,
0.017453853562634,0.181640313114533,0.00719908996849483,,
0.0193931706251489,0.175280035985192,0.0070050119734808,,
0.0213324876876638,0.168774801065491,0.00680343987766907,,
0.0232718047501787,0.162191078545156,0.00658611095453931,,
0.0252111218126936,0.155384338553502,0.0063984648622748,,
0.0271504388752085,0.148711359120676,0.00618842720815493,,
0.0290897559377234,0.142017554263603,0.00601034623599706,,
0.0310290730002383,0.135353953403684,0.00581124548539114,,
0.0329683900627532,0.128522394070802,0.00559812799070114,,
0.0349077071252681,0.121792073401347,0.00539175198412201,,
0.036847024187783,0.114904242631027,0.00516914943450475,,
0.0387863412502979,0.108069580880492,0.0049833768674401,,
0.0407256583128128,0.101165203882686,0.00476183651587059,,
0.0426649753753277,0.0943321824909105,0.00456334426062899,,
0.0446042924378426,0.0872840601418283,0.004373659175128,,
0.0465436095003575,0.0804593475237679,0.00414279923666916,,
0.0484829265628724,0.0733758148214687,0.00393862769136444,,
0.0504222436253872,0.0663767605952734,0.00372569701542602,,
0.0523615606879021,0.0593953937157,0.00351970532170842,,
0.054300877750417,0.0524363143192693,0.0032953680265364,,
0.0562401948129319,0.0454383655522378,0.00308341948346635,,
0.0581795118754468,0.0383371811632897,0.00288972580131341,,
0.0601188289379617,0.0313609493198324,0.00265836945874209,,
0.0620581460004766,0.0242514918171417,0.00244653300692343,,
0.0639974630629915,0.0172253360114449,0.00220991905090084,,
0.0659367801255064,0.0101404125701975,0.00198558175572883,,
0.0678760971880213,0.00303038450793837,0.00179637172362623,,
0.0698154142505362,-0.00404540998021371,0.00159002240543993,,
0.0717547313130511,-0.011069640147367,0.00136210352790656,,
0.073694048375566,-0.0182386498050148,0.00115064605127069,,
0.0756333654380809,-0.0252608116937325,0.000917474897964787,,
0.0775726825005958,-0.0323688427975021,0.000686182607537056,,
0.0795119995631107,-0.0393726754600832,0.000457724624462141,,
0.0814513166256256,-0.0464505382266709,0.000253830638445862,,
0.0833906336881405,-0.0534159294383276,2.87941073735531E-05,,
0.0853299507506553,-0.0604917239264797,-0.00018750731261985,,
0.0872692678131702,-0.0674506250230453,-0.00042078788833777,,
0.0892085848756851,-0.0744926851767126,-0.000639379172463261,,
0.0911479019382,-0.0814192783377146,-0.000857132441044239,,
0.0930872190007149,-0.0883664829631269,-0.00108076249379785,,
0.0950265360632298,-0.0953044159955519,-0.00128739204011197,,
0.0969658531257447,-0.102238996990512,-0.00151511876121457,,
0.0989051701882596,-0.109174719104609,-0.00173225552791356,,
0.100844487250774,-0.115980068357316,-0.001926269470784,,
0.102783804313289,-0.122775718097358,-0.00216631555416624,,
0.104723121375804,-0.129600252415553,-0.00237691900222137,,
0.106662438438319,-0.136507874470904,-0.00262055467448263,,
0.108601755500834,-0.143068311028852,-0.00283580990946453,,
0.110541072563349,-0.149823950279157,-0.00303054977662898,,
0.112480389625864,-0.156360851254907,-0.00323705388749529,,
0.114419706688379,-0.16311199734861,-0.0034914903524661,,
0.116359023750894,-0.16963948409148,-0.00367134877160824,,
0.118298340813409,-0.176270456076078,-0.00389948382512584,,
0.120237657875923,-0.182643107216059,-0.00410991379862535,,
0.122176974938438,-0.189090145059778,-0.0043317664043947,,
0.124116292000953,-0.195635533109108,-0.0045277472818408,,
0.126055609063468,-0.202071801640972,-0.00472500920215824,,
0.127994926125983,-0.208216442913411,-0.00494933849081214,,
0.129934243188498,-0.214597581126974,-0.00513489755073149,,
0.131873560251013,-0.220740011481085,-0.00535933626179741,,
0.133812877313528,-0.226958468897692,-0.00558061506711383,,
0.135752194376043,-0.232805492035238,-0.00574375587678411,,
0.137691511438557,-0.238972171171009,-0.00596770352141629,,
0.139630828501072,-0.245129079474169,-0.00619094659246855,,
0.141570145563587,-0.251045496919228,-0.00635577410858623,,
0.143509462626102,-0.256855005765148,-0.00657086120669126,,
0.145448779688617,-0.262756802621265,-0.00673139722918981,,
0.147388096751132,-0.268369611055961,-0.0069444133079859,,
0.149327413813647,-0.2741652125124,-0.00714942019999665,,
0.151266730876162,-0.279956320812237,-0.00734145386409502,,
0.153206047938677,-0.285289911658122,-0.00752641243516861,,
0.155145365001192,-0.290756442883457,-0.0076928626055901,,
0.157084682063706,-0.296282027024126,-0.00787357238447362,,
0.159023999126221,-0.301524898898627,-0.00810418678971514,,
0.160963316188736,-0.307005908073011,-0.00826429312908372,,
0.162902633251251,-0.312192365870182,-0.00842916334663046,,
0.164841950313766,-0.317372761471938,-0.00860470625259957,,
0.166781267376281,-0.322589316286345,-0.00877910422650219,,
0.168720584438796,-0.327597474218374,-0.00894689682309924,,
0.170659901501311,-0.332265222047877,-0.0091451168567307,,
0.172599218563826,-0.336962353695154,-0.00930293866964549,,
0.17453853562634,-0.342057379321481,-0.00948395536505053,,
0.176477852688855,-0.346546613326004,-0.0096370586700556,,
0.17841716975137,-0.35125009244848,-0.00981119509770512,,
0.180356486813885,-0.355481861447739,-0.0099393847877014,,
0.1822958038764,-0.359979511205897,-0.0101114288453279,,
0.184235120938915,-0.36478975628762,-0.010278647641472,,
0.18617443800143,-0.368855207172676,-0.0104182813144527,,
0.188113755063945,-0.372735582797715,-0.0105742696347577,,
0.19005307212646,-0.376955156086198,-0.0107298095900576,,
0.191992389188975,-0.381305316195911,-0.0108827874596154,,
0.193931706251489,-0.38507193650699,-0.0110304062998274,,
0.195871023314004,-0.388809672239916,-0.0111548596147819,,
0.197810340376519,-0.392716864164673,-0.0113085847593477,,
0.199749657439034,-0.396218673516044,-0.0114252210439476,,
0.201688974501549,-0.399809490160094,-0.011594217287076,,
0.203628291564064,-0.403263087227931,-0.0117053023858995,,
0.205567608626579,-0.406737794999801,-0.0118260620272417,,
0.207506925689094,-0.409783156696412,-0.0119535871762486,,
0.209446242751609,-0.412834223988706,-0.0120908962901853,,
0.211385559814123,-0.41568673655118,-0.0121013341207479,,
0.213324876876638,-0.419062095638193,-0.0123106591947706,,
0.215264193939153,-0.422177992761453,-0.0124507439015953,,
0.217203511001668,-0.424796575900862,-0.0125251698235833,,
0.219142828064183,-0.427654223499452,-0.0126304288461818,,
0.221082145126698,-0.430089371737603,-0.0127442708560186,,
0.223021462189213,-0.432232108196923,-0.0128344562741636,,
0.224960779251728,-0.434522619584471,-0.0129231898437214,,
0.226900096314243,-0.436921751249864,-0.0130399996028769,,
0.228839413376758,-0.439059994552583,-0.0131099658943685,,
0.230778730439272,-0.441206154369313,-0.0131950057903141,,
0.232718047501787,-0.442987441342019,-0.0132919807356773,,
0.234657364564302,-0.444961577448861,-0.0133837247559829,,
0.236596681626817,-0.446659848004357,-0.0134953436226697,,
0.238535998689332,-0.448398628289214,-0.0135574341693419,,
0.240475315751847,-0.449888929882009,-0.013599516427667,,
0.242414632814362,-0.451177538667357,-0.0136913912210987,,
0.244353949876877,-0.452668696099505,-0.0137663722616641,,
0.246293266939392,-0.453858027519942,-0.0138321991833781,,
0.248232584001906,-0.455061337649807,-0.0138875589172969,,
0.250171901064421,-0.455678397823087,-0.0139226594919726,,
0.252111218126936,-0.457043104990877,-0.0139876937684096,,
0.254050535189451,-0.457580643424305,-0.0140455115033382,,
0.255989852251966,-0.458237714087323,-0.0140804626230122,,
0.257929169314481,-0.458817687888654,-0.0141447709751557,,
0.259868486376996,-0.459404223125022,-0.014186959987053,,
0.261807803439511,-0.459568758240574,-0.0142133281194887,,
0.263747120502026,-0.459870584252285,-0.0142392265362052,,
0.265686437564541,-0.460071706500164,-0.014272573683451,,
0.267625754627055,-0.460086826328728,-0.0142942259768164,,
0.26956507168957,-0.459852326346094,-0.0143336420646656,,
0.271504388752085,-0.459814954694361,-0.0143524733948746,,
0.2734437058146,-0.459429826985656,-0.0143770667491658,,
0.275383022877115,-0.459073869134888,-0.0143714088098172,,
0.27732233993963,-0.458664492644524,-0.014384285959514,,
0.279261657002145,-0.458045364192808,-0.0143935521696168,,
0.28120097406466,-0.45722625461235,-0.0144048466975994,,
0.283140291127175,-0.456438953727833,-0.0143942113729278,,
0.285079608189689,-0.455822749393905,-0.0144220100032371,,
0.287018925252204,-0.454316757412977,-0.0144115721726745,,
0.288958242314719,-0.453180488032406,-0.0143760445837082,,
0.290897559377234,-0.452201122533159,-0.0143413470037688,,
0.292836876439749,-0.450876853774783,-0.0143660497804721,,
0.294776193502264,-0.449124950619852,-0.0143563138546496,,
0.296715510564779,-0.447503135046529,-0.0142958032608522,,
0.298654827627294,-0.446050775665035,-0.0143174128527885,,
0.300594144689809,-0.444184546636576,-0.0142678151429516,,
0.302533461752323,-0.442132814428425,-0.0142120257259029,,
0.304472778814838,-0.44015382856525,-0.0141787826633908,,
0.306412095877353,-0.438085478809667,-0.0141501727059299,,
0.308351412939868,-0.435922202205883,-0.0141120189790773,,
0.310290730002383,-0.433676765024242,-0.0140526212912744,,
0.312230047064898,-0.430945496370064,-0.0139972161870872,,
0.314169364127413,-0.428751409549584,-0.0139745844296928,,
0.316108681189928,-0.426232674334654,-0.013870179435675,,
0.318047998252443,-0.42333316192773,-0.0138238270344457,,
0.319987315314958,-0.420426303566361,-0.0137730763860242,,
0.321926632377472,-0.41760773929821,-0.0137217919697403,,
0.323865949439987,-0.414396130807343,-0.0136568857975901,,
0.325805266502502,-0.411814634039883,-0.0135825399407818,,
0.327744583565017,-0.408478572243147,-0.0135161418874543,,
0.329683900627532,-0.40537872210775,-0.0134056305890833,,
0.331623217690047,-0.401853234534288,-0.0133035101215198,,
0.333562534752562,-0.398107724927241,-0.0132383904422246,,
0.335501851815077,-0.394820232013769,-0.0131754058343816,,
0.337441168877592,-0.391132420243083,-0.013068441423461,,
0.339380485940107,-0.387334205195901,-0.0129703535721029,,
0.341319803002621,-0.383459249886762,-0.0128646034830702,,
0.343259120065136,-0.379430814053709,-0.0127752080413623,,
0.345198437127651,-0.375435470675627,-0.0126592736615025,,
0.347137754190166,-0.371180237414116,-0.0125713087176678,,
0.349077071252681,-0.367123630202371,-0.0124656013300641,,
0.351016388315196,-0.362466580364777,-0.0123489837273394,,
0.352955705377711,-0.358382301013963,-0.0122256166299861,,
0.354895022440226,-0.353866322029669,-0.0120945445935297,,
0.356834339502741,-0.349249639281543,-0.0119587567180024,,
0.358773656565255,-0.34459672600082,-0.0118713468927454,,
0.36071297362777,-0.340071332783647,-0.0117470670523461,,
0.362652290690285,-0.335365999342573,-0.0116023092078801,,
0.3645916077528,-0.330075129144375,-0.0114355788093303,,
0.366530924815315,-0.325187074001505,-0.0113258147859678,,
0.36847024187783,-0.320128278907775,-0.0111859249044128,,
0.370409558940345,-0.315493908813027,-0.0110564328208307,,
0.37234887600286,-0.309964616035163,-0.010915731612124,,
0.374288193065375,-0.3049190864514,-0.0107589319646673,,
0.376227510127889,-0.299346217186495,-0.0106270913024877,,
0.378166827190404,-0.294109050907678,-0.010463651582814,,
0.380106144252919,-0.288625973454859,-0.0103012180155622,,
0.382045461315434,-0.282983995162225,-0.0101239376951989,,
0.383984778377949,-0.277583648846831,-0.00999357290116087,,
0.385924095440464,-0.271847813505188,-0.00979597203825033,,
0.387863412502979,-0.26603609374094,-0.00968772391561856,,
0.389802729565494,-0.260313381269371,-0.00951523149298739,,
0.391742046628009,-0.254334844151297,-0.00935392684476577,,
0.393681363690524,-0.248641444177557,-0.00914530901316146,,
0.395620680753038,-0.242639157517447,-0.0089798196248938,,
0.397559997815553,-0.2364494420391,-0.00879620347999577,,
0.399499314878068,-0.230578312759787,-0.00866745600258279,,
0.401438631940583,-0.224428322491394,-0.00844669228325401,,
0.403377949003098,-0.218170710424401,-0.00827447741991127,,
0.405317266065613,-0.211823235225378,-0.00810000204966865,,
0.407256583128128,-0.205740499666116,-0.00793562022971672,,
0.409195900190643,-0.199200745892524,-0.00774120062327022,,
0.411135217253158,-0.192949409980784,-0.00755549210834916,,
0.413074534315672,-0.186572550963985,-0.00736893223368629,,
0.415013851378187,-0.180057973131351,-0.00714476841306988,,
0.416953168440702,-0.173497821853187,-0.00696324463819531,,
0.418892485503217,-0.166906503758597,-0.00678272701574256,,
0.420831802565732,-0.160411610231074,-0.00657632698960908,,
0.422771119628247,-0.153695482230885,-0.00639509945589856,,
0.424710436690762,-0.147085264350589,-0.00620962846767625,,
0.426649753753277,-0.140346100007824,-0.00600103465562585,,
0.428589070815792,-0.133610929582037,-0.00576980374850233,,
0.430528387878307,-0.126764785320187,-0.00557653708063999,,
0.432467704940821,-0.120084032013242,-0.0053425786197363,,
0.434407022003336,-0.11313754058729,-0.00515883170171172,,
0.436346339065851,-0.106311080630551,-0.00497186349463385,,
0.438285656128366,-0.099465221648485,-0.00475814284225828,,
0.440224973190881,-0.0925449046427359,-0.00455012549950018,,
0.442164290253396,-0.0855188201569852,-0.00434005048162955,,
0.444103607315911,-0.0785886609986804,-0.00411469635867823,,
0.446042924378426,-0.0716159238325799,-0.00388310782708645,,
0.447982241440941,-0.06463141887538,-0.00368919796894929,,
0.449921558503455,-0.0576326499289689,-0.00346117233784371,,
0.45186087556597,-0.0505876656575132,-0.00323581554605301,,
0.453800192628485,-0.0435871850323967,-0.00303541773953997,,
0.455739509691,-0.0364874270423697,-0.00281798206283801,,
0.457678826753515,-0.0294681892714404,-0.0026240962242543,,
0.45961814381603,-0.0223826239506785,-0.00240717296470061,,
0.461557460878545,-0.0153607473417451,-0.00215186112043453,,
0.46349677794106,-0.00822868141615453,-0.00193773480448289,,
0.465436095003575,-0.00115695216492766,-0.00171549521701309,,
0.46737541206609,0.00597165474327922,-0.00149803818959615,,
0.469314729128604,0.01299149873375,-0.00129334888946397,,
0.471254046191119,0.0201625766698335,-0.00104194689479487,,
0.473193363253634,0.0271151659511731,-0.000834989081244686,,
0.475132680316149,0.0342126417029263,-0.000628701146362598,,
0.477071997378664,0.0412384765688659,-0.000381844185047608,,
0.479011314441179,0.0483085654613334,-0.000174995793909449,,
0.480950631503694,0.0552930704185333,2.61252680582302E-05,,
0.482889948566209,0.0623223643018565,0.000260657529414843,,
0.484829265628724,0.0693031606218614,0.000501578992092355,,
0.486768582691238,0.0763561327272754,0.000723525007237935,,
0.488707899753753,0.0832596182257552,0.000923239590886027,,
0.490647216816268,0.0901585749076603,0.00114989877626215,,
0.492586533878783,0.0970032571106165,0.00139088429108369,,
0.494525850941298,0.104054802817109,0.00154780670514931,,
0.496465168003813,0.110881298433821,0.00168353853505065,,
0.498404485066328,0.117658084048132,0.00187426446788441,,
0.500343802128843,0.124420926612988,0.00220006035846998,,
0.502283119191358,0.131207732679719,0.00245107537143818,,
0.504222436253873,0.138130902483311,0.00267252498247084,,
0.506161753316387,0.144812119369905,0.00289305651277916,,
0.508101070378902,0.151519653316595,0.00310297140029059,,
0.510040387441417,0.15809135842602,0.00332459181703948,,
0.511979704503932,0.164808270945616,0.00353149091612481,,
0.513919021566447,0.171297244917616,0.00375524640432623,,
0.515858338628962,0.177827299178544,0.00396360268967744,,
0.517797655691477,0.184371617428683,0.00415119006747666,,
0.519736972753992,0.190645490443377,0.00439151371014779,,
0.521676289816506,0.197157286798115,0.00460452978894388,,
0.523615606879021,0.203626861744787,0.00483127437717812,,
0.525554923941536,0.209837973206951,0.00501954497784229,,
0.527494241004051,0.215972344407158,0.00521650531931694,,
0.529433558066566,0.222328128379897,0.00544316450469307,,
0.531372875129081,0.228451017068789,0.00565071480057133,,
0.533312192191596,0.234534073567808,0.0058393697140966,,
0.535251509254111,0.240445926536319,0.00604783809069964,,
0.537190826316626,0.246633038836635,0.0062456898245058,,
0.539130143379141,0.2525977042252,0.00643439277713842,,
0.541069460441655,0.258289321200289,0.00663897532369795,,
0.54300877750417,0.264291001640858,0.00683721670804438,,
0.544948094566685,0.270010896974558,0.00703708074669418,,
0.5468874116292,0.275697343253557,0.0072168110615487,,
0.548826728691715,0.281261190545286,0.00742967768534353,,
0.55076604575423,0.286848145499537,0.00762416134393362,,
0.552705362816745,0.292497469746614,0.00779958415213322,,
0.55464467987926,0.297549560765414,0.00796558061987085,,
0.556583996941775,0.302914211447807,0.00816348573046355,,
0.55852331400429,0.308362199487167,0.00831479290660919,,
0.560462631066804,0.313269867615203,0.00853122509972915,,
0.562401948129319,0.3183355807437,0.00868050395799536,,
0.564341265191834,0.323594143006334,0.00888034664593063,,
0.566280582254349,0.328363165159236,0.00902912376240561,,
0.568219899316864,0.333536143486602,0.00920351639862993,,
0.570159216379379,0.338143697281633,0.00938363102634598,,
0.572098533441894,0.342921848387631,0.00953793264020364,,
0.574037850504409,0.347709984286076,0.00971019020497543,,
0.575977167566924,0.352113277755601,0.00987251968749359,,
0.577916484629438,0.35634397695567,0.0100367493836049,,
0.579855801691953,0.360715319089361,0.0101761054972966,,
0.581795118754468,0.365240997586319,0.01034788800867,,
0.583734435816983,0.369666828158798,0.0105123365496049,,
0.585673752879498,0.37358115207816,0.0106493227339843,,
0.587613069942013,0.377486632324211,0.0107801812632959,,
0.589552387004528,0.381600937372315,0.0109546166009489,,
0.591491704067043,0.385698981472718,0.0110703588243783,,
0.593431021129558,0.389274963567989,0.0112028880471011,,
0.595370338192073,0.393003285068035,0.011376399966351,,
0.597309655254587,0.396545033589198,0.0114811252210867,,
0.599248972317102,0.39988280706464,0.0116146525897136,,
0.601188289379617,0.403514703997618,0.0117624635863565,,
0.603127606442132,0.406750632590092,0.0118705355655933,,
0.605066923504647,0.410277546562475,0.0120175192220482,,
0.607006240567162,0.413058453899108,0.0121378518490998,,
0.608945557629677,0.416210224955234,0.0122397374588039,,
0.610884874692192,0.419241322662633,0.0123755493538846,,
0.612824191754707,0.422122648483314,0.0124577069033691,,
0.614763508817221,0.424800569817841,0.0125910421155653,,
0.616702825879736,0.427392336657532,0.0126836615151662,,
0.618642142942251,0.429840037206189,0.0128071060088595,,
0.620581460004766,0.432346505390397,0.012900627476149,,
0.622520777067281,0.434732585505662,0.0129835963527856,,
0.624460094129796,0.436718132803873,0.0130885564653807,,
0.626399411192311,0.438707959298848,0.0131661396242784,,
0.628338728254826,0.441177911670675,0.0132515051186202,,
0.630278045317341,0.442879890863366,0.0133241402494275,,
0.632217362379855,0.444916503242954,0.0134313421870473,,
0.63415667944237,0.446255606550109,0.0135042762278581,,
0.636095996504885,0.44842002427303,0.0135794307429791,,
0.6380353135674,0.449646727345201,0.0136228153948901,,
0.639974630629915,0.450960155471777,0.0137156056002068,,
0.64191394769243,0.452172879834521,0.0138017824217003,,
0.643853264754945,0.453783284216475,0.0138310275629183,,
0.64579258181746,0.45454441068079,0.0139149785724229,,
0.647731898879975,0.455271874130565,0.0139347706847857,,
0.64967121594249,0.4563219890163,0.0140223086143298,,
0.651610533005004,0.456967291888219,0.0140619782419136,,
0.653549850067519,0.457746676258724,0.0141070709509865,,
