Time domain (s),Current (AC) (A),Potential (AC) (V),Frequency (Hz),Column 5
0,-0.298820727040114,-0.0133582739787035,0.019953,0.4
0.122357853455621,-0.295493236217885,-0.0132694568529925,,
0.244715706911241,-0.291618580918623,-0.013134278905405,,
0.367073560366862,-0.287678575067523,-0.0130294782300155,,
0.489431413822483,-0.284224365074885,-0.0129197192431025,,
0.611789267278104,-0.280534049862705,-0.0128338401504688,,
0.734147120733724,-0.276767375224364,-0.0127000428956889,,
0.856504974189345,-0.272779351942703,-0.012562460918272,,
0.978862827644966,-0.268776630642663,-0.0124300443562997,,
1.10122068110059,-0.264674478126655,-0.0123594503452189,,
1.22357853455621,-0.260811065933085,-0.0122346174415355,,
1.34593638801183,-0.256509641080247,-0.0120998151236087,,
1.46829424146745,-0.252247567097332,-0.0119556240945906,,
1.59065209492307,-0.247854792010743,-0.0118315383893677,,
1.71300994837869,-0.243631131972277,-0.0116721556786046,,
1.83536780183431,-0.239154560613574,-0.0115379056378009,,
1.95772565528993,-0.234635886166366,-0.0113861756199669,,
2.08008350874555,-0.2300382171901,-0.0112520189789711,,
2.20244136220117,-0.225676126412796,-0.0110730832215351,,
2.32479921565679,-0.22088984262697,-0.0109601750367623,,
2.44715706911241,-0.21634083521753,-0.0107962157354278,,
2.56951492256803,-0.21148030008786,-0.0106372228673397,,
2.69187277602366,-0.206756731750976,-0.0104598119632842,,
2.81423062947928,-0.202037965157147,-0.0103363130525045,,
2.9365884829349,-0.197201087395706,-0.0101630442268719,,
3.05894633639052,-0.192231693237483,-0.0099964839439397,,
3.18130418984614,-0.187442013096813,-0.00983214901294449,,
3.30366204330176,-0.182353160940608,-0.0096543624792278,,
3.42601989675738,-0.177113405225187,-0.00948598496090947,,
3.548377750213,-0.17205260227537,-0.00930266347337882,,
3.67073560366862,-0.166980556219862,-0.00912396527632309,,
3.79309345712424,-0.161874312384539,-0.00895727707626337,,
3.91545131057986,-0.156563994469329,-0.00879820502138173,,
4.03780916403548,-0.151399719812437,-0.00860188877801482,,
4.1601670174911,-0.146144797615899,-0.00837355264409512,,
4.28252487094673,-0.14084103817901,-0.00823199102270289,,
4.40488272440235,-0.135460743642434,-0.0080117603677361,,
4.52724057785797,-0.130002157270905,-0.00781471316935356,,
4.64959843131359,-0.124431959652241,-0.00763619974148266,,
4.77195628476921,-0.11922382517158,-0.00746913185090037,,
4.89431413822483,-0.113727996012445,-0.00725717317019559,,
5.01667199168045,-0.108237671290472,-0.00701595801498378,,
5.13902984513607,-0.10268386986761,-0.00686590107196361,,
5.26138769859169,-0.0971250324703235,-0.00663363605483402,,
5.38374555204731,-0.0915692986386707,-0.00644876940961714,,
5.50610340550293,-0.0860475283554639,-0.00624652227846934,,
5.62846125895855,-0.080328535259902,-0.00602564594657196,,
5.75081911241417,-0.0747062797195688,-0.00581126293173151,,
5.87317696586979,-0.0690463129288923,-0.00559298352057036,,
5.99553481932541,-0.063369481479677,-0.00542808209943813,,
6.11789267278104,-0.0577095732468426,-0.00520780068370641,,
6.24025052623666,-0.0519286259542879,-0.00497362300095183,,
6.36260837969228,-0.0462286055995819,-0.00477189362960706,,
6.4849662331479,-0.0405715081431706,-0.00455455633824409,,
6.60732408660352,-0.0348109975375256,-0.00434719252198601,,
6.72968194005914,-0.0290716848707382,-0.00410542508965106,,
6.85203979351476,-0.0232948366271339,-0.00388651218414315,,
6.97439764697038,-0.0175725642924116,-0.00369154211626377,,
7.096755500426,-0.0117591759553068,-0.00346957747356491,,
7.21911335388162,-0.00599310235465768,-0.00324408191205361,,
7.34147120733724,-0.000199857915251811,-0.00302473246396717,,
7.46382906079286,0.00559833466181558,-0.00279448163399199,,
7.58618691424848,0.0113529016464826,-0.00256436075157529,,
7.7085447677041,0.0170784532203651,-0.0023330886150088,,
7.83090262115973,0.0228150136685715,-0.00211716044248211,,
7.95326047461535,0.028555556050044,-0.00188551470668497,,
8.07561832807097,0.0342525021180372,-0.00166388711546572,,
8.19797618152659,0.0400377826909109,-0.00144965435248956,,
8.32033403498221,0.0457137064935728,-0.00121865835448443,,
8.44269188843783,0.0514769693177988,-0.000984360876324697,,
8.56504974189345,0.0571364676457382,-0.000739231050917333,,
8.68740759534907,0.0628402357023416,-0.000554979626172347,,
8.80976544880469,0.0685646161193812,-0.000322001927901994,,
8.93212330226031,0.0742381683294361,-0.000127291755139591,,
9.05448115571593,0.0797695420987552,0.000156952285335521,,
9.17683900917155,0.0854550401086084,0.000372177928874784,,
9.29919686262717,0.0909465945452667,0.000594664392237654,,
9.4215547160828,0.0965489696981905,0.000828614666764871,,
9.54391256953842,0.10210842195282,0.00105443509717196,,
9.66627042299404,0.10749808574414,0.00125641015061939,,
9.78862827644966,0.113256663940994,0.00146984495437019,,
9.91098612990528,0.118638100355493,0.00172546804511553,,
10.0333439833609,0.124079792789562,0.00194269163236482,,
10.1557018368165,0.129453763079187,0.00215136710679031,,
10.2780596902721,0.134889336218751,0.00239010107580961,,
10.4004175437278,0.140211307144549,0.00262366556852323,,
10.5227753971834,0.145561151603208,0.00282833297294527,,
10.645133250639,0.150963961630091,0.00305793406512844,,
10.7674911040946,0.156296209457185,0.0032777566035449,,
10.8898489575502,0.16134389545036,0.00350732520883845,,
11.0122068110059,0.166565849581768,0.00370151559136778,,
11.1345646644615,0.171591283594927,0.00391157581946233,,
11.2569225179171,0.176710175924154,0.00415438283226388,,
11.3792803713727,0.181890466150874,0.00435519647940863,,
11.5016382248283,0.18669803571232,0.0045758352509262,,
11.623996078284,0.191685524243766,0.00479669736980926,,
11.7463539317396,0.196763455362411,0.00500669262412456,,
11.8687117851952,0.201645978961807,0.00520911843316485,,
11.9910696386508,0.206407199991193,0.0054269105409821,,
12.1134274921065,0.211200539996997,0.00564051184004155,,
12.2357853455621,0.215773380448192,0.00583008908424887,,
12.3581431990177,0.220663926471963,0.00604547716223625,,
12.4805010524733,0.225163042599893,0.0062402035784439,,
12.6028589059289,0.229817688356569,0.00648178827202495,,
12.7252167593846,0.2343168044845,0.00666989142361674,,
12.8475746128402,0.238648679415255,0.00685890014725654,,
12.9699324662958,0.242973761636322,0.00706787206454962,,
13.0922903197514,0.247571723401798,0.00726730907974771,,
13.214648173207,0.251747366009702,0.00748660776706922,,
13.3370060266627,0.255903098951276,0.0076599659316483,,
13.4593638801183,0.260153929828498,0.00786721198293217,,
13.5817217335739,0.264223231395061,0.00804611728390858,,
13.7040795870295,0.268257398256335,0.00822200130415363,,
13.8264374404851,0.272200449115226,0.00840246597583061,,
13.9487952939408,0.276345875876582,0.00857914592487052,,
14.0711531473964,0.279826319782502,0.00877208556215026,,
14.193511000852,0.283856738941879,0.00893905599206368,,
14.3158688543076,0.287555954946065,0.00914088079364683,,
14.4382267077632,0.291143911050169,0.00933267932892967,,
14.5605845612189,0.294672840849389,0.009475361748013,,
14.6829424146745,0.298389155743482,0.00965774314617596,,
14.8053002681301,0.301591332783514,0.00981278682674791,,
14.9276581215857,0.304995885726011,0.00999517228577229,,
15.0500159750413,0.308599301100442,0.0101645548672376,,
15.172373828497,0.311392978633649,0.0103328694422076,,
15.2947316819526,0.314606398779374,0.010463791607259,,
15.4170895354082,0.317680217029417,0.0106075460936985,,
15.5394473888638,0.32067416238277,0.0107965182695868,,
15.6618052423195,0.32352054197391,0.0109411742672125,,
15.7841630957751,0.326643314579989,0.0110871175578384,,
15.9065209492307,0.329408415886227,0.0112430871147637,,
16.0288788026863,0.332256669328316,0.0113930141102254,,
16.1512366561419,0.334572749100961,0.0115460923339774,,
16.2735945095976,0.337168735359076,0.0116717800489434,,
16.3959523630532,0.339601930816018,0.0118105031283573,,
16.5183102165088,0.341947289509737,0.0118935599224574,,
16.6406680699644,0.344302251689569,0.0120491721235978,,
16.76302592342,0.346481306111588,0.0121742304050776,,
16.8853837768757,0.34877138620232,0.0123060743856209,,
17.0077416303313,0.350981359164993,0.0124319610827852,,
17.1300994837869,0.352534313138764,0.0125382744289713,,
17.2524573372425,0.35448733429009,0.0126723153354229,,
17.3748151906981,0.356313870502377,0.0127718348608235,,
17.4971730441538,0.358083020029359,0.0128712447429713,,
17.6195308976094,0.359677901418107,0.0129941954374893,,
17.741888751065,0.361272314344118,0.0131314525460104,,
17.8642466045206,0.362667162144088,0.0132042394221386,,
17.9866044579762,0.364071379198802,0.0133158521921892,,
18.1089623114319,0.365299922727072,0.013402295744529,,
18.2313201648875,0.366682122033138,0.0134959554472194,,
18.3536780183431,0.367664722624384,0.0135614611992185,,
18.4760358717987,0.36885719452189,0.0136666253216848,,
18.5983937252543,0.369804660407848,0.0137521145716435,,
18.72075157871,0.37070153231819,0.013839146948857,,
18.8431094321656,0.371775014680451,0.0138899198964264,,
18.9654672856212,0.372066164271612,0.0139540368338951,,
19.0878251390768,0.37302698134558,0.0140489675861408,,
19.2101829925325,0.373361697971299,0.0141100591820162,,
19.3325408459881,0.373540884968272,0.0141766735491222,,
19.4548986994437,0.373866700801985,0.0142455579376386,,
19.5772565528993,0.374250840246477,0.0142932324481131,,
19.6996144063549,0.374540115986689,0.0143545189653262,,
19.8219722598106,0.374524188253625,0.0143554651459854,,
19.9443301132662,0.374815337844786,0.0144146359545139,,
20.0666879667218,0.374667537851204,0.0144650718506036,,
20.1890458201774,0.374304010767148,0.0144984846165479,,
20.311403673633,0.374090860221728,0.014536916606934,,
20.4337615270887,0.374055725516439,0.0145845261436293,,
20.5561193805443,0.373212024126768,0.014613370440725,,
20.6784772339999,0.372611923360433,0.014634003676476,,
20.8008350874555,0.372318665686955,0.0146590673117957,,
20.9231929409111,0.371412190290501,0.0146725656144207,,
21.0455507943668,0.370535228046489,0.0146973531111785,,
21.1679086478224,0.369673725072805,0.0147024210659543,,
21.290266501278,0.368682692152289,0.0146766427190643,,
21.4126243547336,0.367818144170813,0.0147080412978537,,
21.5349822081892,0.366625906504675,0.0147222218251599,,
21.6573400616449,0.365451001959814,0.0146877694787491,,
21.7796979151005,0.364006731341071,0.0147056535114687,,
21.9020557685561,0.362664117136297,0.0147135803125291,,
22.0244136220117,0.361171829086992,0.0146879156697524,,
22.1467714754674,0.360042365427637,0.0146479405521105,,
22.269129328923,0.358194982623546,0.0146207327820784,,
22.3914871823786,0.356158106642263,0.014602832505914,,
22.5138450358342,0.354440956479109,0.0146024101763489,,
22.6362028892898,0.352620744513774,0.0145423906478301,,
22.7585607427455,0.350659993727284,0.0145247177798926,,
22.8809185962011,0.348746791908618,0.014481493973292,,
23.0032764496567,0.346476387252848,0.0144545460983765,,
23.1256343031123,0.34423221651036,0.0144067416403435,,
23.2479921565679,0.341909812490763,0.0143698081077397,,
23.3703500100236,0.339386672188281,0.0143202290533631,,
23.4927078634792,0.337079961670379,0.0142711576066361,,
23.6150657169348,0.334480227710367,0.0142244455202656,,
23.7374235703904,0.331892908012891,0.0141443612765633,,
23.859781423846,0.329168094502051,0.0140827864382049,,
23.9821392773017,0.326339516494924,0.0140110635077106,,
24.1044971307573,0.323564343239837,0.0139458663811629,,
24.2268549842129,0.320737170620922,0.0138864437992403,,
24.3492128376685,0.317409211335955,0.0137931942435308,,
24.4715706911241,0.314461175330846,0.0137280864559299,,
24.5939285445798,0.311428581801675,0.0136305648742394,,
24.7162863980354,0.308128496049571,0.0135146678956239,,
24.838644251491,0.30486120268907,0.0134484271277482,,
24.9610021049466,0.301486631361753,0.0133794574611468,,
25.0833599584022,0.29788345021869,0.0132488439215468,,
25.2057178118579,0.294712894413418,0.0131562400427683,,
25.3280756653135,0.290942003610442,0.013052249509188,,
25.4504335187691,0.28728541771534,0.0129596009609361,,
25.5727913722247,0.283594399809055,0.0128571616763336,,
25.6951492256804,0.279873400287589,0.0127488503864379,,
25.817507079136,0.276025681595715,0.0126515724564196,,
25.9398649325916,0.271944668460723,0.0125081590823206,,
26.0622227860472,0.268140985266144,0.01237612018044,,
26.1845806395028,0.264178961666397,0.0122589521522691,,
26.3069384929585,0.259892761852517,0.012146238888834,,
26.4292963464141,0.255796992141303,0.012018504499824,,
26.5516541998697,0.251639853811518,0.0118933974880098,,
26.6740120533253,0.247328825472568,0.0117804527554859,,
26.7963699067809,0.24303067985889,0.0116118782853989,,
26.9187277602366,0.23862455358429,0.0114737927611932,,
27.0410856136922,0.234077859209614,0.0113214454924568,,
27.1634434671478,0.229449242413773,0.0111594171306226,,
27.2858013206034,0.225082671961545,0.0110325436441867,,
27.408159174059,0.220456163248021,0.0108922287071827,,
27.5305170275147,0.215798238252184,0.0107247587913419,,
27.6528748809703,0.211008411716909,0.0105850001923224,,
27.7752327344259,0.206440695076902,0.0104167343476864,,
27.8975905878815,0.201352018594223,0.0102891908191527,,
28.0199484413371,0.196454240676947,0.0101118651931826,,
28.1423062947928,0.191635164499519,0.00995209060931357,,
28.2646641482484,0.186597550455194,0.00976363416279735,,
28.387022001704,0.18164967630396,0.00962044819692531,,
28.5093798551596,0.176437091427296,0.00946410504076978,,
28.6317377086152,0.171326572869496,0.0092353323642711,,
28.7540955620709,0.166363034495488,0.00910894212031765,,
28.8764534155265,0.161140348391053,0.00888552978060142,,
28.9988112689821,0.155907385385321,0.00869440534827737,,
29.1211691224377,0.150723640245915,0.00852571717407713,,
29.2435269758933,0.145432792813219,0.00831328946390375,,
29.365884829349,0.140140569271234,0.00817585367748963,,
29.4882426828046,0.134629807862351,0.00799712705440569,,
29.6106005362602,0.129212036306799,0.00779787277796151,,
29.7329583897158,0.12386875032646,0.00757841571705331,,
29.8553162431715,0.118451447233646,0.00741170924311785,,
29.9776740966271,0.112917057735456,0.00717572853799098,,
30.1000319500827,0.107396429330171,0.00697793211071707,,
30.2223898035383,0.101883794070339,0.00680721350591762,,
30.3447476569939,0.0963688457757427,0.00659926492564633,,
30.4671055104496,0.0907514798152289,0.00638829100378224,,
30.5894633639052,0.0852001963795794,0.00621203744516841,,
30.7118212173608,0.0795339053419509,0.00599479761447475,,
30.8341790708164,0.0739221902132044,0.00578915966422588,,
30.956536924272,0.0683072251242188,0.00557942430502711,,
31.0788947777277,0.0625891396752101,0.00535631652990087,,
31.2012526311833,0.0568757388535733,0.00514380354164246,,
31.3236104846389,0.0512209544319269,0.00495408010643228,,
31.4459683380945,0.0455117990538458,0.00474177828295597,,
31.5683261915501,0.0398024094443962,0.00453074750903504,,
31.6906840450058,0.0339847756637356,0.00429219221790822,,
31.8130418984614,0.0282679492083331,0.0040706153874539,,
31.935399751917,0.022537449496789,0.00385909324932809,,
32.0577576053726,0.0168324810044216,0.00364880561300662,,
32.1801154588282,0.011025914655927,0.00343148862594989,,
32.3024733122839,0.00522939097736084,0.0031975789600347,,
32.4248311657395,-0.000519349502012398,0.00296435557966213,,
32.5471890191951,-0.00630580123172907,0.00275603340016106,,
32.6695468726507,-0.0120606317266857,0.00252425568637493,,
32.7919047261064,-0.0178447411427165,0.00230525750278199,,
32.914262579562,-0.0235464011170026,0.00209066535358993,,
33.0366204330176,-0.0293401140191456,0.0018745138336973,,
33.1589782864732,-0.0350538954667564,0.00163474840593336,,
33.2813361399288,-0.0408418111425267,0.0014225481039869,,
33.4036939933845,-0.046530119928803,0.00120515396056753,,
33.5260518468401,-0.0522172575582364,0.000957815026667586,,
33.6484097002957,-0.0579610791788691,0.000718423198133866,,
33.7707675537513,-0.0635767762408817,0.0005280825120213,,
33.8931254072069,-0.0692889766267544,0.000301307779232651,,
34.0154832606626,-0.0750637167880415,6.32113654210897E-05,,
34.1378411141182,-0.0806191578304835,-0.000191648283418999,,
34.2601989675738,-0.086264895065518,-0.000412477915412435,,
34.3825568210294,-0.091910807974079,-0.000624895473432918,,
34.504914674485,-0.0973161652670952,-0.000833394300396417,,
34.6272725279407,-0.102928348858579,-0.00109782133822067,,
34.7496303813963,-0.108524838948367,-0.00131884589155229,,
34.8719882348519,-0.113952916684136,-0.00150731858151332,,
34.9943460883075,-0.119483821990718,-0.00175265957170323,,
35.1167039417631,-0.12481135591152,-0.00196557864608193,,
35.2390617952188,-0.130259870334199,-0.00221368102188713,,
35.3614196486744,-0.135713245057777,-0.00241716265483927,,
35.48377750213,-0.141189574455476,-0.00263928973198579,,
35.6061353555856,-0.146427456319949,-0.00288898599581167,,
35.7284932090412,-0.151723427563832,-0.0030825591274386,,
35.8508510624969,-0.156964588667465,-0.00331776623850688,,
35.9732089159525,-0.162114165305978,-0.00349309595119784,,
36.0955667694081,-0.167135148923133,-0.00374613430379034,,
36.2179246228637,-0.172284725561646,-0.00392716952646621,,
36.3402824763194,-0.177416559173988,-0.00419401683756515,,
36.462640329775,-0.182555126938177,-0.00442165450335885,,
36.5849981832306,-0.18750953028881,-0.0046190590575268,,
36.7073560366862,-0.192606873332126,-0.00480842513695201,,
36.8297138901418,-0.197379103235836,-0.00503081413964601,,
36.9520717435975,-0.202149927751334,-0.00525338182023294,,
37.0744295970531,-0.20723087459885,-0.00547119017149456,,
37.1967874505087,-0.211891376139741,-0.00570053136856119,,
37.3191453039643,-0.216571084652856,-0.00588482746277919,,
37.4415031574199,-0.2212461085386,-0.00608546852332292,,
37.5638610108756,-0.226000302626928,-0.00630472051074094,,
37.6862188643312,-0.230464049818201,-0.00651705685153692,,
37.8085767177868,-0.234956373236443,-0.00668879879335904,,
37.9309345712424,-0.2394709486347,-0.0069287632033217,,
38.053292424698,-0.243861615638973,-0.00711060856780632,,
38.1756502781537,-0.248135869653054,-0.00733390720340932,,
38.2980081316093,-0.252618121122446,-0.00751281047395524,,
38.4203659850649,-0.256780881005077,-0.00768317375340022,,
38.5427238385205,-0.260804273223396,-0.00790109580877552,,
38.6650816919761,-0.264833052763192,-0.00809454102327489,,
38.7874395454318,-0.26906303704861,-0.00825284760582035,,
38.9097973988874,-0.272940268892927,-0.00845412013028035,,
39.032155252343,-0.276653070316491,-0.00864309636703009,,
39.1545131057986,-0.280470338930448,-0.00883808267835429,,
39.2768709592542,-0.284502397709405,-0.009003373942162,,
39.3992288127099,-0.288416462436433,-0.00918850251292591,,
39.5215866661655,-0.29172726427365,-0.00935381205060892,,
39.6439445196211,-0.295599343027857,-0.00953575284533192,,
39.7663023730767,-0.298915766417921,-0.00972702143822834,,
39.8886602265324,-0.302393223873892,-0.0099018009042271,,
40.011018079988,-0.305972044954621,-0.0100673216066927,,
40.1333759334436,-0.309011431193481,-0.0102285235832729,,
40.2557337868992,-0.312247337550591,-0.010398915288746,,
40.3780916403548,-0.315590521874516,-0.0105096448214859,,
40.5004494938105,-0.318453766124195,-0.0106661686859653,,
40.6228073472661,-0.321621745384412,-0.0108607326677248,,
40.7451652007217,-0.324437206434898,-0.0109979085590219,,
40.8675230541773,-0.327489651072557,-0.0111412082290072,,
40.9898809076329,-0.330290706893874,-0.0112943534569689,,
41.1122387610886,-0.332721735710657,-0.011461269065256,,
41.2345966145442,-0.335400698431095,-0.0115894460881369,,
41.3569544679998,-0.337950951014491,-0.0117209997171042,,
41.4793123214554,-0.340534054547333,-0.0118791966563974,,
41.601670174911,-0.342701865863659,-0.011994427653776,,
41.7240280283667,-0.345059346030704,-0.0121606447939371,,
41.8463858818223,-0.347163504972615,-0.0122837558924722,,
41.9687437352779,-0.349561799955637,-0.0123720065280457,,
42.0911015887335,-0.351192284512411,-0.0125214787070531,,
42.2134594421891,-0.353450684810541,-0.0126331523900216,,
42.3358172956448,-0.355349657073565,-0.012713882310655,,
