Time domain (s),Current (AC) (A),Potential (AC) (V),Frequency (Hz),Column 5
0,-0.21619791510253,-0.00639627488921013,6.3096,0.3
0.000386935186065678,-0.213418529921824,-0.0063058095795232,,
0.000773870372131355,-0.210458283897289,-0.00628599321010181,,
0.00116080555819703,-0.207470068314749,-0.00620072782241632,,
0.00154774074426271,-0.204618383619521,-0.00615992843440694,,
0.00193467593032839,-0.201572211885538,-0.00608341291547321,,
0.00232161111639407,-0.198611024577801,-0.00604571139766241,,
0.00270854630245974,-0.195393808239097,-0.0059728145744482,,
0.00309548148852542,-0.192028317384559,-0.00593926299438863,,
0.0034824166745911,-0.188787075912697,-0.00583633328833422,,
0.00386935186065678,-0.185629922406888,-0.0057706342738193,,
0.00425628704672246,-0.182079581460665,-0.00568243559679971,,
0.00464322223278813,-0.178746721757134,-0.00562376981011958,,
0.00503015741885381,-0.17530108736139,-0.0055609728354078,,
0.00541709260491949,-0.172021477393291,-0.00548988848500631,,
0.00580402779098517,-0.168377187418898,-0.00542175409035561,,
0.00619096297705084,-0.164783457799361,-0.0053033725327456,,
0.00657789816311652,-0.161391611015165,-0.00523390899136533,,
0.0069648333491822,-0.1576845688273,-0.00514981025284644,,
0.00735176853524788,-0.154126876907499,-0.00504969508790731,,
0.00773870372131355,-0.15021459015857,-0.00498782934922648,,
0.00812563890737923,-0.146687108947255,-0.00489174537381931,,
0.00851257409344491,-0.142914311404273,-0.00482696509552349,,
0.00889950927951059,-0.139083602532859,-0.00473239984733587,,
0.00928644446557626,-0.135247470077279,-0.00465150314411966,,
0.00967337965164194,-0.131379737399916,-0.00456668566638196,,
0.0100603148377076,-0.127436029721241,-0.00446525385452556,,
0.0104472500237733,-0.123540955008008,-0.00435093681928134,,
0.010834185209839,-0.11963324020606,-0.00425440701722835,,
0.0112211203959047,-0.115611181906565,-0.00421352429713551,,
0.0116080555819703,-0.111674152856324,-0.0041021947170794,,
0.011994990768036,-0.107634479114046,-0.00399176095691889,,
0.0123819259541017,-0.103593057274393,-0.00392007869881983,,
0.0127688611401674,-0.0995864180902081,-0.00381738023929667,,
0.013155796326233,-0.0953832748318353,-0.00371484844393999,,
0.0135427315122987,-0.0912778905574503,-0.00360403343949844,,
0.0139296666983644,-0.0870902560604071,-0.00349168512472309,,
0.0143166018844301,-0.0829368215197062,-0.00342091951954071,,
0.0147035370704958,-0.0787733466248498,-0.00332485221055023,,
0.0150904722565614,-0.0745613732335812,-0.00321402262299397,,
0.0154774074426271,-0.0703732905064417,-0.00312704059439106,,
0.0158643426286928,-0.066178932557955,-0.00300145914477978,,
0.0162512778147585,-0.0618172503145455,-0.00289714404283936,,
0.0166382130008241,-0.0575788313475993,-0.00277704584431238,,
0.0170251481868898,-0.053252559281792,-0.00265794763078553,,
0.0174120833729555,-0.0489152607556173,-0.00255819912701316,,
0.0177990185590212,-0.044653668292696,-0.00246456719815891,,
0.0181859537450869,-0.0403330887491108,-0.00236936862613746,,
0.0185728889311525,-0.0360033653115625,-0.00225855362169591,,
0.0189598241172182,-0.03166700806859,-0.00214565531517019,,
0.0193467593032839,-0.0273087771969214,-0.00205582332931664,,
0.0197336944893496,-0.0229584351749464,-0.00195402485629392,,
0.0201206296754152,-0.0185728174443982,-0.00179811261164442,,
0.0205075648614809,-0.0141838828111378,-0.00171086183707247,,
0.0208945000475466,-0.00988661123255657,-0.00156971395429073,,
0.0212814352336123,-0.00545769447471243,-0.00148863183718939,,
0.021668370419678,-0.00110237709866934,-0.00136088583671246,,
0.0220553056057436,0.00324527554272821,-0.00124323551813399,,
0.0224422407918093,0.00764743296382738,-0.00116408670536616,,
0.022829175977875,0.0120244894995376,-0.00104893843259024,,
0.0232161111639407,0.0163974223183626,-0.000925590282812472,,
0.0236030463500063,0.0207481453359193,-0.000812991971787191,,
0.023989981536072,0.025089836517037,-0.000700160330928679,,
0.0243769167221377,0.0294787487387926,-0.000552945872478894,,
0.0247638519082034,0.0338205071544247,-0.00046721174182407,,
0.0251507870942691,0.0380985720733824,-0.000348215610099345,,
0.0255377222803347,0.0424187930328907,-0.000249100430160354,,
0.0259246574664004,0.0467452892137461,-0.000113019138046511,,
0.0263115926524661,0.0510660704608747,-8.68528638742205E-06,,
0.0266985278385318,0.0553862465973733,7.39280577457535E-05,,
0.0270854630245974,0.0595481526868929,0.000213042637693839,,
0.0274723982106631,0.0639069662576866,0.000329174229053208,,
0.0278593333967288,0.0681671019727951,0.000427889414992055,,
0.0282462685827945,0.0723994698334422,0.000561104083438568,,
0.0286332037688602,0.0766187493752793,0.000691302130467975,,
0.0290201389549258,0.0808333897356204,0.000786988195176974,,
0.0294070741409915,0.0850555155385686,0.0009061322413495,,
0.0297940093270572,0.0891406846356136,0.000996735048974351,,
0.0301809445131229,0.0933393455930241,0.00111199998666667,,
0.0305678796991885,0.0974517670799199,0.00122511495660893,,
0.0309548148852542,0.101549486619659,0.00135077557169971,,
0.0313417500713199,0.105548416246189,0.00145879061814069,,
0.0317286852573856,0.109616911183655,0.00156813897791519,,
0.0321156204434513,0.113641636452223,0.00165472101251796,,
0.0325025556295169,0.117588235215018,0.00179573556396662,,
0.0328894908155826,0.121663543249946,0.00188585504550742,,
0.0332764260016483,0.125552903029453,0.00201858638787078,,
0.033663361187714,0.129409497188925,0.00212374731045673,,
0.0340502963737796,0.133256207874775,0.00222846240639729,,
0.0344372315598453,0.137119032432585,0.00233812742808848,,
0.034824166745911,0.140849046412882,0.00245042574361376,,
0.0352111019319767,0.144688428536659,0.00254659096780196,,
0.0355980371180424,0.148419809618749,0.00265695181238934,,
0.035984972304108,0.152067730256921,0.00275175455701504,,
0.0363719074901737,0.155826206848328,0.00286646533635304,,
0.0367588426762394,0.159449878238294,0.00298235526467083,,
0.0371457778623051,0.163012231751096,0.00307166642500345,,
0.0375327130483707,0.166663872699067,0.00317065244021331,,
0.0379196482344364,0.170142138245816,0.00327168009146517,,
0.0383065834205021,0.173550121313476,0.0033927616085756,,
0.0386935186065678,0.177120005091894,0.00348824350968036,,
0.0390804537926334,0.180395670635147,0.00358277542503505,,
0.0394673889786991,0.183741416953945,0.00367254074522183,,
0.0398543241647648,0.186985571921432,0.00375897278207482,,
0.0402412593508305,0.190296177000686,0.00388650420243675,,
0.0406281945368962,0.193596943429328,0.00399738587254506,,
0.0410151297229618,0.196556696400757,0.00408056795814726,,
0.0414020649090275,0.199859972917938,0.00417869981950236,,
0.0417890000950932,0.20290973049269,0.00425256537818575,,
0.0421759352811589,0.205939048775054,0.00433578079662134,,
0.0425628704672245,0.208744252009303,0.00442401280647431,,
0.0429498056532902,0.211857837549759,0.00451836139124584,,
0.0433367408393559,0.214755376183832,0.00462295982226912,,
0.0437236760254216,0.217633551277747,0.00470555858328758,,
0.0441106112114873,0.220359507430983,0.00479824052639177,,
0.0444975463975529,0.22305785261029,0.00488626837264095,,
0.0448844815836186,0.225533337785752,0.0049570714772611,,
0.0452714167696843,0.228479823146333,0.0050451368229476,,
0.04565835195575,0.230935406905523,0.00511830239213085,,
0.0460452871418156,0.233175481634444,0.00522586744532161,,
0.0464322223278813,0.235887453008677,0.00529920384527571,,
0.046819157513947,0.238219683845384,0.00538399840669035,,
0.0472060927000127,0.2403842766261,0.00543221435011798,,
0.0475930278860784,0.242802388349245,0.00553242951355726,,
0.047979963072144,0.244969849802577,0.00563284467399638,,
0.0483668982582097,0.247371287366142,0.00569984366901144,,
0.0487538334442754,0.249421850410377,0.00574874293552252,,
0.0491407686303411,0.251611723368521,0.00581942520862189,,
0.0495277038164067,0.253625890128942,0.00590032399514007,,
0.0499146390024724,0.25524686944895,0.00597447288290676,,
0.0503015741885381,0.257389767893009,0.00603755527000427,,
0.0506885093746038,0.258878788272687,0.00612413730460704,,
0.0510754445606695,0.260944591140194,0.00616765331853353,,
0.0514623797467351,0.262639797364138,0.00623245234654801,,
0.0518493149328008,0.264259342347838,0.00626978928649402,,
0.0522362501188665,0.265754637948863,0.00633595496067541,,
0.0526231853049322,0.266969879385763,0.00641181632275512,,
0.0530101204909978,0.268680863309095,0.00645414902109787,,
0.0533970556770635,0.269986288641356,0.00650910236346425,,
0.0537839908631292,0.271456841941069,0.00657611385829204,,
0.0541709260491949,0.27284796886773,0.00661297997196675,,
0.0545578612352606,0.273675939501487,0.00665966260506101,,
0.0549447964213262,0.27494084483305,0.0067408447206625,,
0.0553317316073919,0.275961733700225,0.00677237758100269,,
0.0557186667934576,0.277042506108256,0.00682762675226511,,
0.0561056019795233,0.278145331437021,0.00684342651526881,,
0.0564925371655889,0.278934395698425,0.00690422143667835,,
0.0568794723516546,0.279589170222999,0.00696132474679523,,
0.0572664075377203,0.280344527581167,0.00697629118896526,,
0.057653342723786,0.281169091666192,0.00698894099921832,,
0.0580402779098517,0.281967479113598,0.00704095271904226,,
0.0584272130959173,0.282289129030653,0.00706357321306816,,
0.058814148281983,0.282714947622072,0.00711743490514305,,
0.0592010834680487,0.282987112936503,0.00712367231158195,,
0.0595880186541144,0.28358558976099,0.00717267157659274,,
0.05997495384018,0.283839646579534,0.00717822149334424,,
0.0603618890262457,0.283902398793006,0.0072341873205235,,
0.0607488242123114,0.284228351718985,0.00725849945584134,,
0.0611357593983771,0.284288593843918,0.00727413672128252,,
0.0615226945844428,0.284316742693961,0.00726511602325974,,
0.0619096297705084,0.284280167118109,0.00730374877710149,,
0.0622965649565741,0.283883035252849,0.00732266932662684,,
0.0626835001426398,0.283994017024676,0.00733692327948399,,
0.0630704353287055,0.283614455779187,0.00735820629357198,,
0.0634573705147711,0.283375459491877,0.00735721880838458,,
0.0638443057008368,0.282789891694162,0.00737275607532561,,
0.0642312408869025,0.282538882840273,0.00738367257824457,,
0.0646181760729682,0.282119339470201,0.00738451839889054,,
0.0650051112590339,0.281313959633294,0.00742303448781589,,
0.0653920464450995,0.280961650777657,0.00739493490930965,,
0.0657789816311652,0.279950085096484,0.00738006846563977,,
0.0661659168172309,0.279232558358438,0.00739202245299619,,
0.0665528520032966,0.278559137461861,0.00742085118723201,,
0.0669397871893622,0.277385133193814,0.00741871788589821,,
0.0673267223754279,0.276595351764256,0.00740998468356313,,
0.0677136575614936,0.275481589621142,0.0074124846460637,,
0.0681005927475593,0.27437248907103,0.00740530558708263,,
0.068487527933625,0.272617399306229,0.00738137261274385,,
0.0688744631196906,0.271802875575359,0.00736882280099138,,
0.0692613983057563,0.270751148477564,0.00732290265646007,,
0.069648333491822,0.269257287212847,0.00735238554754991,,
0.0700352686778877,0.267926581703158,0.00731791523127123,,
0.0704222038639533,0.266248587514909,0.0073029487891012,,
0.070809139050019,0.264748809612922,0.00727700334494985,,
0.0711960742360847,0.263119224275066,0.00724907043061007,,
0.0715830094221504,0.261359652209304,0.00721952087385347,,
0.0719699446082161,0.25968936757871,0.00719031714524254,,
0.0723568797942817,0.257828136927123,0.00716275089206997,,
0.0727438149803474,0.256123786809216,0.00715085523717152,,
0.0731307501664131,0.254172192970228,0.00711443911674658,,
0.0735176853524788,0.252078420544716,0.00710921836172451,,
0.0739046205385444,0.250284065823486,0.00705853995523409,,
0.0742915557246101,0.247976397996053,0.00700929069397294,,
0.0746784909106758,0.246037892475875,0.00697087460354728,,
0.0750654260967415,0.243659045709161,0.00692595861062051,,
0.0754523612828071,0.241399069563966,0.00687940930886022,,
0.0758392964688728,0.239036538372754,0.00683363916207913,,
0.0762262316549385,0.236862443113998,0.00679308977032012,,
0.0766131668410042,0.234262529263822,0.00675362786224865,,
0.0770001020270699,0.231921871701307,0.00671924504465737,,
0.0773870372131355,0.229243786522349,0.00668002896623188,,
0.0777739723992012,0.22648484063403,0.00661066334004978,,
0.0781609075852669,0.223996805015874,0.00655113089970305,,
0.0785478427713326,0.221204331516358,0.00650429826885901,,
0.0789347779573983,0.218673265808963,0.00644858243793012,,
0.0793217131434639,0.215860711601136,0.00639316660250078,,
0.0797086483295296,0.2127686411053,0.00633603829275886,,
0.0800955835155953,0.209884549374114,0.00625446868296953,,
0.080482518701661,0.206967826491923,0.00622849823919314,,
0.0808694538877266,0.204199019541488,0.00614041622708994,,
0.0812563890737923,0.201180279489394,0.00610416677083148,,
0.081643324259858,0.197849929874401,0.00602632210516818,,
0.0820302594459237,0.19476915477699,0.00596725632448836,,
0.0824171946319893,0.19157166056252,0.00588839084080384,,
0.082804129818055,0.188379545109205,0.00580719205878566,,
0.0831910650041207,0.185161096137736,0.00573622645660299,,
0.0835780001901864,0.181677788002404,0.00569149379425982,,
0.0839649353762521,0.178212252190388,0.0056210115181603,,
0.0843518705623177,0.174877061690356,0.00554847927281088,,
0.0847388057483834,0.171632234377724,0.00546113058304121,,
0.0851257409344491,0.167867303272931,0.00535631548860094,,
0.0855126761205148,0.164410530359297,0.0052654876843512,,
0.0858996113065805,0.16081195985472,0.00521385512550632,,
0.0862865464926461,0.156992322266682,0.00512841890704951,,
0.0866734816787118,0.153532882383975,0.00504955342336499,,
0.0870604168647775,0.149779582850179,0.00497627118926536,,
0.0874473520508432,0.146084194644816,0.00487807266224349,,
0.0878342872369088,0.142415162369111,0.00479755720330832,,
0.0882212224229745,0.138539944249141,0.00468902549795081,,
0.0886081576090402,0.134735546484375,0.00461990986801863,,
0.0889950927951059,0.130922699582294,0.0045451776556682,,
0.0893820279811716,0.126931501924924,0.00441409628855549,,
0.0897689631672372,0.123072599380456,0.00433300167164141,,
0.0901558983533029,0.119094826214468,0.00426648183610556,,
0.0905428335393686,0.115121356057404,0.00416855413835426,,
0.0909297687254343,0.111050888907515,0.00407243891341613,,
0.0913167039114999,0.107105209016417,0.00395424901959807,,
0.0917036390975656,0.103076696203536,0.00385158389290829,,
0.0920905742836313,0.0990071255138398,0.00376937262607724,,
0.092477509469697,0.0948665551769007,0.00369710704339443,,
0.0928644446557627,0.0906710990646783,0.00357957547303434,,
0.0932513798418283,0.0866422500792247,0.00346204390267468,,
0.093638315027894,0.0824014554927685,0.00337246191307106,,
0.0940252502139597,0.0781484690476948,0.00327644668663307,,
0.0944121854000254,0.0739548282673621,0.00318601470977908,,
0.094799120586091,0.0698336214705802,0.00307053310866978,,
0.0951860557721567,0.0655763320165827,0.0029311185332217,,
0.0955729909582224,0.0613036234472749,0.00284006573234707,,
0.0959599261442881,0.0570452806525513,0.0027685043057688,,
0.0963468613303538,0.0526701739177596,0.00264312285315693,,
0.0967337965164194,0.0484383439332281,0.00254604097605204,,
0.0971207317024851,0.0440840350749015,0.00242932606010893,,
0.0975076668885508,0.0397489552877032,0.00232544428500248,,
0.0978946020746165,0.0354518630011605,0.00222037919431184,,
0.0982815372606821,0.0311563843429642,0.00213448048279252,,
0.0986684724467478,0.0268010221439114,0.00198413690461319,,
0.0990554076328135,0.0224148441257429,0.00190132148017774,,
0.0994423428188792,0.0180784420597607,0.00177475254537818,,
0.0998292780049448,0.0137017665196323,0.00167531653691855,,
0.100216213191011,0.0093453509798534,0.00158975532033656,,
0.100603148377076,0.00492631769563115,0.0014284410733838,,
0.100990083563142,0.000571672664732405,0.00132380930952669,,
0.101377018749208,-0.00378548245470523,0.00121299430508515,,
0.101763953935273,-0.00816110465410756,0.0011246997961698,,
0.102150889121339,-0.0125896180048651,0.000983785243221291,,
0.102537824307405,-0.0169657780803829,0.000874786878196865,,
0.10292475949347,-0.021334049306207,0.000771450928235939,,
0.103311694679536,-0.0256336516812887,0.000673364899526518,,
0.103698629865602,-0.0300135768896148,0.000555766663500101,,
0.104085565051667,-0.0343484997962794,0.000430122714826009,,
0.104472500237733,-0.0386913115526377,0.000328040912719541,,
0.104859435423799,-0.0429810528656022,0.000199259511107108,,
0.105246370609864,-0.047323326745845,7.80446626631459E-05,,
0.10563330579593,-0.051638348236237,-3.45203155287521E-05,,
0.106020240981996,-0.0559246830004702,-0.000124554381684572,,
0.106407176168061,-0.0601954193573546,-0.000261550243413122,,
0.106794111354127,-0.0645485852289358,-0.000346132308015612,,
0.107181046540193,-0.068814704815829,-0.000493761343579813,,
0.107567981726258,-0.0729576059492684,-0.00055827912581341,,
0.107954916912324,-0.0771611526147279,-0.000693210435176894,,
0.10834185209839,-0.0814433188390661,-0.000802292132284776,,
0.108728787284455,-0.0855643463438095,-0.000919057047477523,,
0.109115722470521,-0.0897798607528383,-0.00104640305395431,,
0.109502657656587,-0.0939008882575817,-0.00113335383302582,,
0.109889592842652,-0.0979614495223436,-0.00126606850897248,,
0.110276528028718,-0.102122862558757,-0.00139231661525097,,
0.110663463214784,-0.106264508647927,-0.00150258162794259,,
0.11105039840085,-0.110145598582159,-0.00157541178549003,,
0.111437333586915,-0.114211986838171,-0.00170984518565565,,
0.111824268772981,-0.118244802659977,-0.00180847703951104,,
0.112211203959047,-0.122115179894908,-0.00195665815012802,,
0.112598139145112,-0.126122894831324,-0.002023907141393,,
0.112985074331178,-0.129880497374044,-0.00215647181958945,,
0.113372009517244,-0.133835814212211,-0.00226288897333227,,
0.113758944703309,-0.137733309367964,-0.0023641187048864,,
0.114145879889375,-0.141532328371576,-0.00247023586312878,,
0.114532815075441,-0.145136815513423,-0.00259916517918901,,
0.114919750261506,-0.148866089914061,-0.00269789703154455,,
0.115306685447572,-0.152668515466404,-0.00276981261947729,,
0.115693620633638,-0.156278515838435,-0.00290186063875719,,
0.116080555819703,-0.159945665547735,-0.00301060900753169,,
0.116467491005769,-0.163583814769809,-0.00311602409297196,,
0.116854426191835,-0.167035007218746,-0.00321743923841167,,
0.1172413613779,-0.170543797235048,-0.0033030212880143,,
0.117628296563966,-0.174117759907342,-0.00342263824375966,,
0.118015231750032,-0.177467114478415,-0.00349766836830812,,
0.118402166936097,-0.180919382679582,-0.00361558326625122,,
0.118789102122163,-0.18439298663333,-0.0037061319080216,,
0.119176037308229,-0.187551036599332,-0.00379432850173922,,
0.119562972494294,-0.190907697320974,-0.00390529558723296,,
0.11994990768036,-0.193979059586364,-0.00402892706609403,,
0.120336842866426,-0.197246970748952,-0.00412017569736456,,
0.120723778052491,-0.200240072039541,-0.00418655595166095,,
0.121110713238557,-0.203412599837651,-0.00427920664523374,,
0.121497648424623,-0.206507807944161,-0.00438143844508998,,
0.121884583610688,-0.209454427773771,-0.00448277234174821,,
0.122271518796754,-0.212375453664886,-0.00457416888746698,,
0.12265845398282,-0.215396838274547,-0.00466098425190298,,
0.123045389168886,-0.218134493233294,-0.00470348361441264,,
0.123432324354951,-0.220784608854248,-0.00481193198768715,,
0.123819259541017,-0.223713523595056,-0.00489706196073758,,
0.124206194727083,-0.226329932312773,-0.00498056279155845,,
0.124593129913148,-0.228959205234252,-0.00506969478791142,,
0.124980065099214,-0.231567276872179,-0.00513734377317698,,
0.12536700028528,-0.233988571029006,-0.00524882543428529,,
0.125753935471345,-0.236440748239464,-0.00531072450579906,,
0.126140870657411,-0.238938779388767,-0.00536924029472896,,
0.126527805843477,-0.240967334335277,-0.00547587202858635,,
0.126914741029542,-0.2434426402187,-0.00555425418618727,,
0.127301676215608,-0.245604005742724,-0.0056350529742053,,
0.127688611401674,-0.24809450662641,-0.00569195212071838,,
0.128075546587739,-0.250290161752795,-0.00576713432631859,,
0.128462481773805,-0.25217308674104,-0.00582688343008186,,
