Time domain (s),Current (AC) (A),Potential (AC) (V),Frequency (Hz),Column 5
0,-0.259979417273981,-0.00515812464615584,31.623,0.3
0.000239330847010088,-0.264268038011705,-0.00528486442654375,,
0.000478661694020175,-0.267782520550229,-0.0053974081035193,,
0.000717992541030263,-0.270783914097599,-0.00551729636971077,,
0.00095732338804035,-0.273373787593618,-0.00560677277150834,,
0.00119665423505044,-0.275176927624735,-0.00568068388134746,,
0.00143598508206053,-0.276313280564698,-0.00575367987737785,,
0.00167531592907061,-0.276859404113945,-0.00582784727479835,,
0.0019146467760807,-0.27699208022243,-0.00585744570469604,,
0.00215397762309079,-0.276475495036524,-0.00590698581557447,,
0.00239330847010088,-0.274895259832263,-0.00591130927564043,,
0.00263263931711096,-0.272926095373503,-0.00591659102840136,,
0.00287197016412105,-0.270592430200489,-0.00588169273846795,,
0.00311130101113114,-0.267526491519262,-0.0059112535609489,,
0.00335063185814123,-0.263314069897898,-0.00585375599924642,,
0.00358996270515131,-0.25916148699438,-0.00581284887982703,,
0.0038292935521614,-0.254317195406359,-0.00573302226261019,,
0.00406862439917149,-0.248647801857197,-0.00567961415926943,,
0.00430795524618158,-0.242816149013199,-0.00557498196849737,,
0.00454728609319166,-0.235918649823375,-0.00545793654444315,,
0.00478661694020175,-0.229049927005729,-0.00535624608938567,,
0.00502594778721184,-0.22140383873219,-0.0052218733962528,,
0.00526527863422193,-0.21319423558167,-0.00511483293793757,,
0.00550460948123201,-0.204564013308848,-0.00493737189520971,,
0.0057439403282421,-0.195291029078031,-0.00476688493899946,,
0.00598327117525219,-0.185892943827356,-0.00460878893019512,,
0.00622260202226228,-0.175834481175905,-0.00444788490093551,,
0.00646193286927237,-0.165428864314923,-0.00423607992945563,,
0.00670126371628245,-0.154883803071004,-0.00405918578371445,,
0.00694059456329254,-0.143704765178976,-0.00384011561645359,,
0.00717992541030263,-0.132244776662631,-0.00361233167143116,,
0.00741925625731272,-0.120641175223454,-0.0033722138865615,,
0.0076585871043228,-0.108536990412806,-0.00313666192066631,,
0.00789791795133289,-0.0963220031223709,-0.00287909150866206,,
0.00813724879834298,-0.0839022643239771,-0.00266707621422135,,
0.00837657964535306,-0.0712837354779052,-0.00239669281602284,,
0.00861591049236315,-0.0585085950362103,-0.00214491812480944,,
0.00885524133937324,-0.0455339922016928,-0.00188275821508688,,
0.00909457218638333,-0.0325259065789869,-0.00160168873904443,,
0.00933390303339342,-0.0193246786078152,-0.00131014490098691,,
0.0095732338804035,-0.00622268877994905,-0.00104645840871553,,
0.00981256472741359,0.0069849937046083,-0.000787687345107813,,
0.0100518955744237,0.0201706680914407,-0.000519263711185047,,
0.0102912264214338,0.0332523530959477,-0.000203795984566657,,
0.0105305572684439,0.046345176618346,7.44320422056965E-05,,
0.0107698881154539,0.0591864309992349,0.00033053994355603,,
0.011009218962464,0.0720362689864666,0.000617003994609622,,
0.0112485498094741,0.0847175948690204,0.000873614721051741,,
0.0114878806564842,0.0971660203935729,0.00117653271339391,,
0.0117272115034943,0.109279169806145,0.00147564539230149,,
0.0119665423505044,0.121273627889235,0.00173571878682477,,
0.0122058731975145,0.13293101693996,0.00201067636120111,,
0.0124452040445246,0.144390265876646,0.00225158390182356,,
0.0126845348915346,0.155646399345225,0.00251216151430578,,
0.0129238657385447,0.166168175035645,0.00273898716663323,,
0.0131631965855548,0.176403957513166,0.00302316552246529,,
0.0134025274325649,0.186256413612389,0.00327048025261822,,
0.013641858279575,0.196050779091142,0.00348506538720761,,
0.0138811891265851,0.205208119957131,0.0037193790940826,,
0.0141205199735952,0.213720188776587,0.0039402739174923,,
0.0143598508206053,0.221571028558084,0.00413738135333563,,
0.0145991816676153,0.229176238246847,0.00434430571783384,,
0.0148385125146254,0.236423043150663,0.00451967606676007,,
0.0150778433616355,0.242863033881265,0.00469556456231812,,
0.0153171742086456,0.248966314163578,0.00485841860578295,,
0.0155565050556557,0.254289494786412,0.0050034662338212,,
0.0157958359026658,0.259161755932437,0.0051850849854076,,
0.0160351667496759,0.263296230340068,0.00531127876181792,,
0.016274497596686,0.267421740145773,0.00543766196817996,,
0.016513828443696,0.270300273823766,0.00550559767734793,,
0.0167531592907061,0.272751195989954,0.00561068951432553,,
0.0169924901377162,0.274718029652214,0.0057319720406741,,
0.0172318209847263,0.27586478153041,0.00578906845659688,,
0.0174711518317364,0.276324307025066,0.00581925189075605,,
0.0177104826787465,0.276642729685428,0.00587992518987779,,
0.0179498135257566,0.275833405423674,0.00590281278517546,,
0.0181891443727667,0.274752453723604,0.00593545045149835,,
0.0184284752197767,0.272789923070269,0.00595090570694046,,
0.0186678060667868,0.270284496124378,0.00593731410793152,,
0.0189071369137969,0.267237248638165,0.00590810568087496,,
0.019146467760807,0.263664496187131,0.0058864549517299,,
0.0193857986078171,0.259426749565329,0.00581064954237709,,
0.0196251294548272,0.254366590362963,0.00575526913895485,,
0.0198644603018373,0.249091818590523,0.00569078495492947,,
0.0201037911488474,0.243001447334981,0.00560777006448721,,
0.0203431219958574,0.23630327606895,0.00549074692630969,,
0.0205824528428675,0.229495378075363,0.00538973619048955,,
0.0208217836898776,0.22177721440235,0.00526929217024952,,
0.0210611145368877,0.213805352494871,0.00511036044107138,,
0.0213004453838978,0.205115605265269,0.00496154928561721,,
0.0215397762309079,0.196121778738385,0.00481499178943734,,
0.021779107077918,0.186652469725419,0.00465797943138391,,
0.0220184379249281,0.176770609731882,0.00446627632062313,,
0.0222577687719381,0.166373666123262,0.00425775851594601,,
0.0224970996189482,0.155667398925234,0.00407322031452129,,
0.0227364304659583,0.144707455904244,0.00386066876617441,,
0.0229757613129684,0.133365979425342,0.00364723692570079,,
0.0232150921599785,0.121698550020462,0.003415962455251,,
0.0234544230069886,0.109721662557144,0.0031832756173702,,
0.0236937538539987,0.0973790193353017,0.00294768604405826,,
0.0239330847010088,0.0851419791241315,0.00269784743837675,,
0.0241724155480188,0.0724206711169939,0.00244231757695124,,
0.0244117463950289,0.0596039797453784,0.00218286540123902,,
0.024651077242039,0.0466693366239399,0.001920170630477,,
0.0248904080890491,0.0336279699165889,0.00164806007683982,,
0.0251297389360592,0.0205156259734997,0.00138001948142197,,
0.0253690697830693,0.0073554110561332,0.00111298732192111,,
0.0256084006300794,-0.00584622032212504,0.000826769808377925,,
0.0258477314770895,-0.0190277709920722,0.000529086211308982,,
0.0260870623240995,-0.0320679947126778,0.000236695509939544,,
0.0263263931711096,-0.0451596304253211,-3.52938642436129E-05,,
0.0265657240181197,-0.0579769941420809,-0.000335927554230953,,
0.0268050548651298,-0.0708571548953226,-0.00058627734220762,,
0.0270443857121399,-0.0836369121070087,-0.00085170213285668,,
0.02728371655915,-0.0960208373207136,-0.00114659024527564,,
0.0275230474061601,-0.108225918726023,-0.00143425355506555,,
0.0277623782531702,-0.120366320528445,-0.00168587363800965,,
0.0280017091001802,-0.131976735065085,-0.00197137800350111,,
0.0282410399471903,-0.143545195264718,-0.00222273065592615,,
0.0284803707942004,-0.154694112094279,-0.00247652082610728,,
0.0287197016412105,-0.165302104843709,-0.00272578835620019,,
0.0289590324882206,-0.175744297280543,-0.00297947963280354,,
0.0291983633352307,-0.185830281259903,-0.00323310405177724,,
0.0294376941822408,-0.195343023769194,-0.00347807040768089,,
0.0296770250292509,-0.204296509587418,-0.00367918930131728,,
0.0299163558762609,-0.213089170447114,-0.00389138427563829,,
0.030155686723271,-0.221071072708749,-0.00413388943504156,,
0.0303950175702811,-0.228928008419554,-0.00432876549748729,,
0.0306343484172912,-0.235834517034312,-0.00447993199152741,,
0.0308736792643013,-0.242760747773305,-0.00466871565244986,,
0.0311130101113114,-0.248717187876093,-0.00485361042790045,,
0.0313523409583215,-0.254081381552732,-0.00500929956202922,,
0.0315916718053316,-0.259283988279679,-0.00514548855410757,,
0.0318310026523417,-0.263519359281971,-0.00529952853336546,,
0.0320703334993517,-0.267408203596867,-0.00540447272641043,,
0.0323096643463618,-0.27054473851825,-0.00551848727124327,,
0.0325489951933719,-0.273017355021096,-0.00560672819975494,,
0.032788326040382,-0.275010006736898,-0.00571215153914739,,
0.0330276568873921,-0.275879349008537,-0.00577122025515209,,
0.0332669877344022,-0.277079933321291,-0.00582849356522042,,
0.0335063185814123,-0.276762944997237,-0.00587708931207676,,
0.0337456494284223,-0.276239232952801,-0.00591458669237221,,
0.0339849802754324,-0.275109872402338,-0.00593758432418579,,
0.0342243111224425,-0.273141245819694,-0.00593270371720411,,
0.0344636419694526,-0.270965761047639,-0.00591791703806077,,
0.0347029728164627,-0.267789916346817,-0.00590919211736063,,
0.0349423036634728,-0.264270413631215,-0.00585040197481401,,
0.0351816345104829,-0.259941048777744,-0.00582044975662477,,
0.035420965357493,-0.255060898782024,-0.0057668410803946,,
0.035660296204503,-0.249476131075031,-0.00567938990763572,,
0.0358996270515131,-0.243720677347392,-0.00561291253051932,,
0.0361389578985232,-0.236969794222045,-0.00551710554689233,,
0.0363782887455333,-0.229888431046747,-0.00540164242007846,,
0.0366176195925434,-0.22240984636017,-0.00528074153936764,,
0.0368569504395535,-0.214158288872643,-0.00514125423754797,,
0.0370962812865636,-0.205558725538403,-0.00496041549164383,,
0.0373356121335737,-0.196647552641263,-0.00480343516953807,,
0.0375749429805838,-0.187114236370555,-0.00464958322736386,,
0.0378142738275938,-0.177205303279207,-0.00445866012228535,,
0.0380536046746039,-0.166863379914899,-0.00427469021071492,,
0.038292935521614,-0.156092231410441,-0.00407061843842493,,
0.0385322663686241,-0.145109876884639,-0.00387544987384869,,
0.0387715972156342,-0.133853564124022,-0.00365104223913537,,
0.0390109280626443,-0.122129657727016,-0.00343361147667398,,
0.0392502589096544,-0.110167113626778,-0.00317377904819161,,
0.0394895897566645,-0.0979098134152578,-0.0029259921360274,,
0.0397289206036745,-0.0855669909013773,-0.00269677214482922,,
0.0399682514506846,-0.0728507030713174,-0.0024474140783628,,
0.0402075822976947,-0.0601656120559552,-0.00218126638959104,,
0.0404469131447048,-0.0472044561243247,-0.00192501223717478,,
0.0406862439917149,-0.0342373387324143,-0.00162390775804333,,
0.040925574838725,-0.0210763170008745,-0.00136424247363598,,
0.0411649056857351,-0.00793300035813585,-0.00109972026099081,,
0.0414042365327452,0.00528012812209071,-0.000801503195750009,,
0.0416435673797552,0.0184430100085298,-0.000539198427829568,,
0.0418828982267653,0.0315584019162733,-0.000280749116565726,,
0.0421222290737754,0.0446460035580505,1.19549799442176E-05,,
0.0423615599207855,0.057520606258099,0.000291951948173441,,
0.0426008907677956,0.0703950296661089,0.000582171169438706,,
0.0428402216148057,0.0830421331808156,0.000858605183142291,,
0.0430795524618158,0.0956140685083844,0.00113843779303124,,
0.0433188833088258,0.10776486924904,0.00140315222136245,,
0.0435582141558359,0.119788372642366,0.00168183432287083,,
0.043797545002846,0.131491839746983,0.00194822576341824,,
0.0440368758498561,0.142952366139443,0.00222983288623402,,
0.0442762066968662,0.154102538013274,0.00247380752062742,,
0.0445155375438763,0.164681664744507,0.00274695436752825,,
0.0447548683908864,0.175142794902907,0.00299955363617688,,
0.0449941992378965,0.185101952176538,0.00322860787616763,,
0.0452335300849066,0.194760414290113,0.00347088042673338,,
0.0454728609319166,0.203899646660215,0.00367585199129206,,
0.0457121917789267,0.212351114770661,0.00390912940490384,,
0.0459515226259368,0.220743057924327,0.00411621812774188,,
0.0461908534729469,0.228423928853333,0.00430958710778073,,
0.046430184319957,0.235505964373775,0.00450383916568109,,
0.0466695151669671,0.241976614042959,0.00468934680273891,,
0.0469088460139772,0.24821095680541,0.00485424000391532,,
0.0471481768609873,0.253673268050114,0.00498060092440022,,
0.0473875077079973,0.258455524592817,0.0051657993449199,,
0.0476268385550074,0.263017789804289,0.00529587922106778,,
0.0478661694020175,0.266697041726188,0.00540386543627225,,
0.0481055002490276,0.269987229924558,0.00552330659206435,,
0.0483448310960377,0.272519192092145,0.00560689812956428,,
0.0485841619430478,0.274640396199547,0.00567537427124076,,
0.0488234927900579,0.27551157621458,0.00577267440860174,,
0.049062823637068,0.276471685080706,0.00582072275861334,,
0.049302154484078,0.276542146851834,0.0058883715371203,,
0.0495414853310881,0.276123141357877,0.00589015719298525,,
0.0497808161780982,0.274807854963498,0.00591444879851055,,
0.0500201470251083,0.273071949446817,0.00593329986440372,,
0.0502594778721184,0.270614572767243,0.00593523873567037,,
0.0504988087191285,0.267591708998264,0.00591910376099136,,
0.0507381395661386,0.26389524504067,0.00587059855050853,,
0.0509774704131487,0.259939524795417,0.00581711244659955,,
0.0512168012601587,0.255240818342651,0.00577690872516134,,
0.0514561321071688,0.249883572232504,0.00570152953319925,,
0.0516954629541789,0.243760749117995,0.00560526011763196,,
0.051934793801189,0.237500409009963,0.00549317608686195,,
0.0521741246481991,0.23050048924315,0.00538935733058699,,
0.0524134554952092,0.222655566098923,0.00528567228957177,,
0.0526527863422193,0.214750759413841,0.00513936550950378,,
0.0528921171892294,0.206278314134891,0.0049774391156534,,
0.0531314480362394,0.197239306014307,0.00485360207069663,,
0.0533707788832495,0.188001104438957,0.00466552320062252,,
0.0536101097302596,0.177999118779631,0.00446569688783072,,
0.0538494405772697,0.167814075949004,0.00428577464860291,,
0.0540887714242798,0.157239790102811,0.00410079630111504,,
0.0543281022712899,0.146077045374781,0.00387470886845076,,
0.0545674331183,0.134788841042816,0.00364012773105626,,
0.0548067639653101,0.123300345092351,0.00343186342822577,,
0.0550460948123201,0.111378141700773,0.00320218796942395,,
0.0552854256593302,0.0992040329951138,0.00293640939048379,,
0.0555247565063403,0.0866993097704748,0.00269384712352183,,
0.0557640873533504,0.0741226904384004,0.00243291293701375,,
0.0560034182003605,0.0613296656158659,0.00217816308127006,,
0.0562427490473706,0.0483813738879972,0.00191563266884875,,
0.0564820798943807,0.0353945343718526,0.00165993844908297,,
0.0567214107413908,0.0221629388116613,0.00139532709293144,,
0.0569607415884008,0.00902226672649044,0.0011399643755805,,
0.0572000724354109,-0.00417468064726219,0.000854616011225495,,
0.057439403282421,-0.017293479103737,0.000566125338266055,,
0.0576787341294311,-0.0304140256575872,0.000302873420588767,,
0.0579180649764412,-0.0434654551305986,6.11468740085996E-07,,
0.0581573958234513,-0.0562817430951274,-0.000283701995218877,,
0.0583967266704614,-0.0692062338048863,-0.000557127415577341,,
0.0586360575174715,-0.0819804329633792,-0.000844292078877373,,
0.0588753883644815,-0.0944391229571353,-0.00111265860524101,,
0.0591147192114916,-0.106787817285276,-0.00141549998988211,,
0.0593540500585017,-0.118737631650782,-0.00165953173183464,,
0.0595933809055118,-0.130532896279108,-0.00193955516454247,,
0.0598327117525219,-0.14225357541942,-0.00219979709600748,,
0.060072042599532,-0.153242563750646,-0.00244535263477452,,
0.0603113734465421,-0.163970726988875,-0.00275656515182421,,
0.0605507042935522,-0.17443779619605,-0.00298166364871344,,
0.0607900351405622,-0.184396169067014,-0.00321336851515541,,
0.0610293659875723,-0.194121327818908,-0.00343942669760677,,
0.0612686968345824,-0.203359887978334,-0.00367243807356621,,
0.0615080276815925,-0.211981549056319,-0.00387410157831258,,
0.0617473585286026,-0.220098771984005,-0.00408245363178228,,
0.0619866893756127,-0.228051091059289,-0.00428302512857393,,
0.0622260202226228,-0.235191755076318,-0.00446977102465196,,
0.0624653510696329,-0.241741472534477,-0.00468398008507309,,
0.0627046819166429,-0.248074963794214,-0.00481734016368707,,
0.062944012763653,-0.253457803842856,-0.00500473095732001,,
0.0631833436106631,-0.25857399180725,-0.00514130995223949,,
0.0634226744576732,-0.263011783521,-0.00526148654196046,,
0.0636620053046833,-0.26684069947203,-0.00539414182972564,,
0.0639013361516934,-0.270274231655175,-0.00545948541286867,,
0.0641406669987035,-0.272884141036496,-0.00560009954432505,,
0.0643799978457136,-0.274544206020896,-0.00567912386998337,,
0.0646193286927236,-0.276141339499784,-0.00573859233890017,,
0.0648586595397337,-0.277061645533365,-0.00582643212163259,,
0.0650979903867438,-0.276867248140629,-0.0058719092386279,,
0.0653373212337539,-0.276557655613163,-0.00591095409448172,,
0.065576652080764,-0.275284861431907,-0.00592666563750477,,
0.0658159829277741,-0.27361027379239,-0.0059490949794645,,
0.0660553137747842,-0.271306057336697,-0.00591712588944038,,
0.0662946446217943,-0.268312014762906,-0.00589663541874774,,
0.0665339754688044,-0.264552260715725,-0.00586485436580775,,
0.0667733063158144,-0.260507790911418,-0.00583589386912875,,
0.0670126371628245,-0.255763902864952,-0.00575636671837865,,
0.0672519680098346,-0.250267526132935,-0.00571322126122542,,
0.0674912988568447,-0.24435478846453,-0.00560637162572908,,
0.0677306297038548,-0.237790413882224,-0.00551633668414864,,
0.0679699605508649,-0.230752125619174,-0.00541892511740416,,
0.068209291397875,-0.223325849384827,-0.00525780937231657,,
0.068448622244885,-0.215288187299221,-0.00512781724680833,,
0.0686879530918951,-0.206692568389828,-0.00500191040105946,,
0.0689272839389052,-0.197836438148505,-0.00483755345378922,,
0.0691666147859153,-0.188274659266687,-0.00466214131884435,,
0.0694059456329254,-0.178442059760726,-0.00447419337829569,,
0.0696452764799355,-0.168228688788017,-0.00431355677955558,,
0.0698846073269456,-0.157682731083906,-0.00409873207179245,,
0.0701239381739557,-0.146593518503162,-0.00388913340209873,,
0.0703632690209657,-0.135327523972466,-0.00368693364344574,,
0.0706025998679758,-0.123610565141952,-0.00346644832301912,,
0.0708419307149859,-0.111675452723603,-0.00323642464739526,,
0.071081261561996,-0.0994956514957214,-0.00295858801633164,,
0.0713205924090061,-0.0870500946437848,-0.00271299626301502,,
0.0715599232560162,-0.0745331795605283,-0.00247866027026333,,
0.0717992541030263,-0.0617735030571534,-0.00222218325908141,,
0.0720385849500364,-0.0488696757548307,-0.00197252572614737,,
0.0722779157970465,-0.0358806847342242,-0.00168311018930778,,
0.0725172466440565,-0.022746467162439,-0.00141634685319403,,
0.0727565774910666,-0.00959633742223768,-0.00115720946548947,,
0.0729959083380767,0.00359386408856668,-0.000855958735292539,,
0.0732352391850868,0.0167691171256618,-0.000594768261203527,,
0.0734745700320969,0.0298870415334489,-0.000313175067060634,,
0.073713900879107,0.043001895565077,-1.94917848466147E-05,,
0.0739532317261171,0.0558648442826234,0.000273432384694683,,
0.0741925625731271,0.0686842250348163,0.000564754756853247,,
0.0744318934201372,0.081453919480842,0.000850983413335005,,
0.0746712242671473,0.0939403773290596,0.00111185074221343,,
0.0749105551141574,0.106195526036117,0.00137627266841367,,
0.0751498859611675,0.118181557393399,0.00163764142951583,,
0.0753892168081776,0.130024334411924,0.0019281266884339,,
0.0756285476551877,0.141606420806482,0.00221012102835605,,
0.0758678785021978,0.152625373319641,0.00242672860624937,,
0.0761072093492079,0.163327830561852,0.0027000063826752,,
0.0763465401962179,0.173852631805422,0.00294995641773976,,
0.076585871043228,0.183878463305867,0.0031780300791584,,
0.0768252018902381,0.193503397808244,0.00343581917132729,,
0.0770645327372482,0.203002110715523,0.00367325568666477,,
0.0773038635842583,0.211266218645744,0.00384061147720871,,
0.0775431944312684,0.21970585348165,0.00407268545348227,,
0.0777825252782785,0.227545218572683,0.00428339841700742,,
0.0780218561252886,0.234507307719374,0.00446922919927628,,
0.0782611869722986,0.24123685509214,0.00466896636856173,,
0.0785005178193087,0.24749629873998,0.00482379471070571,,
0.0787398486663188,0.252800832990811,0.00498601917815567,,
