Time domain (s),Current (AC) (A),Potential (AC) (V),Frequency (Hz),Column 5
0,0.155172689418809,0.00216667761003508,1584.9,0.4
1.97173323238059E-05,0.215740793009037,0.00309119887633535,,
3.94346646476118E-05,0.267427692190937,0.00390930127238276,,
5.91519969714178E-05,0.308671444361969,0.00457158430203064,,
7.88693292952237E-05,0.338492435380836,0.00503892510556359,,
9.85866616190296E-05,0.354699635746799,0.005303981608344,,
0.000118303993942836,0.357551197706969,0.00537564608988728,,
0.000138021326266641,0.346454193830674,0.0052684822336504,,
0.000157738658590447,0.322662845259965,0.00491462974183898,,
0.000177455990914253,0.285954397963311,0.00440513858235603,,
0.000197173323238059,0.238526117851639,0.00373699393958038,,
0.000216890655561865,0.18191271813089,0.00288430200278622,,
0.000236607987885671,0.118311259759543,0.00193659423652992,,
0.000256325320209477,0.0503952595787161,0.000946555415595185,,
0.000276042652533283,-0.0184084774890772,-9.11973800232779E-05,,
0.000295759984857089,-0.0881861778664005,-0.00115226665187596,,
0.000315477317180895,-0.155094953883357,-0.00217285940862899,,
0.000335194649504701,-0.215739914641405,-0.0031266348479666,,
0.000354911981828506,-0.267885263169483,-0.00388540465812648,,
0.000374629314152312,-0.309353174760258,-0.00459164186085248,,
0.000394346646476118,-0.33896359177876,-0.00502337708956224,,
0.000414063978799924,-0.355513443358053,-0.0052949276510188,,
0.00043378131112373,-0.358371417401939,-0.00537371229648143,,
0.000453498643447536,-0.347349133332225,-0.00524723903755975,,
0.000473215975771342,-0.322819663161238,-0.00492721366466853,,
0.000492933308095148,-0.285839273245648,-0.00439828312622348,,
0.000512650640418954,-0.238222495440101,-0.00368889162113817,,
0.00053236797274276,-0.181262696804124,-0.00289099895126244,,
0.000552085305066566,-0.11761553403698,-0.00192806652462352,,
0.000571802637390372,-0.0495372993544818,-0.000960467632584283,,
0.000591519969714177,0.0192541405664605,0.000100858421671735,,
0.000611237302037983,0.0885371150143947,0.00114422714355111,,
0.000630954634361789,0.155142239340892,0.00218174851799136,,
0.000650671966685595,0.215717955450599,0.00310914511317595,,
0.000670389299009401,0.267453633315009,0.00390101766226714,,
0.000690106631333207,0.309060268433833,0.00455593325605275,,
0.000709823963657013,0.338286370334316,0.00502612085709186,,
0.000729541295980819,0.35498015708961,0.00530377871854393,,
0.000749258628304625,0.357733019806839,0.00539584630559986,,
0.000768975960628431,0.346712375356705,0.00525627080381286,,
0.000788693292952237,0.322737565066546,0.00492185452081095,,
0.000808410625276043,0.286020568324939,0.00440688850688131,,
0.000828127957599848,0.238520876924767,0.00371770672796767,,
0.000847845289923654,0.181876090200626,0.00289036967586709,,
0.00086756262224746,0.118368587887006,0.0019409753881483,,
0.000887279954571266,0.0503579289543467,0.000922506633989073,,
0.000906997286895072,-0.0184046712293376,-8.16647295764916E-05,,
0.000926714619218878,-0.0882435059938636,-0.00116248247032136,,
0.000946431951542684,-0.155188646430794,-0.00216815807154447,,
0.00096614928386649,-0.215739153389457,-0.00309653107389174,,
0.000985866616190296,-0.267756026011862,-0.00391317678457792,,
0.0010055839485141,-0.309427660335471,-0.00454114449172449,,
0.00102530128083791,-0.338985199622513,-0.00500663075567909,,
0.00104501861316171,-0.355513911820791,-0.00529624167948928,,
0.00106473594548552,-0.358152996650726,-0.00538334956198128,,
0.00108445327780933,-0.347275174777592,-0.00526578918857057,,
0.00110417061013313,-0.32275946569951,-0.00494675765868413,,
0.00112388794245694,-0.285918267774706,-0.00438550423897643,,
0.00114360527478074,-0.238148009864888,-0.00369430148744598,,
0.00116332260710455,-0.181459451153742,-0.0028758123327175,,
0.00118303993942835,-0.117587894735486,-0.00191964025761715,,
0.00120275727175216,-0.0495375335858504,-0.000939043737765655,,
0.00122247460407597,0.0192203526915409,9.66595538574033E-05,,
0.00124219193639977,0.0885626169546502,0.0011612857375165,,
0.00126190926872358,0.155155795481349,0.00215420622764162,,
0.00128162660104738,0.21559422273014,0.00310002141248233,,
0.00130134393337119,0.267677031482804,0.00388056066415166,,
0.001321061265695,0.308837982865038,0.00454310364635591,,
0.0013407785980188,0.33837561248575,0.00502425363690095,,
0.00136049593034261,0.354840730867455,0.00529313968465628,,
0.00138021326266641,0.357649750555304,0.00539601432371573,,
0.00139993059499022,0.346749969491364,0.00524331121783783,,
0.00141964792731403,0.322548657467776,0.00491813276104214,,
0.00143936525963783,0.286151913564877,0.00440888887350299,,
0.00145908259196164,0.238386428119195,0.00371059924466177,,
0.00147879992428544,0.181857263854376,0.00286580415930171,,
0.00149851725660925,0.118324113205894,0.00194910049060804,,
0.00151823458893306,0.0504114801009912,0.000925362941954777,,
0.00153795192125686,-0.0183735184573147,-0.000107506232774668,,
0.00155766925358067,-0.0881621691511198,-0.00115819166806652,,
0.00157738658590447,-0.155182966320106,-0.00216631462750261,,
0.00159710391822828,-0.215754905448995,-0.00311891869526049,,
0.00161682125055209,-0.267904060236813,-0.00388643495789243,,
0.00163653858287589,-0.309483290285512,-0.00454690307487615,,
0.0016562559151997,-0.338955979259281,-0.00504250737859469,,
0.0016759732475235,-0.3556134015946,-0.00531877195774877,,
0.00169569057984731,-0.358212491418348,-0.00538084989624199,,
0.00171540791217111,-0.347271368517852,-0.00525129683355985,,
0.00173512524449492,-0.32275401982019,-0.00489790876918139,,
0.00175484257681873,-0.285915632671809,-0.00440588356834049,,
0.00177455990914253,-0.23823936009864,-0.00372664814485679,,
0.00179427724146634,-0.181422618271031,-0.00287572198335351,,
0.00181399457379014,-0.117647448060951,-0.0019273833566249,,
0.00183371190611395,-0.0494830162348104,-0.000922130970844037,,
0.00185342923843776,0.0192258278497818,0.000106526655458961,,
0.00187314657076156,0.0885216557440676,0.00114890628956354,,
0.00189286390308537,0.15530737245575,0.0021769584166198,,
0.00191258123540917,0.215524011877404,0.00310958259430727,,
0.00193229856773298,0.267569021542962,0.00391204345483587,,
0.00195201590005679,0.309056696405462,0.00456581462334338,,
0.00197173323238059,0.338218794584477,0.00501231167007932,,
0.0019914505647044,0.354883829439276,0.00527493666541279,,
0.0020111678970282,0.357675164658796,0.00538012868640614,,
0.00203088522935201,0.346612212167711,0.00525795732527534,,
0.00205060256167582,0.322485327161493,0.00490334716686691,,
0.00207031989399962,0.286004611312953,0.00439733366536244,,
0.00209003722632343,0.238459244795906,0.003702287103168,,
0.00210975455864723,0.181806845552286,0.00289149191007354,,
0.00212947189097104,0.118294131590714,0.00191057044952681,,
0.00214918922329485,0.050418126416075,0.000927274544289425,,
0.00216890655561865,-0.0183866354139559,-7.44383655280068E-05,,
0.00218862388794246,-0.0881852409409262,-0.00115763847634609,,
0.00220834122026626,-0.1550677830446,-0.00218432426740556,,
0.00222805855259007,-0.215737045307139,-0.00310226112566525,,
0.00224777588491387,-0.267737931638638,-0.0038984276471643,,
0.00226749321723768,-0.309612293211764,-0.00456265556575408,,
0.00228721054956149,-0.339007802949582,-0.00502098203887602,,
0.00230692788188529,-0.355268085999452,-0.00528038457355828,,
0.0023266452142091,-0.358108492690693,-0.00537328749596266,,
0.0023463625465329,-0.347370097039714,-0.00526845528734876,,
0.00236607987885671,-0.322836117914882,-0.004910597307064,,
0.00238579721118052,-0.285888051928158,-0.00438305846584086,,
0.00240551454350432,-0.238114749010548,-0.00372651975365512,,
0.00242523187582813,-0.18129695314178,-0.00289117964999086,,
0.00244494920815193,-0.117606047666552,-0.00193672262773115,,
0.00246466654047574,-0.0495442091798553,-0.000938658564161088,,
0.00248438387279955,0.0192431902499787,0.000100137211835438,,
0.00250410120512335,0.0885697317324712,0.00115114758782298,,
0.00252381853744716,0.155151754990241,0.0021545929863227,,
0.00254353586977096,0.215771711549691,0.00310987741854785,,
0.00256325320209477,0.267411003205925,0.00389094608578899,,
0.00258297053441857,0.308861288886213,0.00456837927722109,,
0.00260268786674238,0.338229276438222,0.00502795003544465,,
0.00262240519906619,0.354580675490475,0.00531615816649689,,
0.00264212253138999,0.357703506654396,0.00538577155896869,,
0.0026618398637138,0.346654344535136,0.00525871816202539,,
0.0026815571960376,0.322310912628654,0.00490776319017039,,
0.00270127452836141,0.286020070583281,0.00440387369125927,,
0.00272099186068522,0.238500176727568,0.00370040720236453,,
0.00274070919300902,0.181715466039614,0.0028725787765298,,
0.00276042652533283,0.118279111504203,0.00195219138990455,,
0.00278014385765663,0.0503912190876079,0.000933006181139007,,
0.00279986118998044,-0.0183987568872806,-9.78705523513312E-05,,
0.00281957852230425,-0.0882568571818734,-0.00117167908453686,,
0.00283929585462805,-0.155153687399032,-0.0021872756799648,,
0.00285901318695186,-0.215688208066788,-0.00311659972824962,,
0.00287873051927566,-0.26773962981606,-0.00392356062113919,,
0.00289844785159947,-0.309312242828597,-0.0045373165318261,,
0.00291816518392328,-0.338993807625309,-0.00503167496536694,,
0.00293788251624708,-0.355473214120498,-0.0053058012762377,,
0.00295759984857089,-0.358154636270306,-0.0053758267886157,,
0.00297731718089469,-0.347392934598152,-0.00524769078438014,,
0.0029970345132185,-0.322690191772248,-0.00490754286452821,,
0.00301675184554231,-0.285992226329339,-0.00439747315210015,,
0.00303646917786611,-0.238251013109227,-0.00372650707304256,,
0.00305618651018992,-0.18125795361891,-0.00287870985267347,,
0.00307590384251372,-0.117577412881742,-0.00196874592952323,,
0.00309562117483753,-0.0494570751107387,-0.000927761162794027,,
0.00311533850716133,0.0192086704020324,0.000100717349857504,,
0.00313505583948514,0.088562119212992,0.00117616326613224,,
0.00315477317180895,0.155148417193238,0.00216517178730102,,
0.00317449050413275,0.215591616906164,0.00308958843854779,,
0.00319420783645656,0.2673410851424,0.00390381373732351,,
0.00321392516878036,0.308760686513403,0.00456636940013988,,
0.00323364250110417,0.338396546914318,0.00503833545708243,,
0.00325335983342798,0.354954479475828,0.00532068197500646,,
0.00327307716575178,0.357386533054848,0.00537640692663732,,
0.00329279449807559,0.346565336615071,0.00526098482150994,,
0.00331251183039939,0.322504387739112,0.00491250256909215,,
0.0033322291627232,0.286060768283574,0.00441428447412173,,
0.00335194649504701,0.238643409209462,0.0037215616341677,,
0.00337166382737081,0.181926772013005,0.00289078179577373,,
0.00339138115969462,0.118315797992309,0.00192364733116746,,
0.00341109849201842,0.0504019644516421,0.000932952288536182,,
0.00343081582434223,-0.0184239367594043,-0.000113868730096556,,
0.00345053315666604,-0.0882173306384234,-0.00116230177159338,,
0.00347025048898984,-0.155182205068158,-0.00218558598834928,,
0.00348996782131365,-0.215683699112942,-0.00309582095959149,,
0.00350968515363745,-0.267824831476386,-0.00391487915680644,,
0.00352940248596126,-0.309432403520685,-0.00455343359031346,,
0.00354911981828507,-0.338848408503255,-0.00500827923530434,,
0.00356883715060887,-0.3553833278328,-0.00530835007935027,,
0.00358855448293268,-0.357996471538664,-0.00536915361628765,,
0.00360827181525648,-0.347315579688674,-0.00522731145501609,,
0.00362798914758029,-0.322840626868727,-0.00493127146066863,,
0.00364770647990409,-0.285828322929166,-0.0043830457852283,,
0.0036674238122279,-0.238374804387528,-0.00370762247087741,,
0.00368714114455171,-0.181400190617488,-0.00287020908706914,,
0.00370685847687551,-0.117688087203402,-0.00194227356585319,,
0.00372657580919932,-0.0494744667898567,-0.000918588324726688,,
0.00374629314152312,0.0192650908829422,7.44256849154468E-05,,
0.00376601047384693,0.0885894950041962,0.00115945338901025,,
0.00378572780617074,0.15514273708255,0.00217051666546952,,
0.00380544513849454,0.215646309930731,0.00310878054556651,,
0.00382516247081835,0.267503114691624,0.00389149769243291,,
0.00384487980314215,0.30899122873794,0.00455735031449933,,
0.00386459713546596,0.338253753616239,0.00504085889896988,,
0.00388431446778977,0.354722473305236,0.0052927022035254,,
0.00390403180011357,0.357559776430843,0.00538219245609062,,
0.00392374913243738,0.346847292625015,0.00524072437288803,,
0.00394346646476118,0.322332344798881,0.00490795656951093,,
0.00396318379708499,0.286089812973279,0.00440180041111571,,
0.00398290112940879,0.238422353355353,0.0037331041616957,,
0.0040026184617326,0.181934618763853,0.00287368515997066,,
0.00402233579405641,0.118275773707201,0.00192099391300182,,
0.00404205312638021,0.0504300429369522,0.00091226386924248,,
0.00406177045870402,-0.0183958875530153,-0.000103294684348221,,
0.00408148779102782,-0.0882563887191362,-0.00116304834265391,,
0.00410120512335163,-0.155117030189847,-0.00219363817728668,,
0.00412092245567544,-0.215747527160884,-0.00311158930123545,,
0.00414063978799924,-0.267869335436419,-0.00390912057365478,,
0.00416035712032305,-0.309348665806413,-0.00454004920381967,,
0.00418007445264685,-0.338976884408928,-0.00501427082471073,,
0.00419979178497066,-0.355482524817399,-0.00528120881337069,,
0.00421950911729447,-0.358082551566621,-0.00540787703670942,,
0.00423922644961827,-0.347100028271726,-0.00525319100005195,,
0.00425894378194208,-0.322715195970846,-0.00492365833793906,,
0.00427866111426588,-0.285674374362159,-0.00438661220749381,,
0.00429837844658969,-0.238030191486486,-0.00369677420688364,,
0.0043180957789135,-0.181299529686835,-0.00290251611756576,,
0.0043378131112373,-0.117543859238191,-0.00194087077309524,,
0.00435753044356111,-0.0495058537932482,-0.00091043469088925,,
0.00437724777588491,0.0192529694096175,9.90149776294302E-05,,
0.00439696510820872,0.0885387839128959,0.00116798427106968,,
0.00441668244053253,0.15521362135047,0.00218900182834147,,
0.00443639977285633,0.215540905814864,0.00312282432391031,,
0.00445611710518014,0.267329168621523,0.0038978601897548,,
0.00447583443750394,0.30883230275435,0.00455716961577135,,
0.00449555176982775,0.338259726516139,0.00501417889026978,,
0.00451526910215156,0.354532131039334,0.00530702495534374,,
0.00453498643447536,0.357674227733322,0.00537287854620949,,
0.00455470376679917,0.346858711404233,0.00524598999722858,,
0.00457442109912297,0.322546959290354,0.00491879215289215,,
0.00459413843144678,0.286118125689958,0.00439447101709067,,
0.00461385576377058,0.238362126614703,0.00372000191883037,,
0.00463357309609439,0.181877524867759,0.00286627968227071,,
0.0046532904284182,0.118359072237657,0.001960541573236,,
0.004673007760742,0.0504633330702134,0.000940272172101686,,
0.00469272509306581,-0.0183423656852919,-8.253969183869E-05,,
0.00471244242538961,-0.0882673390356179,-0.00115828201743051,,
0.00473215975771342,-0.155119665292744,-0.00217025829799011,,
0.00475187709003723,-0.215855273590437,-0.0031231952318258,,
0.00477159442236103,-0.267663270389899,-0.00392184715337507,,
0.00479131175468484,-0.309511398049743,-0.00454191642401058,,
0.00481102908700864,-0.339043581791135,-0.00501629179732754,,
0.00483074641933245,-0.355359026328309,-0.00530048017421736,,
0.00485046375165626,-0.358139411231347,-0.00536334431068619,,
0.00487018108398006,-0.346943678833191,-0.00527899287633637,,
0.00488989841630387,-0.322798289548854,-0.00492212556890292,,
0.00490961574862767,-0.285972492336535,-0.00440869232400942,,
0.00492933308095148,-0.238175414935014,-0.00371045500269451,,
0.00494905041327528,-0.181354515500612,-0.00289946326010648,,
0.00496876774559909,-0.117549363675353,-0.00193567806227657,,
0.0049884850779229,-0.049495898960083,-0.000939688863926591,,
0.0050082024102467,0.0192760411994239,7.26329633233824E-05,,
0.00502791974257051,0.0884790841928258,0.00113491323366999,,
0.00504763707489431,0.155218862277343,0.00216697243427566,,
0.00506735440721812,0.215615157158708,0.00308455106523242,,
0.00508707173954193,0.2675280896113,0.00387751097684541,,
0.00510678907186573,0.309014798269405,0.00458249596908678,,
0.00512650640418954,0.338238294345912,0.00503293668631066,,
0.00514622373651334,0.354882365493222,0.00529090789685638,,
0.00516594106883715,0.357487193985501,0.00539270151370008,,
0.00518565840116096,0.34654513415953,0.00524747045873797,,
0.00520537573348476,0.322696398903516,0.00494097371430779,,
0.00522509306580857,0.286057693996861,0.00437897530861564,,
0.00524481039813237,0.23847517252897,0.00370861472880524,,
0.00526452773045618,0.181902968250172,0.00288006350805814,,
0.00528424506277999,0.118254605047264,0.0019370317176608,,
0.00530396239510379,0.0503755255859122,0.000936816705195298,,
0.0053236797274276,-0.0184001622754922,-9.31676301902939E-05,,
0.0053433970597514,-0.0882428032997578,-0.00115414655267898,,
0.00536311439207521,-0.155155327018612,-0.0021904696092383,,
0.00538283172439902,-0.215709406005645,-0.00309454497295869,,
0.00540254905672282,-0.267816047800064,-0.00389737198617368,,
0.00542226638904663,-0.309286770167262,-0.00458554724146953,,
0.00544198372137043,-0.33891288068746,-0.0050064896838653,,
0.00546170105369424,-0.355306148596849,-0.00529827691779561,,
0.00548141838601804,-0.358119677238543,-0.0053935511147376,,
0.00550113571834185,-0.347028412030779,-0.00523675375609889,,
0.00552085305066566,-0.322631926719311,-0.00491770796052338,,
0.00554057038298946,-0.286148809999243,-0.0044029606871594,,
0.00556028771531327,-0.238267467862871,-0.0037137155051834,,
0.00558000504763707,-0.181366871205305,-0.00287992085116739,,
0.00559972237996088,-0.117570503056368,-0.00193348748646738,,
0.00561943971228469,-0.049523948166472,-0.000918253873571917,,
0.00563915704460849,0.0192291656467842,0.000108870983694942,,
0.0056588743769323,0.0884381522611642,0.00116699201314141,,
0.0056785917092561,0.155087019295746,0.00214093913681346,,
0.00569830904157991,0.215703198874378,0.00313240452665386,,
0.00571802637390372,0.267342490530611,0.00389048007327952,,
0.00573774370622752,0.309073561064001,0.00455966769643368,,
0.00575746103855133,0.33854762614706,0.00503789797595111,,
0.00577717837087513,0.354758398541394,0.00531340013327819,,
0.00579689570319894,0.357518171083997,0.00539873114494371,,
0.00581661303552275,0.346704762837226,0.00525934902249725,,
0.00583633036784655,0.322617638605827,0.00492858158574183,,
0.00585604770017036,0.286111450095953,0.00441165641718122,,
0.00587576503249416,0.238481818844054,0.00372439575106132,,
0.00589548236481797,0.182051675890308,0.00289236687233618,,
0.00591519969714178,0.118278877272835,0.0019562777172828,,
0.00593491702946558,0.0503431723781253,0.000943749830079721,,
0.00595463436178939,-0.0183916128305385,-9.0579200163976E-05,,
0.00597435169411319,-0.0882515869760801,-0.00115269145239472,,
0.005994069026437,-0.155197430107116,-0.00218620416820858,,
0.0060137863587608,-0.215717018525125,-0.00309842365530733,,
0.00603350369108461,-0.267827232347914,-0.00388843215436108,,
0.00605322102340842,-0.309443588068535,-0.00456574805012755,,
0.00607293835573222,-0.339111098983131,-0.00501804330692934,,
0.00609265568805603,-0.35543157949473,-0.00529213316103938,,
0.00611237302037983,-0.358221743557408,-0.00538016672824382,,
0.00613209035270364,-0.347292976361605,-0.00523965286113182,,
0.00615180768502745,-0.322705885273944,-0.0049205024505028,,
0.00617152501735125,-0.285918970468812,-0.00439180333323597,,
0.00619124234967506,-0.238276017307824,-0.00370683627290225,,
0.00621095968199886,-0.181394978969537,-0.00288364419601272,,
0.00623067701432267,-0.117665249644964,-0.00191352027700953,,
0.00625039434664648,-0.0495308579918455,-0.000914904606795552,,
0.00627011167897028,0.0192720007083157,9.64011863779923E-05,,
0.00628982901129409,0.0884571835598624,0.00115842308924474,,
0.00630954634361789,0.155340926099301,0.0021712870126791,,
0.0063292636759417,0.215529955498382,0.00306993982947912,,
0.0063489810082655,0.267621840716579,0.00389538747031715,,
0.00636869834058931,0.308655487349984,0.00454101768559934,,
0.00638841567291312,0.338269710628225,0.00503132624852309,,
0.00640813300523692,0.354653931351002,0.00529369446145322,,
