Time domain (s),Current (AC) (A),Potential (AC) (V),Frequency (Hz),Column 5
0,-0.429265055801082,-0.0163152178925818,0.01,0.5
0.244140625,-0.431774091503348,-0.0165197790884268,,
0.48828125,-0.434164165535592,-0.0166670349664924,,
0.732421875,-0.436424651225851,-0.0168513983863985,,
0.9765625,-0.438500346935878,-0.0170011309473481,,
1.220703125,-0.440681168246392,-0.0172022520093158,,
1.46484375,-0.442605023791264,-0.0173522461165185,,
1.708984375,-0.444482806650984,-0.0175543066099251,,
1.953125,-0.446311450067872,-0.0176901825571494,,
2.197265625,-0.447811094573601,-0.0178207635271721,,
2.44140625,-0.449366439957199,-0.0179797596293856,,
2.685546875,-0.450843618679921,-0.0181127345482746,,
2.9296875,-0.45245972865756,-0.0182430166082939,,
3.173828125,-0.45359457163921,-0.0183855326277351,,
3.41796875,-0.454742822770719,-0.0185024704911774,,
3.662109375,-0.455953478855027,-0.0186406096141414,,
3.90625,-0.456661899879205,-0.0187740515799102,,
4.150390625,-0.457381304175077,-0.0188679947238115,,
4.39453125,-0.457841531786979,-0.0190024188224482,,
4.638671875,-0.45874016310729,-0.019076014735409,,
4.8828125,-0.45914383400197,-0.0191596668349101,,
5.126953125,-0.459303662001082,-0.0192908029235106,,
5.37109375,-0.459638009908195,-0.0193813513038026,,
5.615234375,-0.459574321196366,-0.0194339354448334,,
5.859375,-0.459892479475724,-0.0195606119029379,,
6.103515625,-0.460105298194757,-0.0196465511977326,,
6.34765625,-0.459700771460725,-0.0196762046713657,,
6.591796875,-0.459451722209095,-0.0197394881892117,,
6.8359375,-0.458978157767281,-0.019827154223043,,
7.080078125,-0.458608435166924,-0.0199120873654159,,
7.32421875,-0.457820920322569,-0.0199613648145349,,
7.568359375,-0.457014434372562,-0.019996358635638,,
7.8125,-0.456523539183856,-0.0200637815232625,,
8.056640625,-0.455353321508962,-0.0200774886819861,,
8.30078125,-0.45460046815839,-0.0201143613659673,,
8.544921875,-0.453360856175983,-0.0201643914277736,,
8.7890625,-0.451949648403364,-0.0201975250678741,,
9.033203125,-0.451080686180612,-0.0202291241253678,,
9.27734375,-0.449287417456969,-0.0202364047190202,,
9.521484375,-0.447555483886934,-0.0202672138000772,,
9.765625,-0.445898008340582,-0.0202658260036332,,
10.009765625,-0.444152737940635,-0.0202402478476347,,
10.25390625,-0.442524860171897,-0.0202726795829951,,
10.498046875,-0.440491742469666,-0.02027581813803,,
10.7421875,-0.438333529582052,-0.0202434744743667,,
10.986328125,-0.436178811371794,-0.0202256679784547,,
11.23046875,-0.43382347015328,-0.0202099084822973,,
11.474609375,-0.431196685220075,-0.020191119853517,,
11.71875,-0.428883636729573,-0.0201548690090965,,
11.962890625,-0.426508967805677,-0.0201302062649829,,
12.20703125,-0.423469596984536,-0.0200833200958903,,
12.451171875,-0.421005706808124,-0.0200449528618925,,
12.6953125,-0.417905143473266,-0.0200019738735575,,
12.939453125,-0.415041861598938,-0.0199479565658143,,
13.18359375,-0.411819626436107,-0.0198832185305413,,
13.427734375,-0.408759430190717,-0.0198244213315841,,
13.671875,-0.405485630706888,-0.0197388903692053,,
13.916015625,-0.402204556588562,-0.0196959967837285,,
14.16015625,-0.39880402156059,-0.0196146505613957,,
14.404296875,-0.394921934256846,-0.0195511535364044,,
14.6484375,-0.391662612722066,-0.0194299001597886,,
14.892578125,-0.387660208669325,-0.0193474864017298,,
15.13671875,-0.383677988161317,-0.0192498736037701,,
15.380859375,-0.379855666972368,-0.0191541583505632,,
15.625,-0.375838071771116,-0.0190464439957947,,
15.869140625,-0.371807995579305,-0.018937576702442,,
16.11328125,-0.367457193590077,-0.0188413490320869,,
16.357421875,-0.363324559315836,-0.0187260098033941,,
16.6015625,-0.359032311002321,-0.0186077295137759,,
16.845703125,-0.354216217685022,-0.0184699320022443,,
17.08984375,-0.349921901093071,-0.018340012904372,,
17.333984375,-0.345296374671634,-0.0182185727090043,,
17.578125,-0.340474005199081,-0.0180961877445189,,
17.822265625,-0.336024211124728,-0.0179388516603596,,
18.06640625,-0.330986526735031,-0.0177823962931742,,
18.310546875,-0.325863115770174,-0.0176327491350827,,
18.5546875,-0.32115742572937,-0.0174726214449992,,
18.798828125,-0.316367863432003,-0.0173123603129501,,
19.04296875,-0.310785508614273,-0.017191533950625,,
19.287109375,-0.305434444381604,-0.0169788408013862,,
19.53125,-0.30004928921472,-0.0168045976201641,,
19.775390625,-0.29460871844975,-0.0166448489052633,,
20.01953125,-0.289493580598635,-0.0164499195505079,,
20.263671875,-0.28380117910414,-0.0162669652777598,,
20.5078125,-0.278412529259899,-0.0161047879190823,,
20.751953125,-0.272548603295138,-0.0159051347187384,,
20.99609375,-0.266984149783868,-0.0156938907492479,,
21.240234375,-0.261159663749277,-0.0154922546012926,,
21.484375,-0.255396798148078,-0.0153086384563945,,
21.728515625,-0.249245167520925,-0.0150978401830697,,
21.97265625,-0.243400711901438,-0.0148778050568739,,
22.216796875,-0.237525374745308,-0.0146607083227646,,
22.4609375,-0.231568376250943,-0.0144342412938192,,
22.705078125,-0.22543464693025,-0.014255792021836,,
22.94921875,-0.219093733166264,-0.0140002906899781,,
23.193359375,-0.212905943326461,-0.0137820169977307,,
23.4375,-0.206505477407517,-0.0135545278033273,,
23.681640625,-0.200406266940716,-0.0133358537851827,,
23.92578125,-0.193924852882998,-0.0130949510043803,,
24.169921875,-0.187434238552239,-0.0128551637984118,,
24.4140625,-0.180928718352755,-0.0126183416729226,,
24.658203125,-0.174639654189551,-0.0123690267105978,,
24.90234375,-0.16803749546316,-0.0121127354023032,,
25.146484375,-0.161425851183943,-0.0118742292392056,,
25.390625,-0.154702591189148,-0.0116232462523089,,
25.634765625,-0.148074472002392,-0.0113690473140373,,
25.87890625,-0.141348430529701,-0.0111063507913856,,
26.123046875,-0.13467373941817,-0.010868754702495,,
26.3671875,-0.127945130427421,-0.0105631218929374,,
26.611328125,-0.121153688564196,-0.0103352457168331,,
26.85546875,-0.114236866235804,-0.0100572807644581,,
27.099609375,-0.107440717256139,-0.00977233679727307,,
27.34375,-0.100592718675691,-0.00951439614628136,,
27.587890625,-0.0936311074211756,-0.00922298024375667,,
27.83203125,-0.0866652169698965,-0.00894960836384362,,
28.076171875,-0.0795947714776986,-0.00866854488902336,,
28.3203125,-0.0727420657808111,-0.0083884261833207,,
28.564453125,-0.0656885231158287,-0.00810922022066407,,
28.80859375,-0.0587619299548267,-0.00783087095542756,,
29.052734375,-0.0517697224434527,-0.00753221449184016,,
29.296875,-0.0447506273124155,-0.0072689414998961,,
29.541015625,-0.037657787357156,-0.0069453100379957,,
29.78515625,-0.0306310609918907,-0.00666941343609029,,
30.029296875,-0.0235372225573863,-0.00637430652879223,,
30.2734375,-0.0164945918441505,-0.00605711764499928,,
30.517578125,-0.00942107959427224,-0.00575464207235177,,
30.76171875,-0.00233387391475113,-0.00548500389864071,,
31.005859375,0.0047023023433666,-0.00519674790186553,,
31.25,0.0118293758727333,-0.00489326884563512,,
31.494140625,0.0188892303529417,-0.00457117196634105,,
31.73828125,0.0259847091462054,-0.00429011116036015,,
31.982421875,0.0330108649519022,-0.00400196191715763,,
32.2265625,0.0400141983748609,-0.00365330474899661,,
32.470703125,0.0470377866624997,-0.00335418390736875,,
32.71484375,0.0540645130277649,-0.00305232483660323,,
32.958984375,0.0610701286889975,-0.00272540269582677,,
33.203125,0.0680004304871944,-0.00247348294633021,,
33.447265625,0.0750091842260534,-0.00214532513295085,,
33.69140625,0.0820650091293097,-0.00184793103036007,,
33.935546875,0.0889927790694216,-0.00154673916942327,,
34.1796875,0.0959184807310979,-0.00121998516552368,,
34.423828125,0.10271413047114,-0.000894215963331391,,
34.66796875,0.109728589805684,-0.000574446311920163,,
34.912109375,0.116526521784,-0.000291012907787991,,
35.15625,0.123282232354251,1.10543324440826E-05,,
35.400390625,0.130138931968117,0.00033767756321712,,
35.64453125,0.136833057764948,0.000625228986413262,,
35.888671875,0.143536811754497,0.000934216526990106,,
36.1328125,0.150234895808334,0.00124070603396831,,
36.376953125,0.156984044943548,0.00155859682250137,,
36.62109375,0.163684696515443,0.00183659913862666,,
36.865234375,0.170048397002194,0.00216395363137201,,
37.109375,0.176764489342411,0.00245410984173988,,
37.353515625,0.183047776589984,0.00276162418301507,,
37.59765625,0.189553867349037,0.00305192984838421,,
37.841796875,0.195979223929154,0.00339324770842797,,
38.0859375,0.202274492927665,0.00369537633196426,,
38.330078125,0.208712116538504,0.00397060839288033,,
38.57421875,0.214991695148881,0.00427575280484316,,
38.818359375,0.221205124509292,0.00458247183200244,,
39.0625,0.227221354218857,0.00488730132092607,,
39.306640625,0.233475828208223,0.00517162878622912,,
39.55078125,0.23956569576209,0.00549005334262498,,
39.794921875,0.245367716013674,0.005764217867815,,
40.0390625,0.251430767267825,0.00608428642922965,,
40.283203125,0.257209144957291,0.00634557647356226,,
40.52734375,0.263031384413582,0.00662618891453803,,
40.771484375,0.268804912346717,0.00694339648020659,,
41.015625,0.274452810194872,0.00721369652606807,,
41.259765625,0.280109943976043,0.00749217923327006,,
41.50390625,0.28555707617605,0.0077903419615839,,
41.748046875,0.291132584278959,0.00807592378136546,,
41.9921875,0.296639910513437,0.00834741946723971,,
42.236328125,0.301976354157165,0.00861342801948206,,
42.48046875,0.307105114117976,0.00891137724065061,,
42.724609375,0.312357114945573,0.00918927814088244,,
42.96875,0.317504132812574,0.00946070977461311,,
43.212890625,0.322583539370714,0.00971444166600488,,
43.45703125,0.327545410657753,0.00998571850705554,,
43.701171875,0.332398875626786,0.0102230370366576,,
43.9453125,0.337267460424384,0.0104980982918574,,
44.189453125,0.342007384039295,0.0107714301391808,,
44.43359375,0.346498543682361,0.0110431820336299,,
44.677734375,0.351583655836186,0.0112862172170454,,
44.921875,0.355524225495697,0.0115314728747711,,
45.166015625,0.359922383929106,0.0117667417357787,,
45.41015625,0.364612954141346,0.0120136787622736,,
45.654296875,0.368891009785596,0.0122898289039139,,
45.8984375,0.372934565447212,0.0125139473542619,,
46.142578125,0.377000372931998,0.0127291625566541,,
46.38671875,0.38071557156197,0.0129885950888231,,
46.630859375,0.384751709949197,0.0132020595326243,,
46.875,0.388767878751527,0.0134361487666546,,
47.119140625,0.392350707561619,0.0136633417198939,,
47.36328125,0.395899017517819,0.0138918370667191,,
47.607421875,0.399468438178052,0.0140817943738303,,
47.8515625,0.402714636842757,0.014304156727909,,
48.095703125,0.406242977214062,0.0145303301845301,,
48.33984375,0.409213595607205,0.014731304460335,,
48.583984375,0.412479478577022,0.0149444913448473,,
48.828125,0.415639808026675,0.0151195031517926,,
49.072265625,0.418460939812884,0.0153277580212499,,
49.31640625,0.421655502836644,0.0155337870787182,,
49.560546875,0.424308890109728,0.0157178569262997,,
49.8046875,0.426718933726867,0.0159076220769805,,
50.048828125,0.429421959682407,0.0160887828897081,,
50.29296875,0.431927857307046,0.0162598501521454,,
50.537109375,0.434086854714067,0.0164327429006739,,
50.78125,0.436260686669867,0.0166105516512216,,
51.025390625,0.438912076984461,0.0167478153948899,,
51.26953125,0.440356163252212,0.0169268197854509,,
51.513671875,0.442504605307217,0.0170889304231454,,
51.7578125,0.444328969527341,0.0172905505580649,,
52.001953125,0.445807289369199,0.0174045900620108,,
52.24609375,0.447971136532551,0.017541976572288,,
52.490234375,0.449524199677876,0.0177044555098083,,
52.734375,0.450719521973782,0.017809863987408,,
52.978515625,0.451723421534473,0.0179799224285842,,
53.22265625,0.453509272983726,0.0180807191518473,,
53.466796875,0.454022491315548,0.0182165523976425,,
53.7109375,0.455143640867556,0.0183428578870819,,
53.955078125,0.456346380437852,0.0184488481716527,,
54.19921875,0.456741778218789,0.018551844018512,,
54.443359375,0.457439002011436,0.0186955983793955,,
54.6875,0.457988450875855,0.0187937049126288,,
54.931640625,0.458513080399046,0.0188758624621133,,
55.17578125,0.458671695959076,0.0189936116527076,,
55.419921875,0.458970669172945,0.0190542476819529,,
55.6640625,0.459379760383524,0.0191235307505799,,
55.908203125,0.459334971457401,0.0192157231358903,,
56.15234375,0.45908848972383,0.0193246117799579,,
56.396484375,0.459130425852111,0.0193668007918553,,
56.640625,0.458746439262543,0.0194699247430012,,
56.884765625,0.458032098682842,0.0194874109781957,,
57.12890625,0.458021543330825,0.0195552635489498,,
57.373046875,0.457623007472262,0.0195963850251211,,
57.6171875,0.456323558055114,0.0196708723304133,,
57.861328125,0.456180062323648,0.0197347376552304,,
58.10546875,0.455144211427124,0.0197522452411394,,
58.349609375,0.453649630637565,0.0197884080138624,,
58.59375,0.452597233513556,0.0198229161062105,,
58.837890625,0.451382512192323,0.0198485956781029,,
59.08203125,0.450041411926678,0.0198339757763333,,
59.326171875,0.44854283722014,0.019879383408445,,
59.5703125,0.447156377468802,0.0199006487201099,,
59.814453125,0.445114344773314,0.019915599557955,,
60.05859375,0.443475982972506,0.0199158771172434,,
60.302734375,0.441639637001444,0.0199031040522804,,
60.546875,0.439660936418054,0.0199073368314342,,
60.791015625,0.437341326492514,0.0199041769256851,,
61.03515625,0.435386304131215,0.0198704374590601,,
61.279296875,0.43323244176031,0.0198475761814843,,
61.5234375,0.43084122660893,0.0198264389741065,,
61.767578125,0.427982437891203,0.0197710765713484,,
62.01171875,0.425583520185649,0.0197668864936236,,
62.255859375,0.42272929594447,0.0197332431052137,,
62.5,0.419938689095173,0.0196631060080055,,
62.744140625,0.417117557308964,0.0196307810262177,,
62.98828125,0.414073622011275,0.0195626081947458,,
63.232421875,0.411068199484457,0.0195201843249886,,
63.4765625,0.407727573211173,0.0194511361142213,,
63.720703125,0.404526734032159,0.0194070255380168,,
63.96484375,0.401413761026688,0.0193223272535037,,
64.208984375,0.397755047793992,0.019232654252507,,
64.453125,0.394143405725694,0.0191654849046179,,
64.697265625,0.390516643828831,0.0190609998454208,,
64.94140625,0.386819417825265,0.0189894749517685,,
65.185546875,0.382916505097272,0.0189034902867058,,
65.4296875,0.379071218885693,0.0188287254221251,,
65.673828125,0.37502652210494,0.0186937462049106,,
65.91796875,0.370889679953882,0.0185841423119064,,
66.162109375,0.366823587189312,0.018464455543969,,
66.40625,0.362378072311721,0.0183547769234647,,
66.650390625,0.357884059870812,0.0182550690866421,,
66.89453125,0.353638811401749,0.0180857739335103,,
67.138671875,0.349180173654084,0.0179929036630138,,
67.3828125,0.344521554777677,0.0178824777675008,,
67.626953125,0.339913430423078,0.0177187604885383,,
67.87109375,0.335045130905265,0.0175693695390211,,
68.115234375,0.330057584437645,0.0174366534975459,,
68.359375,0.325069467410458,0.0172999662231694,,
68.603515625,0.320244245140063,0.0171208123776072,,
68.84765625,0.315076687128597,0.0169732789402528,,
69.091796875,0.31003122886478,0.0168024091719254,,
69.3359375,0.304608345446432,0.016621312411341,,
69.580078125,0.299296721143932,0.016454499278773,,
69.82421875,0.294010486742228,0.0163091276012644,,
70.068359375,0.288371931807006,0.0161398537988471,,
70.3125,0.283195209182472,0.0159544014925004,,
70.556640625,0.27751874769592,0.0157660615020143,,
70.80078125,0.27173384423139,0.0155930833506273,,
71.044921875,0.266155198050854,0.0153761173896445,,
71.2890625,0.26030724775401,0.0151754633745571,,
71.533203125,0.254571982971935,0.0149614651628931,,
71.77734375,0.248676105671341,0.0147765039229801,,
72.021484375,0.242635591520144,0.0145815558863491,,
72.265625,0.23651174001198,0.0143709471006157,,
72.509765625,0.23060766091759,0.014154365452494,,
72.75390625,0.22440189845138,0.0139349441593413,,
72.998046875,0.218324868487802,0.0137073028410968,,
73.2421875,0.211925508028023,0.01346232474266,,
73.486328125,0.205594864336268,0.0132682894490745,,
73.73046875,0.199255662250987,0.0130005888527065,,
73.974609375,0.192949552620676,0.0128155048461851,,
74.21875,0.186490247746236,0.0125609189262126,,
74.462890625,0.180184958295305,0.0123091940019866,,
74.70703125,0.173556518168792,0.0120691906200334,,
74.951171875,0.167026463907864,0.0118328008465132,,
75.1953125,0.160514096993558,0.0115596291295486,,
75.439453125,0.153729537505127,0.011331758291123,,
75.68359375,0.147046038380258,0.0110695715167806,,
75.927734375,0.140297745084398,0.0108087084867381,,
76.171875,0.133681785948444,0.0105777204439925,,
76.416015625,0.12675469354782,0.0103061553682955,,
76.66015625,0.120068555584947,0.0100450574803936,,
76.904296875,0.113151947216393,0.0097775116767056,,
77.1484375,0.106367673007747,0.00953571483473281,,
77.392578125,0.0994091641708846,0.00922149636909753,,
77.63671875,0.0925324949721221,0.00895438291737882,,
77.880859375,0.0856144602046469,0.00871650926919898,,
78.125,0.0787040923313727,0.00841881625660479,,
78.369140625,0.0716791133047859,0.00812447530619043,,
78.61328125,0.0646018924177127,0.00784536275291003,,
78.857421875,0.0576966952405276,0.00757111282486189,,
79.1015625,0.0506841972045006,0.00727311556458554,,
79.345703125,0.043648127926302,0.00702531917183125,,
79.58984375,0.0365888440056619,0.00672474381277643,,
79.833984375,0.0295293104652107,0.00642009046724734,,
80.078125,0.0224914225283877,0.00615383104410983,,
80.322265625,0.0154658729422323,0.00583239069928698,,
80.56640625,0.00834728648644639,0.00555060396901252,,
80.810546875,0.00129802301822731,0.00525244124069868,,
81.0546875,-0.00579510221681649,0.00495925856654722,,
81.298828125,-0.0128567040357033,0.00468141104310194,,
81.54296875,-0.0199507564300459,0.00435419533000081,,
81.787109375,-0.0270274067575506,0.00406440208177994,,
82.03125,-0.0340889372564914,0.00373139498736474,,
82.275390625,-0.0410797183689442,0.00344977906280608,,
82.51953125,-0.0482029406212238,0.00315929725404196,,
82.763671875,-0.0551100634369524,0.00283295692023611,,
83.0078125,-0.0622009777536685,0.00253112186902449,,
83.251953125,-0.0692316980359129,0.00221596397195034,,
83.49609375,-0.0761956628486485,0.00191359515287548,,
83.740234375,-0.0831490723093677,0.00159944073938378,,
83.984375,-0.0901118960029663,0.00131342656763334,,
84.228515625,-0.0969811479273389,0.00100544251063894,,
84.47265625,-0.104003095856218,0.000722332036064088,,
84.716796875,-0.11084631600028,0.000386784206620305,,
84.9609375,-0.117590900658946,8.02092967844281E-05,,
85.205078125,-0.124371715850209,-0.000233643537864481,,
85.44921875,-0.13126921047322,-0.000503110905859749,,
85.693359375,-0.137972358243227,-0.000814791305305818,,
85.9375,-0.144693906559317,-0.00113876704747806,,
86.181640625,-0.151451043528489,-0.00144525655445582,,
86.42578125,-0.158129371957268,-0.00173953078388722,,
86.669921875,-0.164727964686357,-0.0020693592906782,,
86.9140625,-0.171171008613096,-0.00236613422254806,,
87.158203125,-0.177841777127593,-0.00264326382821745,,
87.40234375,-0.184170637820696,-0.00299309795451608,,
87.646484375,-0.19069298952745,-0.00327650733909479,,
87.890625,-0.197106079076846,-0.00360900201636172,,
88.134765625,-0.203463539068318,-0.00389031636207759,,
88.37890625,-0.209806093191063,-0.0041754818429256,,
88.623046875,-0.215781706191349,-0.00448931332685998,,
88.8671875,-0.222123689754526,-0.00477144433740628,,
89.111328125,-0.228306558518051,-0.00510370148797401,,
89.35546875,-0.234349354907522,-0.0053898864654407,,
89.599609375,-0.240457195087796,-0.00568915943090964,,
89.84375,-0.246311706819677,-0.00598307336703341,,
90.087890625,-0.252356428847691,-0.0062813668684738,,
90.33203125,-0.258414701665456,-0.00658740534160707,,
90.576171875,-0.263989282609066,-0.00687732669411512,,
90.8203125,-0.269743732456631,-0.00714579057852749,,
91.064453125,-0.275494687626838,-0.00742868754595749,,
91.30859375,-0.281209126984665,-0.00773408816649468,,
91.552734375,-0.286686213562016,-0.00804207222348907,,
91.796875,-0.292126213767417,-0.00829379981655487,,
92.041015625,-0.297472713523538,-0.00859849319467321,,
92.28515625,-0.302857583410638,-0.00887731217562937,,
92.529296875,-0.308086191295928,-0.00914592551504345,,
92.7734375,-0.313267728016821,-0.0094092438772555,,
