Time domain (s),Current (AC) (A),Potential (AC) (V),Frequency (Hz),Column 5
0,-0.21691382821223,-0.00391903405189176,39.811,0.3
0.000239167174273442,-0.227124868388438,-0.00416129570446522,,
0.000478334348546884,-0.23632828730832,-0.00443497937175952,,
0.000717501522820326,-0.245061243919198,-0.00463834847763467,,
0.000956668697093768,-0.252655113386526,-0.00483647364462936,,
0.00119583587136721,-0.259604203860427,-0.0050141640974144,,
0.00143500304564065,-0.265046927449925,-0.00521048926157874,,
0.00167417021991409,-0.269941420808724,-0.0053576720074382,,
0.00191333739418754,-0.273774863883726,-0.00548622264307852,,
0.00215250456846098,-0.276760434908698,-0.00559163205736368,,
0.00239167174273442,-0.278581324851625,-0.0056983004331661,,
0.00263083891700786,-0.279543943806289,-0.00576119518523166,,
0.0028700060912813,-0.279392755794831,-0.00580697820519127,,
0.00310917326555475,-0.27818347581821,-0.00583827536422499,,
0.00334834043982819,-0.27630359879462,-0.00584510991254295,,
0.00358750761410163,-0.273311393964223,-0.00585649258939869,,
0.00382667478837507,-0.269150608449944,-0.0058091930930666,,
0.00406584196264851,-0.264079646902259,-0.00577017569068117,,
0.00430500913692196,-0.258134188436829,-0.00569294204323834,,
0.0045441763111954,-0.251115756767042,-0.00559070604434719,,
0.00478334348546884,-0.243483967033573,-0.00550377527183166,,
0.00502251065974228,-0.234627523031183,-0.00534979699505689,,
0.00526167783401572,-0.225048845874737,-0.0052022383815542,,
0.00550084500828917,-0.214906474549271,-0.00502789822305383,,
0.00574001218256261,-0.20382299931376,-0.00482880672506036,,
0.00597917935683605,-0.192245574512202,-0.00464750456139473,,
0.00621834653110949,-0.179355373404805,-0.00442615623650022,,
0.00645751370538294,-0.16623065831106,-0.00415519858505231,,
0.00669668087965638,-0.15263803581986,-0.00392242596473924,,
0.00693584805392982,-0.138294627917474,-0.00365913653344041,,
0.00717501522820326,-0.123389005005385,-0.00336026323116556,,
0.0074141824024767,-0.108367559436431,-0.0030847704569803,,
0.00765334957675015,-0.0926807611126326,-0.00280098258304795,,
0.00789251675102359,-0.0768203632725638,-0.0024703647221922,,
0.00813168392529703,-0.0606608166662707,-0.00215964053423257,,
0.00837085109957047,-0.0441930222227999,-0.00181664115101965,,
0.00861001827384391,-0.0276083293702322,-0.00147775160085795,,
0.00884918544811735,-0.0109062002324521,-0.00108811861831359,,
0.0090883526223908,0.00586085503476697,-0.000790358612587028,,
0.00932751979666424,0.0225798152126605,-0.000423064393488826,,
0.00956668697093768,0.0391530109632599,-7.51436152546248E-05,,
0.00980585414521112,0.0556016435701169,0.000279675439720961,,
0.0100450213194846,0.0719118627232578,0.000618471348116767,,
0.010284188493758,0.0880154926250461,0.000970260051507132,,
0.0105233556680314,0.103842676614984,0.0012934854151907,,
0.0107625228423049,0.119040366257776,0.001649474992238,,
0.0110016900165783,0.133975751648254,0.00197957782338243,,
0.0112408571908518,0.148481911898582,0.00230596619781975,,
0.0114800243651252,0.162326484526873,0.00262275108894938,,
0.0117191915393987,0.175516663626173,0.00293910158633315,,
0.0119583587136721,0.188202807982261,0.00322584307762597,,
0.0121975258879455,0.200256970314169,0.00351931637141067,,
0.012436693062219,0.211604901306456,0.00381498244320921,,
0.0126758602364924,0.222020872282661,0.00406774758050465,,
0.0129150274107659,0.231629311917497,0.0042886459046918,,
0.0131541945850393,0.240618656143419,0.00453841710664404,,
0.0133933617593128,0.248654883892717,0.00474119574916321,,
0.0136325289335862,0.255642611800912,0.0049532943485322,,
0.0138716961078596,0.261927694210257,0.00512435704523195,,
0.0141108632821331,0.267273107045863,0.00529296424674142,,
0.0143500304564065,0.271616277386299,0.0054501601586332,,
0.01458919763068,0.274922243284056,0.00557214156429175,,
0.0148283648049534,0.277220229341411,0.0056519659672527,,
0.0150675319792268,0.278593964940338,0.00574087362148923,,
0.0153066991535003,0.279175946897284,0.00583573273016924,,
0.0155458663277737,0.278673929189506,0.00584006106067392,,
0.0157850335020472,0.276823456060228,0.00590175017500583,,
0.0160242006763206,0.274342592123611,0.00588455910751495,,
0.0162633678505941,0.27087651843548,0.00583282723427159,,
0.0165025350248675,0.26629130384308,0.0058200633413712,,
0.0167417021991409,0.260881883749732,0.00574734270680466,,
0.0169808693734144,0.254682323642748,0.00565377637472331,,
0.0172200365476878,0.247450220686088,0.00553452878839211,,
0.0174592037219613,0.238910540892704,0.00542551936844671,,
0.0176983708962347,0.229968350472905,0.00529604141920936,,
0.0179375380705082,0.220238888712087,0.00513611168799066,,
0.0181767052447816,0.209447300915241,0.00494680185277518,,
0.018415872419055,0.19819851842024,0.00473963505306774,,
0.0186550395933285,0.18612319962779,0.00452737778292889,,
0.0188942067676019,0.173355096398606,0.00431050605466821,,
0.0191333739418754,0.159954092273544,0.00404141083389442,,
0.0193725411161488,0.146081550087248,0.00379298963406471,,
0.0196117082904222,0.131498832136484,0.00349057875397341,,
0.0198508754646957,0.116479000195877,0.00323004655244308,,
0.0200900426389691,0.101161028006761,0.00291853161179523,,
0.0203292098132426,0.0853784653229027,0.00261631841987642,,
0.020568376987516,0.0694015500693188,0.00229035143338496,,
0.0208075441617895,0.0529834419320152,0.00197773360082953,,
0.0210467113360629,0.0364430566244598,0.00164502440720593,,
0.0212858785103363,0.0197989956956464,0.00128774985704005,,
0.0215250456846098,0.00311999523083178,0.00096489125693866,,
0.0217642128588832,-0.0136110447481552,0.000614911660438811,,
0.0220033800331567,-0.0302582208761374,0.000255358493973734,,
0.0222425472074301,-0.0468010042147076,-7.64025767718834E-05,,
0.0224817143817036,-0.0632860106938736,-0.000442032053368457,,
0.022720881555977,-0.0795386546911538,-0.000784948199456181,,
0.0229600487302504,-0.0954330731955265,-0.00113692678753807,,
0.0231992159045239,-0.111038114349773,-0.00146681632354939,,
0.0234383830787973,-0.126174665407439,-0.00181704693200446,,
0.0236775502530708,-0.140981722521366,-0.00215508330163416,,
0.0239167174273442,-0.155177304138015,-0.00246360170577864,,
0.0241558846016176,-0.168751862956337,-0.00278352359606027,,
0.0243950517758911,-0.181774023004065,-0.00309179228882961,,
0.0246342189501645,-0.194194120386536,-0.00339480663807779,,
0.024873386124438,-0.205982213333321,-0.00368273425840293,,
0.0251125532987114,-0.216711766084849,-0.00394758438579768,,
0.0253517204729849,-0.227012093696226,-0.00416371998573339,,
0.0255908876472583,-0.236403455495458,-0.00440780245041772,,
0.0258300548215317,-0.244831929401967,-0.00462394845499414,,
0.0260692219958052,-0.252562464225636,-0.00485848986421544,,
0.0263083891700786,-0.259261397482829,-0.00500914906062766,,
0.0265475563443521,-0.265003314661562,-0.00520712856265293,,
0.0267867235186255,-0.269837296957369,-0.00536420612175759,,
0.027025890692899,-0.273688445121172,-0.00545457302684316,,
0.0272650578671724,-0.276765455085776,-0.00560796734316282,,
0.0275042250414458,-0.278627582197556,-0.00567721933065712,,
0.0277433922157193,-0.279272137075935,-0.00576225775915695,,
0.0279825593899927,-0.279300420395007,-0.00581379194422782,,
0.0282217265642662,-0.27834519723693,-0.00585988450224617,,
0.0284608937385396,-0.276246897687446,-0.00586585676597151,,
0.028700060912813,-0.273287189539027,-0.00585058275351757,,
0.0289392280870865,-0.269234651592987,-0.00581867172068629,,
0.0291783952613599,-0.264266648498407,-0.00576710502111322,,
0.0294175624356334,-0.258258213704456,-0.00570221257804526,,
0.0296567296099068,-0.251178688272553,-0.00560200548407819,,
0.0298958967841803,-0.243721753099623,-0.00549871861648255,,
0.0301350639584537,-0.234870284451301,-0.00535448948798356,,
0.0303742311327271,-0.225472871545771,-0.00520842914273256,,
0.0306133983070006,-0.215254838980061,-0.0050346599388873,,
0.030852565481274,-0.204027750821718,-0.00484321585176151,,
0.0310917326555475,-0.192368568850608,-0.00464608953026824,,
0.0313308998298209,-0.179762187040144,-0.00441367196831655,,
0.0315700670040944,-0.166568265219541,-0.00415791419625844,,
0.0318092341783678,-0.152948704099557,-0.00393302829354747,,
0.0320484013526412,-0.138701262260774,-0.00366670070718289,,
0.0322875685269147,-0.123870762712814,-0.00339700331783188,,
0.0325267357011881,-0.108541831297846,-0.00307561307264015,,
0.0327659028754616,-0.0931564677137621,-0.00278510640201723,,
0.033005070049735,-0.077244613058646,-0.0024599184629932,,
0.0332442372240084,-0.0610195800352936,-0.00214840352234535,,
0.0334834043982819,-0.0446412523190305,-0.00181298912215633,,
0.0337225715725553,-0.0280167566339175,-0.00148838514358829,,
0.0339617387468288,-0.0113161066554549,-0.00114735223745566,,
0.0342009059211022,0.0054687209350797,-0.000811199107781491,,
0.0344400730953757,0.022154534497357,-0.000457306065822394,,
0.0346792402696491,0.0387591287661974,-9.15218201962276E-05,,
0.0349184074439225,0.055230150466361,0.000258325117135527,,
0.035157574618196,0.0715654480933861,0.00059019153486739,,
0.0353967417924694,0.0876300371537927,0.000987690425732879,,
0.0356359089667429,0.103270376428117,0.00129849785081726,,
0.0358750761410163,0.118631580410014,0.00162175963074329,,
0.0361142433152898,0.133613200734918,0.00198791974401225,,
0.0363534104895632,0.147963220031224,0.00226508896591993,,
0.0365925776638366,0.161956963635541,0.00262836699373281,,
0.0368317448381101,0.175273341918434,0.00290796049690867,,
0.0370709120123835,0.187874882843859,0.00323548817949559,,
0.037310079186657,0.199941595618461,0.00351008745516612,,
0.0375492463609304,0.211138024838223,0.00380161247999178,,
0.0377884135352038,0.221720558118187,0.00404497182215202,,
0.0380275807094773,0.23161227917384,0.00429571065568357,,
0.0382667478837507,0.240492613840359,0.0045296381911073,,
0.0385059150580242,0.248236416274876,0.00473538995968825,,
0.0387450822322976,0.255355923831363,0.00496177413065046,,
0.0389842494065711,0.261689773675177,0.00513363538351896,,
0.0392234165808445,0.267057239431519,0.00527057085893201,,
0.0394625837551179,0.271565717031444,0.00544759021239605,,
0.0397017509293914,0.274768052130953,0.00556099819417044,,
0.0399409181036648,0.277621843507634,0.00566102840924687,,
0.0401800852779383,0.278578545825028,0.00574802160960619,,
0.0404192524522117,0.279104947250041,0.00580620175888358,,
0.0406584196264852,0.278501270956438,0.00585369113990719,,
0.0408975868007586,0.277045419603881,0.00584038360453354,,
0.041136753975032,0.274583022747229,0.00584683448172818,,
0.0413759211493055,0.270938015604683,0.00583811279171487,,
0.0416150883235789,0.266619228981482,0.00579876504198884,,
0.0418542554978524,0.261228634552175,0.00575370254339358,,
0.0420934226721258,0.254840997096814,0.00565451510420845,,
0.0423325898463992,0.247399481039195,0.00558308724624101,,
0.0425717570206727,0.239375265856476,0.00545365351672666,,
0.0428109241949461,0.230282290832305,0.00529920703112285,,
0.0430500913692196,0.220464796680587,0.00511223303773045,,
0.043289258543493,0.209998982517682,0.00496247124157323,,
0.0435284257177665,0.198604614887425,0.00475321310909793,,
0.0437675928920399,0.186451841934346,0.00457508566140641,,
0.0440067600663133,0.173894048266313,0.00432157659230548,,
0.0442459272405868,0.1602780729871,0.0040714074128485,,
0.0444850944148602,0.146316064073596,0.00377035954068061,,
0.0447242615891337,0.131973059578296,0.00351866087905028,,
0.0449634287634071,0.116915060844994,0.00325536104311075,,
0.0452025959376805,0.101502019052468,0.00294250390382089,,
0.045441763111954,0.0858708012606023,0.00261828489695626,,
0.0456809302862274,0.0697563914249997,0.00230597660246001,,
0.0459200974605009,0.0534167907890508,0.00197840990247089,,
0.0461592646347743,0.0368659841317581,0.00165660477223417,,
0.0463984318090478,0.0202276829596813,0.00132988865161687,,
0.0466375989833212,0.0034991978922428,0.000967984036367664,,
0.0468767661575946,-0.0132296457592726,0.000627190436969904,,
0.0471159333318681,-0.0298718913561964,0.000267647675145533,,
0.0473551005061415,-0.0463372205341379,-0.00010310088464438,,
0.047594267680415,-0.0628234372345637,-0.000426674803789329,,
0.0478334348546884,-0.079092710568414,-0.000784355134940018,,
0.0480726020289619,-0.0950414993834595,-0.00112273485771031,,
0.0483117692032353,-0.110653353635168,-0.00147691922960735,,
0.0485509363775087,-0.125857677083385,-0.00180962972381105,,
0.0487901035517822,-0.140489879636772,-0.00211917818737861,,
0.0490292707260556,-0.154721005900053,-0.00245747467302371,,
0.0492684379003291,-0.168262933567369,-0.00277014322820213,,
0.0495076050746025,-0.181429602998121,-0.0030998558853228,,
0.0497467722488759,-0.193684751705179,-0.00339584710214114,,
0.0499859394231494,-0.205379074915834,-0.00367670997147496,,
0.0502251065974228,-0.216513648382315,-0.00392434041861645,,
0.0504642737716963,-0.226595598290809,-0.00420682771246916,,
0.0507034409459697,-0.236062083454169,-0.00443394931233643,,
0.0509426081202432,-0.244420230058579,-0.00464145946518491,,
0.0511817752945166,-0.252254619795544,-0.00487090260049428,,
0.05142094246879,-0.258952611769536,-0.00506340796096527,,
0.0516601096430635,-0.264836438596735,-0.00520710775337196,,
0.0518992768173369,-0.270032859748355,-0.0053553218592346,,
0.0521384439916104,-0.273694541050481,-0.00549855344281269,,
0.0523776111658838,-0.276640443711937,-0.00561750839862585,,
0.0526167783401572,-0.278462274938066,-0.00569091313831427,,
0.0528559455144307,-0.279547350355021,-0.00579382543884721,,
0.0530951126887041,-0.279450532654235,-0.00583706712533116,,
0.0533342798629776,-0.278218796349793,-0.0058629135532513,,
0.053573447037251,-0.276392886229789,-0.00587173538793095,,
0.0538126142115245,-0.273415383346549,-0.00583682911917638,,
0.0540517813857979,-0.26911900822816,-0.00580945450966253,,
0.0542909485600713,-0.264376195933926,-0.00577703364944027,,
0.0545301157343448,-0.258462068752222,-0.0057067490013627,,
0.0547692829086182,-0.251630683501591,-0.00558673147162425,,
0.0550084500828917,-0.24392901469612,-0.00550086197245347,,
0.0552476172571651,-0.235161140960745,-0.00535323052646675,,
0.0554867844314386,-0.225510522873854,-0.00520826266848262,,
0.055725951605712,-0.215341257742615,-0.00504940331466885,,
0.0559651187799854,-0.204385259146471,-0.00485512916529007,,
0.0562042859542589,-0.192537820534945,-0.0046471612082537,,
0.0564434531285323,-0.180226553419839,-0.00440779204577701,,
0.0566826203028058,-0.166993187350767,-0.00418765065919668,,
0.0569217874770792,-0.153208677555371,-0.00394337050633986,,
0.0571609546513526,-0.138945278725162,-0.0036553180303267,,
0.0574001218256261,-0.12433261900397,-0.00339339160695129,,
0.0576392889998995,-0.109147300511834,-0.00308127449772666,,
0.057878456174173,-0.0935784763493631,-0.00280054558814102,,
0.0581176233484464,-0.0776385176672134,-0.00248795896950771,,
0.0583567905227199,-0.061461759025225,-0.00218369606338342,,
0.0585959576969933,-0.0450204549804415,-0.00181188623024919,,
0.0588351248712667,-0.0284839916862282,-0.00146439204228122,,
0.0590742920455402,-0.0117532206452989,-0.00112058109709867,,
0.0593134592198136,0.00496544818303207,-0.000783283456954553,,
0.0595526263940871,0.0217030771444336,-0.000464599718908332,,
0.0597917935683605,0.0383811811490558,-9.30187878678268E-05,,
0.060030960742634,0.054736559484392,0.000253278866426676,,
0.0602701279169074,0.0710768772884948,0.000599222762939888,,
0.0605092950911808,0.0872144157970629,0.000959574485573711,,
0.0607484622654543,0.102913764563556,0.00130665769023608,,
0.0609876294397277,0.118357980759275,0.00162862669356301,,
0.0612267966140012,0.133188099311653,0.00198148967609946,,
0.0614659637882746,0.147621153233285,0.00230476186066575,,
0.061705130962548,0.161562700442896,0.00262802624175196,,
0.0619442981368215,0.174887124456017,0.00291558709849538,,
0.0621834653110949,0.18760002814885,0.00323323817595833,,
0.0624226324853684,0.199697579154073,0.00353750368324279,,
0.0626617996596418,0.211024532977857,0.00379830640542966,,
0.0629009668339153,0.221341893332891,0.00405184928961244,,
0.0631401340081887,0.23113661739572,0.00429364013219713,,
0.0633793011824621,0.240244115075009,0.00452721390983912,,
0.0636184683567356,0.248167388840057,0.00471761103000112,,
0.063857635531009,0.255429433567145,0.00494809202821411,,
0.0640968027052825,0.261717563941144,0.00510759516916703,,
0.0643359698795559,0.267100986688911,0.00526215610581771,,
0.0645751370538293,0.271339988354982,0.00541177483816613,,
0.0648143042281028,0.27475173655545,0.00555782477877642,,
0.0650534714023762,0.277179350756635,0.00565047810364172,,
0.0652926385766497,0.278643628835001,0.00575224589370427,,
0.0655318057509231,0.279173974684861,0.00579363555415524,,
0.0657709729251966,0.278737936447248,0.00583811279171487,,
0.06601014009947,0.277133093410704,0.00589018801809882,,
0.0662493072737435,0.274568858676188,0.00586632237363949,,
0.0664884744480169,0.27118328711334,0.00585101714726388,,
0.0667276416222903,0.266678574646223,0.00578410490333248,,
0.0669668087965638,0.261393045351473,0.00571077299612854,,
0.0672059759708372,0.254716209838023,0.0056509983356734,,
0.0674451431451107,0.247763085293257,0.00555347563899034,,
0.0676843103193841,0.239557247275545,0.00544635986364073,,
0.0679234774936575,0.230663465706139,0.00530558247467283,,
0.068162644667931,0.220875375448734,0.00512346224613713,,
0.0684018118422044,0.210082891191696,0.00497067009839469,,
0.0686409790164779,0.198813131528191,0.00475978884198014,,
0.0688801461907513,0.186778512028479,0.0045189110066115,,
0.0691193133650247,0.174174281722477,0.00429481585658875,,
0.0693584805392982,0.160780269986916,0.00406676694312491,,
0.0695976477135716,0.146751205851016,0.00378889020565376,,
0.0698368148878451,0.132288972150119,0.00351667359268903,,
0.0700759820621185,0.117336935011567,0.00328256917837466,,
0.070315149236392,0.101962082423239,0.00293996517150585,,
0.0705543164106654,0.0861024465743343,0.00264269678504903,,
0.0707934835849388,0.0701126447054837,0.00230883007515459,,
0.0710326507592123,0.0538097989374257,0.00198030354706669,,
0.0712718179334857,0.037282300245137,0.00165561633137346,,
0.0715109851077592,0.020647226329753,0.00131442735563114,,
0.0717501522820326,0.00396876374105389,0.000973103119561003,,
0.0719893194563061,-0.0128014963713533,0.000637593777025991,,
0.0722284866305795,-0.0294326258618904,0.00029170320429639,,
0.0724676538048529,-0.0459183943322201,-6.37817476802915E-05,,
0.0727068209791264,-0.0623850682004503,-0.000431242441028878,,
0.0729459881533998,-0.0787083532608964,-0.000792907749542771,,
0.0731851553276733,-0.0945453983129516,-0.00112820769868494,,
0.0734243225019467,-0.110310188673494,-0.00144487293644779,,
0.0736634896762201,-0.125354718092404,-0.00182108393257119,,
0.0739026568504936,-0.140225289410967,-0.0021689214736802,,
0.074141824024767,-0.15444543403689,-0.00245555891856686,,
0.0743809911990405,-0.167994219624679,-0.00279491667755716,,
0.0746201583733139,-0.181063309363482,-0.00306011145867258,,
0.0748593255475874,-0.193587934004394,-0.00336193707772781,,
0.0750984927218608,-0.205346802348905,-0.00364243708521927,,
0.0753376598961342,-0.216177296518104,-0.00387703051764365,,
0.0755768270704077,-0.226531411741029,-0.00416245061957587,,
0.0758159942446811,-0.235663113845514,-0.00439093522736655,,
0.0760551614189546,-0.244405035058317,-0.00462174137059934,,
0.076294328593228,-0.252037990190036,-0.00483093837581094,,
0.0765334957675015,-0.258958349114768,-0.00504327498133428,,
0.0767726629417749,-0.264615505982303,-0.00519327998596619,,
0.0770118301160483,-0.269412509295172,-0.00535719469454898,,
0.0772509972903218,-0.273773788131495,-0.00548381917109175,,
0.0774901644645952,-0.276511756851309,-0.00559794767423005,,
0.0777293316388687,-0.278486479363262,-0.00568563798551169,,
0.0779684988131421,-0.279314449997019,-0.00574985412693829,,
0.0782076659874155,-0.279494997079781,-0.00581310523794576,,
0.078446833161689,-0.278498088522755,-0.00585904172635487,,
0.0786860003359624,-0.276616597870817,-0.00586161297317211,,
