Time domain (s),Current (AC) (A),Potential (AC) (V),Frequency (Hz),Column 5
0,0.0465061584574072,0.000601308238252773,0.79433,0.3
0.00307354153815165,0.0508525560545353,0.000747000945948262,,
0.0061470830763033,0.0551654036289605,0.000873272161705962,,
0.00922062461445495,0.0594770409821259,0.00102169434230293,,
0.0122941661526066,0.0636731918509976,0.00118468106594527,,
0.0153677076907583,0.0679100644241117,0.00129681323385622,,
0.0184412492289099,0.0721542431477945,0.00144909954121664,,
0.0215147907670615,0.0763647373797455,0.00159008343538503,,
0.0245883323052132,0.0805775848197017,0.00171998869531764,,
0.0276618738433649,0.0848144125698062,0.00185739527800433,,
0.0307354153815165,0.0888658523521098,0.00195869465334964,,
0.0338089569196681,0.0930209677556716,0.00210770937540783,,
0.0368824984578198,0.0971843305930039,0.00222000858958182,,
0.0399560399959715,0.101244376393155,0.00237923519639782,,
0.0430295815341231,0.105280598763692,0.00250472791353396,,
0.0461031230722748,0.109381926555706,0.00263620908160789,,
0.0491766646104264,0.113434061094659,0.00277602050011883,,
0.052250206148578,0.117427634371539,0.00289459498051325,,
0.0553237476867297,0.121400566652488,0.00303148151351307,,
0.0583972892248813,0.125242234749755,0.00315284535131788,,
0.061470830763033,0.129166242715701,0.00328392308690795,,
0.0645443723011846,0.133095607031296,0.00343563576370487,,
0.0676179138393363,0.136926181433682,0.00354077720309931,,
0.0706914553774879,0.140847836191622,0.00366315907756354,,
0.0737649969156396,0.144427581032157,0.00377373740004705,,
0.0768385384537913,0.148248809837037,0.00393227691091358,,
0.0799120799919429,0.151927904878402,0.00408724226211454,,
0.0829856215300945,0.155624010251919,0.0041793383339126,,
0.0860591630682462,0.159225270137073,0.00429311890173967,,
0.0891327046063978,0.162867587899042,0.00443715690588675,,
0.0922062461445495,0.166234154505811,0.00453148446361329,,
0.0952797876827012,0.169998211561916,0.00467898631385566,,
0.0983533292208528,0.17329395781348,0.00476280256427719,,
0.101426870759004,0.176857924954628,0.00488959698153835,,
0.104500412297156,0.180181640764196,0.00485695362029226,,
0.107573953835308,0.183496571263879,0.00509664294500478,,
0.110647495373459,0.186935392562159,0.00520778544260248,,
0.113721036911611,0.189970627481794,0.00532293074688051,,
0.116794578449763,0.193193939749807,0.00544026341165882,,
0.119868119987914,0.196584531489733,0.0055384424888838,,
0.122941661526066,0.199468264636842,0.00565435368451839,,
0.126015203064218,0.202784270888755,0.00574606838654645,,
0.129088744602369,0.205539093060188,0.00588587034960852,,
0.132162286140521,0.208652320016567,0.0059700616661682,,
0.135235827678673,0.211658868210042,0.00607370599282797,,
0.138309369216824,0.214550848790922,0.0061679295406174,,
0.141382910754976,0.2172551106075,0.0062847390038927,,
0.144456452293128,0.219960089592232,0.00637919578608726,,
0.147529993831279,0.222938488935664,0.00646567847308477,,
0.150603535369431,0.225474216236059,0.00659697368399792,,
0.153677076907583,0.228207344070835,0.00664475206703674,,
0.156750618445734,0.230472340393107,0.00673804582902227,,
0.159824159983886,0.233326311061826,0.00683294071368001,,
0.162897701522037,0.2356481429603,0.00693142551708448,,
0.165971243060189,0.238252359819399,0.00702490838804692,,
0.169044784598341,0.24070059260501,0.00707978781317209,,
0.172118326136492,0.242772670693865,0.00720523640488002,,
0.175191867674644,0.244993381882629,0.00728380172937371,,
0.178265409212796,0.247078368998255,0.0073398032010954,,
0.181338950750947,0.249355557179145,0.00741678631381504,,
0.184412492289099,0.251282767300897,0.00748928754377998,,
0.187486033827251,0.253493976011622,0.00756697351153068,,
0.190559575365402,0.255265739936002,0.00764382739978275,,
0.193633116903554,0.257055970940346,0.0077196979213543,,
0.196706658441706,0.259220384429024,0.00777878817303357,,
0.199780199979857,0.260827020385953,0.00787223007038484,,
0.202853741518009,0.262331101296864,0.00792479291054127,,
0.205927283056161,0.264119001504708,0.00800520519937731,,
0.209000824594312,0.265823889498731,0.00804040153181296,,
0.212074366132464,0.267059390935981,0.0081172207500857,,
0.215147907670616,0.268721069548726,0.00815635054924302,,
0.218221449208767,0.270067552757803,0.00821458350689319,,
0.221294990746919,0.271440750480615,0.00827565309919853,,
0.22436853228507,0.27276840802565,0.00835717167554995,,
0.227442073823222,0.273938109284773,0.00837799887754986,,
0.230515615361374,0.2750882677117,0.00841401783403528,,
0.233589156899525,0.275940084186577,0.00846111857657306,,
0.236662698437677,0.277038247922341,0.00851399344654169,,
0.239736239975829,0.277979710416464,0.00856854508277305,,
0.24280978151398,0.278581773081721,0.00858277868510848,,
0.245883323052132,0.279518573982843,0.00862036094247065,,
0.248956864590284,0.28042740532596,0.00867810221678056,,
0.252030406128435,0.280974604627438,0.00870424968466699,,
0.255103947666587,0.281801140924887,0.00873661253426405,,
0.258177489204739,0.282320729252437,0.00875887696448929,,
0.26125103074289,0.282882451209033,0.00877529162369273,,
0.264324572281042,0.283112124310342,0.00882913725307644,,
0.267398113819194,0.283492761308061,0.00883511624856581,,
0.270471655357345,0.283796302729228,0.00888052761757585,,
0.273545196895497,0.283952466094755,0.00888828108563278,,
0.276618738433648,0.284125841495977,0.00888570605172934,,
0.2796922799718,0.284184828576641,0.00890383529899097,,
0.282765821509952,0.28406362715862,0.00891527008846671,,
0.285839363048103,0.284186262912949,0.00892225766516663,,
0.288912904586255,0.284100382026511,0.00894964064503601,,
0.291986446124407,0.284165285744445,0.0089378497003203,,
0.295059987662558,0.283634760602547,0.00894908277355366,,
0.29813352920071,0.283432339891089,0.00898948905830599,,
0.301207070738862,0.282649371558994,0.00896355591392695,,
0.304280612277013,0.282643096337646,0.00897428469655503,,
0.307354153815165,0.282059142168277,0.00895488211551498,,
0.310427695353317,0.281308267111072,0.00896286251434431,,
0.313501236891468,0.280678952055964,0.00892138461205638,,
0.31657477842962,0.280268731871894,0.00895604513572357,,
0.319648319967772,0.279248560172873,0.00889935026441968,,
0.322721861505923,0.27856527821418,0.00891318988971967,,
0.325795403044075,0.277729598022767,0.00888175052229379,,
0.328868944582227,0.276470430036437,0.00887312400112616,,
0.331942486120378,0.275590644003555,0.00886680776129456,,
0.33501602765853,0.274315877609876,0.00884749343111046,,
0.338089569196681,0.273251600069386,0.00882197947829733,,
0.341163110734833,0.272205072440707,0.00879619446928359,,
0.344236652272985,0.270725375247031,0.00875698587471918,,
0.347310193811136,0.269539716996482,0.00875121174728832,,
0.350383735349288,0.268035098209455,0.00870031306612917,,
0.35345727688744,0.266271761010884,0.00867319799064381,,
0.356530818425591,0.264854636738642,0.00863455672301061,,
0.359604359963743,0.26341492166955,0.00861588221153209,,
0.362677901501895,0.261803265535543,0.00853159318866759,,
0.365751443040046,0.259679013463487,0.00848221053114084,,
0.368824984578198,0.25821258388066,0.0084599334936506,,
0.37189852611635,0.256259914289441,0.00840229307746165,,
0.374972067654501,0.254320870893148,0.00836360138076797,,
0.378045609192653,0.252347224133426,0.00830884802829424,,
0.381119150730805,0.250393299497937,0.00827393851114033,,
0.384192692268956,0.248084018042158,0.0082012828421778,,
0.387266233807108,0.245890738535283,0.00815094518431714,,
0.39033977534526,0.243946137085796,0.00809520531334673,,
0.393413316883411,0.241323811730809,0.00805769869957551,,
0.396486858421563,0.239314665147465,0.00796971259621104,,
0.399560399959714,0.236945858734906,0.00791513574544922,,
0.402633941497866,0.234398836036086,0.00784491012684096,,
0.405707483036018,0.231887851037003,0.00776911840067651,,
0.408781024574169,0.229472787278513,0.00771794551150107,,
0.411854566112321,0.227069377502525,0.00762259676529853,,
0.414928107650473,0.224300929136166,0.00756504459996554,,
0.418001649188624,0.221650275639098,0.00746897723965034,,
0.421075190726776,0.218750047624448,0.00743873241059578,,
0.424148732264928,0.215913109699386,0.00732193870640163,,
0.427222273803079,0.213186794962073,0.00726333068261376,,
0.430295815341231,0.210168772078134,0.00718759884095865,,
0.433369356879383,0.207188759106355,0.00711272114151607,,
0.436442898417534,0.204284586666858,0.00701319939055445,,
0.439516439955686,0.20118910962229,0.00690213884017998,,
0.442589981493838,0.198039665674136,0.00685586072169242,,
0.445663523031989,0.194854004734206,0.00673842404697655,,
0.448737064570141,0.191750459547906,0.00661815073760552,,
0.451810606108293,0.188639742680066,0.00656377560308608,,
0.454884147646444,0.185182297421287,0.00647867656343681,,
0.457957689184596,0.18194946026373,0.00637833534024157,,
0.461031230722747,0.178508465049482,0.00624120611738777,,
0.464104772260899,0.175016797422856,0.00618067863748317,,
0.467178313799051,0.171649491236429,0.00608381701946481,,
0.470251855337202,0.168086084382901,0.00595629453264257,,
0.473325396875354,0.16465512952281,0.00587941542986048,,
0.476398938413506,0.160998983862372,0.00575015314044958,,
0.479472479951657,0.157427150283035,0.00567444651332449,,
0.482546021489809,0.153747360485021,0.0055531520154779,,
0.485619563027961,0.150116001948904,0.00544061641508264,,
0.488693104566112,0.146322160002905,0.00535272171439027,,
0.491766646104264,0.142684840006508,0.00521505037913572,,
0.494840187642416,0.138845525117246,0.00509577304371023,,
0.497913729180567,0.135050428126976,0.00501110265107574,,
0.500987270718719,0.131038029186054,0.00487883983256321,,
0.504060812256871,0.12728636569211,0.00477103510840937,,
0.507134353795022,0.123258390755344,0.00466574868546576,,
0.510207895333174,0.119284382722164,0.00452476479129738,,
0.513281436871326,0.11534175079572,0.00442910086346648,,
0.516354978409477,0.111390692143468,0.0042667571103463,,
0.519428519947629,0.107422040459938,0.00418474685065462,,
0.52250206148578,0.103294222269237,0.00401734758421579,,
0.525575603023932,0.0992502903410448,0.00389533762407313,,
0.528649144562084,0.09507117221583,0.00376673721608167,,
0.531722686100235,0.090920718405269,0.00364717306537488,,
0.534796227638387,0.0868056299493007,0.00352401269228864,,
0.537869769176539,0.0826849610286343,0.00341454380913664,,
0.54094331071469,0.0784204998930971,0.00329775010494293,,
0.544016852252842,0.0742397681395358,0.00312935486455856,,
0.547090393790994,0.0700131376241205,0.00302433319418283,,
0.550163935329145,0.0657961888787838,0.00288601888840612,,
0.553237476867297,0.0615073440260117,0.00277684312416904,,
0.556311018405449,0.0572373248372813,0.00262242934081769,,
0.5593845599436,0.0529635405157425,0.00254522244914179,,
0.562458101481752,0.0486287969011164,0.00239654812324197,,
0.565531643019904,0.044331906318117,0.00225610318965819,,
0.568605184558055,0.0399797489642523,0.00212877611544515,,
0.571678726096207,0.0356478740222421,0.00195944793744118,,
0.574752267634358,0.0313681506519283,0.00186495963708433,,
0.57782580917251,0.0270076113952641,0.00171533661448331,,
0.580899350710662,0.0226490219395185,0.00154884507113406,,
0.583972892248813,0.0182809300057329,0.00145021843599702,,
0.587046433786965,0.0139296915235655,0.00126901106242139,,
0.590119975325117,0.00952683934581714,0.00116306275805789,,
0.593193516863268,0.00515962146071913,0.00101628897737704,,
0.59626705840142,0.000758360499812416,0.000893582465835596,,
0.599340599939572,-0.00359516395584575,0.000751561624110053,,
0.602414141477723,-0.00800220708499384,0.000600328023388386,,
0.605487683015875,-0.012324220964887,0.000485948610467357,,
0.608561224554027,-0.0166779247125837,0.000337598921645199,,
0.611634766092178,-0.0210817405850389,0.000195820769773203,,
0.61470830763033,-0.0253942071638823,7.07204537646611E-05,,
0.617781849168482,-0.0297566065754459,-5.91107384853018E-05,,
0.620855390706633,-0.0340976254114192,-0.000206905707641702,,
0.623928932244785,-0.0384694824780132,-0.000337920406906278,,
0.627002473782937,-0.0427794837913274,-0.000473951221785285,,
0.630076015321088,-0.0471083107686832,-0.000606429939713049,,
0.63314955685924,-0.0514243631882965,-0.00076634049066282,,
0.636223098397392,-0.0557234725102723,-0.000863227323211202,,
0.639296639935543,-0.0599579470523717,-0.00101568698046739,,
0.642370181473695,-0.0642518120822215,-0.00117818202076903,,
0.645443723011846,-0.0685256412267699,-0.00129005889156142,,
0.648517264549998,-0.0727436657243376,-0.00146287928200728,,
0.65159080608815,-0.076945553938441,-0.00154886083021566,,
0.654664347626301,-0.0811067428598066,-0.00170169870542569,,
0.657737889164453,-0.0853039694809092,-0.00182487168577694,,
0.660811430702605,-0.089579053669727,-0.0019747972827413,,
0.663884972240756,-0.0936118246685226,-0.00209802069215304,,
0.666958513778908,-0.0977237082793029,-0.00226500549475039,,
0.67003205531706,-0.1018883037494,-0.00239311894712602,,
0.673105596855211,-0.105910541340934,-0.00250106235119674,,
0.676179138393363,-0.110026907252677,-0.00264280583308896,,
0.679252679931515,-0.113999705064597,-0.00274783695891401,,
0.682326221469666,-0.117955380486841,-0.00288668076982601,,
0.685399763007818,-0.121906618431132,-0.00303901435443033,,
0.68847330454597,-0.125883539959937,-0.00317930642492481,,
0.691546846084121,-0.129761940513591,-0.00329812989880507,,
0.694620387622273,-0.133442940532865,-0.00344968340887952,,
0.697693929160425,-0.137491937461144,-0.00354896562180329,,
0.700767470698576,-0.14138795345758,-0.00366289747681225,,
0.703841012236728,-0.145018975821124,-0.00376165018460073,,
0.706914553774879,-0.148692311105752,-0.00392454865738667,,
0.709988095313031,-0.152395946744886,-0.004038808301289,,
0.713061636851183,-0.156265068935548,-0.00418964004543465,,
0.716135178389334,-0.159649744038204,-0.00429427089059153,,
0.719208719927486,-0.163299592065789,-0.00440989054321994,,
0.722282261465638,-0.166818198321199,-0.00453795514244293,,
0.725355803003789,-0.170435953073895,-0.00464950422434152,,
0.728429344541941,-0.173852228398335,-0.00478117450139282,,
0.731502886080093,-0.177434931557505,-0.00486701736968476,,
0.734576427618244,-0.18074609692438,-0.00497876659191743,,
0.737649969156396,-0.184038346981193,-0.00507828991878689,,
0.740723510694548,-0.187485057129167,-0.00521661840773691,,
0.743797052232699,-0.190644855192544,-0.00534514789986185,,
0.746870593770851,-0.194028095958892,-0.00545084721073863,,
0.749944135309003,-0.196985742248869,-0.00560654693513341,,
0.753017676847154,-0.200102868807085,-0.00581117545551058,,
0.756091218385306,-0.203281537357513,-0.00581006601617906,,
0.759164759923458,-0.206282348205757,-0.0058714523660206,,
0.762238301461609,-0.209367426312093,-0.00596386204353871,,
0.765311842999761,-0.212284149194284,-0.00607146505145062,,
0.768385384537913,-0.215153180394236,-0.00616746937544033,,
0.771458926076064,-0.217972547699526,-0.00626539157963801,,
0.774532467614216,-0.220919436467194,-0.00635419715523611,,
0.777606009152367,-0.22362508779707,-0.00645260789095792,,
0.780679550690519,-0.226185736690816,-0.00655811809285778,,
0.783753092228671,-0.228796004656214,-0.00666780129951672,,
0.786826633766822,-0.231518823198776,-0.00675619083536549,,
0.789900175304974,-0.234049844083161,-0.00682583336796139,,
0.792973716843126,-0.236353388193709,-0.00693907182338771,,
0.796047258381277,-0.238697273012918,-0.00700035573920044,,
0.799120799919429,-0.241119508452947,-0.00712948092460275,,
0.802194341457581,-0.243623680354568,-0.00717606319336195,,
0.805267882995732,-0.245648604637299,-0.00727897629864405,,
0.808341424533884,-0.247632112459138,-0.00735872985787678,,
0.811414966072036,-0.249891909312294,-0.0074013802358226,,
0.814488507610187,-0.252312531123977,-0.00748713485325858,,
0.817562049148339,-0.254029610976617,-0.00757354504848173,,
0.820635590686491,-0.255998058267223,-0.00763305291581862,,
0.823709132224642,-0.257973856531407,-0.00768844766290577,,
0.826782673762794,-0.259561666824294,-0.00776749521529085,,
0.829856215300945,-0.261638182391101,-0.00786425597518825,,
0.832929756839097,-0.263019448255645,-0.00789617757050554,,
0.836003298377249,-0.264864632269788,-0.00798567812159412,,
0.8390768399154,-0.266316852958565,-0.00802368902597106,,
0.842150381453552,-0.267732722186538,-0.0081063280730107,,
0.845223922991704,-0.269557377262273,-0.00816950307859354,,
0.848297464529855,-0.270617710377916,-0.00821967999382345,,
0.851371006068007,-0.271922239249986,-0.00826149829227019,,
0.854444547606159,-0.273237704936403,-0.00832102979822924,,
0.85751808914431,-0.274522511684238,-0.0083564940350489,,
0.860591630682462,-0.275617941216416,-0.00844644844768272,,
0.863665172220614,-0.276641609110187,-0.0084753175089296,,
0.866738713758765,-0.277658688021544,-0.00849874180754684,,
0.869812255296917,-0.278747349279268,-0.00856969549571662,,
0.872885796835069,-0.279435113538925,-0.00858995537078577,,
0.87595933837322,-0.280240134791755,-0.00864833803970955,,
0.879032879911372,-0.281162413037758,-0.00870372333134783,,
0.882106421449524,-0.281542870743439,-0.00871376974575089,,
0.885179962987675,-0.282496883680256,-0.00875289324127548,,
0.888253504525827,-0.282783930233882,-0.0087576713947608,,
0.891327046063979,-0.283191640329413,-0.00877718744118727,,
0.89440058760213,-0.28373664330342,-0.00881668600284957,,
0.897474129140282,-0.283963492555122,-0.00884937506543171,,
0.900547670678433,-0.284375684951616,-0.00884762265557848,,
0.903621212216585,-0.284484694511019,-0.00889149593824179,,
0.906694753754737,-0.284311094994749,-0.00891256267827956,,
0.909768295292888,-0.28479141836587,-0.00892054307710888,,
0.91284183683104,-0.284736061948985,-0.00892248459593903,,
0.915915378369192,-0.284601234336039,-0.00892071957882079,,
0.918988919907343,-0.284411184775237,-0.00896783292862358,,
0.922062461445495,-0.284432520527818,-0.00894479945522519,,
0.925136002983647,-0.284109436274455,-0.00897491821162832,,
0.928209544521798,-0.283770932905782,-0.00900100264318882,,
0.93128308605995,-0.283608315026869,-0.00897248500945746,,
0.934356627598102,-0.283034401211656,-0.00897712448302634,,
0.937430169136253,-0.282311854296532,-0.008959373453719,,
0.940503710674405,-0.28189356597073,-0.00897775484628305,,
0.943577252212557,-0.28112888542656,-0.00899434600719839,,
0.946650793750708,-0.280374424528585,-0.00897102256670212,,
0.94972433528886,-0.279415974113815,-0.00893204090291011,,
0.952797876827011,-0.278608397949437,-0.00888883580529853,,
0.955871418365163,-0.277619960941229,-0.00886200912100321,,
0.958944959903315,-0.27664479154387,-0.00888845758734469,,
0.962018501441466,-0.275803149892178,-0.00885513658559756,,
0.965092042979618,-0.274542950976626,-0.00884447083929496,,
0.96816558451777,-0.273462178568595,-0.00881223406234932,,
0.971239126055921,-0.272191491068791,-0.00877366843830707,,
0.974312667594073,-0.270842363302147,-0.00874436915413712,,
0.977386209132225,-0.269491577084147,-0.00872148696792063,,
0.980459750670376,-0.268052041307093,-0.00871389581840232,,
0.983533292208528,-0.266550291192682,-0.00866084602262962,,
0.98660683374668,-0.265122992097255,-0.008634005155161,,
0.989680375284831,-0.263263150958966,-0.00854523740135837,,
0.992753916822983,-0.261623704558993,-0.00852169963735472,,
0.995827458361135,-0.25988797833435,-0.008515673364621,,
0.998900999899286,-0.257942839008748,-0.00845683525824414,,
1.00197454143744,-0.256204064819451,-0.00841257272626983,,
1.00504808297559,-0.254241041113009,-0.00834153078724409,,
1.00812162451374,-0.252398949886531,-0.00829993626775316,,
1.01119516605189,-0.250235746619112,-0.00826383063632008,,
1.01426870759004,-0.248058110342596,-0.00821062797745808,,
1.0173422491282,-0.245833454728984,-0.00815655541730154,,
1.02041579066635,-0.24366030075343,-0.00808384931927852,,
1.0234893322045,-0.241395618192225,-0.00804208144989227,,
1.02656287374265,-0.239068407532596,-0.00796148477980374,,
1.0296364152808,-0.236637386782681,-0.00789970602883461,,
1.03270995681895,-0.233999283728306,-0.00781919760960204,,
1.03578349835711,-0.231537604039808,-0.00778611614589275,,
