Time domain (s),Current (AC) (A),Potential (AC) (V),Frequency (Hz),Column 5
0,-0.174117647849818,-0.00242098484726494,794.33,0.3
3.93413316883411E-05,-0.213817163357907,-0.00308882150531753,,
7.86826633766822E-05,-0.245384798814162,-0.00364287757013848,,
0.000118023995065023,-0.267219610783878,-0.00404086442208618,,
0.000157365326753364,-0.279129980900916,-0.00433179415930107,,
0.000196706658441706,-0.28012357255523,-0.00444023131949844,,
0.000236047990130047,-0.27014220548033,-0.00436849587732802,,
0.000275389321818388,-0.250040923407786,-0.0040965239147952,,
0.000314730653506729,-0.220051775058416,-0.00369655771010713,,
0.00035407198519507,-0.181918420329566,-0.00316211842386682,,
0.000393413316883411,-0.136692855257089,-0.00253136156245404,,
0.000432754648571752,-0.0864237154958075,-0.0017771099455417,,
0.000472095980260093,-0.0328316219161209,-0.000921223071906674,,
0.000511437311948435,0.02111966085118,-6.91123023175422E-05,,
0.000550778643636776,0.0756666862393809,0.000809366816880264,,
0.000590119975325117,0.12752536197942,0.00162287611119982,,
0.000629461307013458,0.173859624194923,0.00241435032843906,,
0.000668802638701799,0.213522362423616,0.00308996159376784,,
0.00070814397039014,0.244795084888057,0.00366097735217785,,
0.000747485302078481,0.266796436750027,0.00408241210128724,,
0.000786826633766822,0.278418101862082,0.00434150481000284,,
0.000826167965455163,0.279374154245837,0.00445367125336515,,
0.000865509297143505,0.269607735913585,0.0043791464572136,,
0.000904850628831846,0.249711877694143,0.00411264434409375,,
0.000944191960520187,0.220158364175299,0.00372605369456069,,
0.000983533292208528,0.182308290867267,0.00317243657549815,,
0.00102287462389687,0.137267934470553,0.00252494827229066,,
0.00106221595558521,0.086914639508704,0.0017646637848725,,
0.00110155728727355,0.0335296282334759,0.000957605237421166,,
0.00114089861896189,-0.0205890236517575,8.25967160209551E-05,,
0.00118023995065023,-0.0755904871230217,-0.000801105272443259,,
0.00121958128233857,-0.127369758901514,-0.00163295313529499,,
0.00125892261402692,-0.173824415720864,-0.00240991287945036,,
0.00129826394571526,-0.213867992650819,-0.00310525095243053,,
0.0013376052774036,-0.245053646419067,-0.00364654832720257,,
0.00137694660909194,-0.267277566935321,-0.00406877434919917,,
0.00141628794078028,-0.279028725722177,-0.00431619344178058,,
0.00145562927246862,-0.2800605514037,-0.00443963201222308,,
0.00149497060415696,-0.270386849466853,-0.00434452358629978,,
0.0015343119358453,-0.249844419333598,-0.00410707265926513,,
0.00157365326753364,-0.220209641698308,-0.00372103449612693,,
0.00161299459922199,-0.181839218071562,-0.00315357595414412,,
0.00165233593091033,-0.136784114904682,-0.00252634938715213,,
0.00169167726259867,-0.0863672385036824,-0.00177798549601471,,
0.00173101859428701,-0.0328210436858499,-0.000916343165593414,,
0.00177035992597535,0.0211368056523608,-7.37733210125491E-05,,
0.00180970125766369,0.0756524773453304,0.00078449205337261,,
0.00184904258935203,0.12747128301831,0.00163782835951976,,
0.00188838392104037,0.173884209615701,0.00240692921881402,,
0.00192772525272871,0.213444235917843,0.00310366840665521,,
0.00196706658441706,0.244661758845933,0.00361872150715303,,
0.0020064079161054,0.266841416640184,0.00410567271492557,,
0.00204574924779374,0.278177133362349,0.00432814915372193,,
0.00208509057948208,0.279424781835206,0.00443734481219016,,
0.00212443191117042,0.269979094548312,0.00435282375796353,,
0.00216377324285876,0.249416807821794,0.00412334525642644,,
0.0022031145745471,0.220270937163968,0.00373408347563764,,
0.00224245590623544,0.182206833984985,0.00319086293318183,,
0.00228179723792378,0.137119122078604,0.00251688103450931,,
0.00232113856961213,0.0868924072959309,0.00175727310882046,,
0.00236047990130047,0.0335270733219274,0.000909840915756632,,
0.00239982123298881,-0.0206333087852651,7.25138393158353E-05,,
0.00243916256467715,-0.0756024996896007,-0.000804595769115402,,
0.00247850389636549,-0.127462452885414,-0.00163572024935688,,
0.00251784522805383,-0.173908727801965,-0.00242688193721596,,
0.00255718655974217,-0.213778525923612,-0.00309363586239764,,
0.00259652789143051,-0.245129576597369,-0.00366259735465757,,
0.00263586922311885,-0.267380256450367,-0.00409301468977041,,
0.0026752105548072,-0.27918775776032,-0.00433479186620156,,
0.00271455188649554,-0.279904836268269,-0.00440892453747521,,
0.00275389321818388,-0.270132927117338,-0.00436930353752363,,
0.00279323454987222,-0.249908874821436,-0.00410994629083117,,
0.00283257588156056,-0.220238821477573,-0.00371349048168934,,
0.0028719172132489,-0.182086192854585,-0.00319063702243172,,
0.00291125854493724,-0.136802313046589,-0.00249646947147486,,
0.00295059987662558,-0.0864193228408644,-0.00174924683930966,,
0.00298994120831392,-0.0328858577577648,-0.000918112994892084,,
0.00302928254000227,0.0211171059396315,-7.1472074715917E-05,,
0.00306862387169061,0.0756896580318127,0.000781494346472122,,
0.00310796520337895,0.127463640695169,0.00163271317827984,,
0.00314730653506729,0.174113344840894,0.00240640716599172,,
0.00318664786675563,0.213711963754322,0.00308773291983622,,
0.00322598919844397,0.245066286507781,0.00364112295762631,,
0.00326533053013231,0.266578036635639,0.00408911919247812,,
0.00330467186182065,0.278315210643493,0.00433825075877925,,
0.00334401319350899,0.279252482186215,0.004428678267133,,
0.00338335452519734,0.269695320074388,0.00434783031101427,,
0.00342269585688568,0.249823352519076,0.00411024711499097,,
0.00346203718857402,0.220163653290435,0.00371483775253756,,
0.00350137852026236,0.182298631508693,0.00316944940329567,,
0.0035407198519507,0.137017866899866,0.00251616701607515,,
0.00358006118363904,0.0868823893532802,0.00173886547948898,,
0.00361940251532738,0.0335236219501864,0.00094483952423996,,
0.00365874384701572,-0.0205972710855281,8.84575197890314E-05,,
0.00369808517870406,-0.0755560630516312,-0.000815136319931131,,
0.00373742651039241,-0.127341923812538,-0.00161521153299438,,
0.00377676784208075,-0.174065563512636,-0.00239237963007,,
0.00381610917376909,-0.213811515658694,-0.00309374940303364,,
0.00385545050545743,-0.245062386905944,-0.0036449505646412,,
0.00389479183714577,-0.267194106491403,-0.00405324035143373,,
0.00393413316883411,-0.278773369036355,-0.00434860402607162,,
0.00397347450052245,-0.280011380562143,-0.00443541813294068,,
0.00401281583221079,-0.270190524684704,-0.00436904719320053,,
0.00405215716389913,-0.25008207093062,-0.00410329772574114,,
0.00409149849558748,-0.220071228244592,-0.00371733330549073,,
0.00413083982727582,-0.18198690988827,-0.00317895638316568,,
0.00417018115896416,-0.136814325613168,-0.00251801527034967,,
0.0042095224906525,-0.0865214744797953,-0.00176398254105559,,
0.00424886382234084,-0.0328640289520784,-0.00095476555099383,,
0.00428820515402918,0.0211194815591415,-9.6804512334181E-05,,
0.00432754648571752,0.0756539340931431,0.000785947012247323,,
0.00436688781740586,0.12734524071525,0.00164636146506636,,
0.00440622914909421,0.174159960770902,0.00242844107255014,,
0.00444557048078255,0.213564787402224,0.00310482020032588,,
0.00448491181247089,0.245061736972304,0.00363427306274833,,
0.00452425314415923,0.26670571497855,0.00409046997489249,,
0.00456359447584757,0.27868293861444,0.00436199362749079,,
0.00460293580753591,0.279401473870202,0.00441763556236907,,
0.00464227713922425,0.269642339277014,0.00435512734530485,,
0.00468161847091259,0.249818982275637,0.00409769209577382,,
0.00472095980260093,0.220124119395947,0.00366492435243915,,
0.00476030113428927,0.182079693518189,0.00316495928081606,,
0.00479964246597762,0.137225688783983,0.00250406615940291,,
0.00483898379766596,0.0869006099066919,0.00176093450170756,,
0.0048783251293543,0.0334953834541239,0.000938703647796135,,
0.00491766646104264,-0.0206127350238481,9.74272300502399E-05,,
0.00495700779273098,-0.0756070716365822,-0.000773888294367975,,
0.00499634912441932,-0.127336455405364,-0.00163074553075981,,
0.00503569045610766,-0.174065384220597,-0.00239734498449096,,
0.005075031787796,-0.213803537162981,-0.00308125993305008,,
0.00511437311948435,-0.245276775360971,-0.00364559786331986,,
0.00515371445117269,-0.267078149365508,-0.00404447899409277,,
0.00519305578286103,-0.279065883997155,-0.00433916727752326,,
0.00523239711454937,-0.279929802684629,-0.00442754169024884,,
0.00527173844623771,-0.269875598219092,-0.00434490400595733,,
0.00531107977792605,-0.249796144952234,-0.00409501160034154,,
0.00535042110961439,-0.220268673601982,-0.00371200625976442,,
0.00538976244130273,-0.181948317276984,-0.00315816205942943,,
0.00542910377299107,-0.136891779773796,-0.00251039634250283,,
0.00546844510467942,-0.0864391794341274,-0.00175757159193646,,
0.00550778643636776,-0.0328627290847993,-0.000933656356833623,,
0.0055471277680561,0.021148078639281,-6.38039849438776E-05,,
0.00558646909974444,0.0756213477651472,0.000800548103960352,,
0.00562581043143278,0.127616980211089,0.00163659228826374,,
0.00566515176312112,0.173971816188009,0.00239961579721548,,
0.00570449309480946,0.21343746764339,0.0030948496937353,,
0.0057438344264978,0.244747012210236,0.00365346025974711,,
0.00578317575818614,0.266580770839226,0.00407889351208679,,
0.00582251708987448,0.278367474272713,0.00433043167166636,,
0.00586185842156283,0.279479241791898,0.00442903176478371,,
0.00590119975325117,0.269771295075699,0.00435504306771906,,
0.00594054108493951,0.249680927405998,0.00410993341508892,,
0.00597988241662785,0.220127212183611,0.00373020904774179,,
0.00601922374831619,0.182296435181222,0.00319605770991949,,
0.00605856508000453,0.137143707499383,0.002524053993465,,
0.00609790641169287,0.0868656255476812,0.0017440017301249,,
0.00613724774338121,0.0334515017277029,0.000943271024729242,,
0.00617658907506956,-0.0206440663075746,8.4538612056928E-05,,
0.0062159304067579,-0.0755713925209223,-0.000803017905428582,,
0.00625527173844624,-0.127395980362143,-0.00164980045876995,,
0.00629461307013458,-0.173936025014825,-0.00240008517654644,,
0.00633395440182292,-0.213654724771033,-0.00307629457862912,,
0.00637329573351126,-0.245449792178116,-0.0036409930296819,,
0.0064126370651996,-0.267371874547568,-0.00407442680004744,,
0.00645197839688794,-0.278834238683423,-0.00433443953907275,,
0.00649131972857628,-0.279975118747358,-0.0044039966397591,,
0.00653066106026463,-0.269930954635977,-0.0043258584421233,,
0.00657000239195297,-0.249930165751007,-0.00410407729340845,,
0.00660934372364131,-0.220149713334442,-0.00372059672089042,,
0.00664868505532965,-0.182013669225015,-0.00314864922694991,,
0.00668802638701799,-0.136870264729177,-0.00251391493170328,,
0.00672736771870633,-0.086423536203769,-0.0017365373111855,,
0.00676670905039467,-0.0328345354117464,-0.000918160986294936,,
0.00680605038208301,0.0211154698997802,-8.25065858252039E-05,,
0.00684539171377135,0.0756851084963359,0.00079852193033858,,
0.00688473304545969,0.127425204964417,0.00165202210956883,,
0.00692407437714804,0.173845796296454,0.00244224152719985,,
0.00696341570883638,0.21355042162764,0.0030822829692978,,
0.00700275704052472,0.244916734536174,0.00363090664141064,,
0.00704209837221306,0.266974025514154,0.00409576775756815,,
0.0070814397039014,0.278341432104122,0.00435481364540236,,
0.00712078103558974,0.279308578182759,0.00444575618344656,,
0.00716012236727808,0.269700609189524,0.00434989511186235,,
0.00719946369896642,0.249860510794053,0.00411764013208726,,
0.00723880503065477,0.220376383294106,0.00369910359550651,,
0.00727814636234311,0.182245426596271,0.00319084420482962,,
0.00731748769403145,0.137254442744656,0.0025118290614583,,
0.00735682902571979,0.086978019244311,0.00177441423332292,,
0.00739617035740813,0.0335241598263019,0.000945363918106068,,
0.00743551168909647,-0.0206797454232345,0.000100577104813926,,
0.00747485302078481,-0.0755748438926632,-0.000789651714449668,,
0.00751419435247315,-0.127415478371329,-0.00165042785857406,,
0.00755353568416149,-0.173922936696015,-0.00241068308294157,,
0.00759287701584983,-0.213735361365345,-0.00309700345425723,,
0.00763221834753818,-0.245211916466046,-0.00366067535749615,,
0.00767155967922652,-0.267179539013275,-0.00408141715756827,,
0.00771090101091486,-0.279045848111853,-0.00434856656936677,,
0.0077502423426032,-0.279964361225049,-0.00444140184152131,,
0.00778958367429154,-0.270201237384004,-0.00436236000088419,,
0.00782892500597988,-0.250042043983026,-0.0040880013439466,,
0.00786826633766822,-0.219979430720884,-0.00370897109615953,,
0.00790760766935656,-0.181810396876374,-0.00317996420262734,,
0.00794694900104491,-0.136902313181058,-0.00252370400738045,,
0.00798629033273325,-0.0863949391236295,-0.00176741685267068,,
0.00802563166442159,-0.0329090312537399,-0.000923097077665247,,
0.00806497299610993,0.0211688541042413,-8.38011831825192E-05,,
0.00810431432779827,0.0756586853321632,0.000762487409864843,,
0.00814365565948661,0.127463640695169,0.00163217005606153,,
0.00818299699117495,0.173861641230356,0.00239861851245182,,
0.00822233832286329,0.213548225300168,0.00309748336828664,,
0.00826167965455163,0.245016196794527,0.00364558498757761,,
0.00830102098623998,0.26671647250086,0.00407493480660515,,
0.00834036231792832,0.278509540801713,0.00433019288517356,,
0.00837970364961666,0.279435718649554,0.00443905845643178,,
0.008419044981305,0.269826292908507,0.0043628598137877,,
0.00845838631299334,0.249716449641125,0.00413096535479562,,
0.00849772764468168,0.220108476165589,0.00372372435573531,,
0.00853706897637002,0.182340697903224,0.00319013018639591,,
0.00857641030805836,0.137226943828253,0.002503715002796,,
0.0086157516397467,0.0869812913240134,0.00175642565087575,,
0.00865509297143504,0.0335105112198717,0.000923997209100857,,
0.00869443430312339,-0.020634384537496,8.95133306539897E-05,,
0.00873377563481173,-0.0755791917245967,-0.000798175455820171,,
0.00877311696650007,-0.127478723637907,-0.00161496455284738,,
0.00881245829818841,-0.173976141608438,-0.00240159749100011,,
0.00885179962987675,-0.213648673664734,-0.00309674710993457,,
0.00889114096156509,-0.245248895448985,-0.00363752126136196,,
0.00893048229325343,-0.267407777778276,-0.00407060153407679,,
0.00896982362494177,-0.279012365323665,-0.00433882548509246,,
0.00900916495663012,-0.279981842198802,-0.00444161955861766,,
0.00904850628831846,-0.270179946454433,-0.00436096122706653,,
0.0090878476200068,-0.249839847386617,-0.00412949517913486,,
0.00912718895169514,-0.220179027582735,-0.00371433793963405,,
0.00916653028338348,-0.181971804534027,-0.00315685692737411,,
0.00920587161507182,-0.136734047602933,-0.00250102631370952,,
0.00924521294676016,-0.086346485450227,-0.00172938425110392,,
0.0092845542784485,-0.0328205058097344,-0.00093346673226602,,
0.00932389561013684,0.0211513731304883,-8.75292958251173E-05,,
0.00936323694182519,0.0756792815050849,0.000775292920795145,,
0.00940257827351353,0.127453241756936,0.00162674585700762,,
0.00944191960520187,0.173922443642909,0.00240882546449095,,
0.00948126093689021,0.213496678839102,0.00307699455079868,,
0.00952060226857855,0.245105439406687,0.00363534760196549,,
0.00955994360026689,0.266904975667829,0.00405017592477774,,
0.00959928493195523,0.27849806611125,0.00434286495659331,,
0.00963862626364357,0.279362858847412,0.00441537177277684,,
0.00967796759533191,0.269813002886154,0.00434797311470092,,
0.00971730892702025,0.249714074021615,0.00411958085760133,,
0.0097566502587086,0.220244693291833,0.0037506931831417,,
0.00979599159039694,0.182276757879997,0.00319090975406278,,
0.00983533292208528,0.137136065176242,0.00252283665056163,,
0.00987467425377362,0.0868372077595801,0.00173473587779238,,
0.00991401558546196,0.0335454955788824,0.000935526851026047,,
0.0099533569171503,-0.0206438870155361,9.33175272281872E-05,,
0.00999269824883864,-0.0755739474324708,-0.000787377390159438,,
0.010032039580527,-0.127353174387953,-0.00163373270296185,,
0.0100713809122153,-0.173957584882454,-0.0024096834571341,,
0.0101107222439037,-0.213788969684854,-0.00308918319662288,,
0.010150063575592,-0.245239437793955,-0.00364592092739802,,
0.0101894049072803,-0.267158965251858,-0.00407539599228235,,
0.0102287462389687,-0.278812544346765,-0.00433466779086711,,
0.010268087570657,-0.280109005077102,-0.00441480406959593,,
0.0103074289023454,-0.270154038754871,-0.0043504019478986,,
0.0103467702340337,-0.249901613493877,-0.00411316171482801,,
0.0103861115657221,-0.220230080990696,-0.00371155912035182,,
0.0104254528974104,-0.181948496569023,-0.00317985066199133,,
0.0104647942290987,-0.136805585126291,-0.00247984922927236,,
0.0105041355607871,-0.086388215672186,-0.00175500229609593,,
0.0105434768924754,-0.0328822270939853,-0.000926331230014732,,
0.0105828182241638,0.0211098222005677,-9.73745565593376E-05,,
0.0106221595558521,0.0756679636951551,0.000788124183209504,,
0.0106615008875404,0.127565097577451,0.0016331884102212,,
0.0107008422192288,0.174081475681052,0.00241800469819431,,
0.0107401835509171,0.213568081893431,0.00305503789869377,,
0.0107795248826055,0.245024556285822,0.00364370981129669,,
0.0108188662142938,0.26662010303017,0.00408320337417489,,
0.0108582075459821,0.278478568102064,0.00434204559117735,,
0.0108975488776705,0.279718394959742,0.0044573022126797,,
0.0109368902093588,0.26952503746083,0.00434182787408099,,
0.0109762315410472,0.249897669069031,0.00412550838112491,,
0.0110155728727355,0.220090995191836,0.00373934146056421,,
0.0110549142044239,0.18217238750209,0.00317767817311676,,
0.0110942555361122,0.137206370066836,0.00252634587558598,,
0.0111335968678005,0.0868608967201659,0.00175993721694434,,
0.0111729381994889,0.0335268940298889,0.000934927543750241,,
0.0112122795311772,-0.0206185620150991,4.94451912893545E-05,,
0.0112516208628656,-0.0756300210175092,-0.000770921021040039,,
0.0112909621945539,-0.127373389565293,-0.00164356040586577,,
0.0113303035262422,-0.173910744837398,-0.00240837949560069,,
0.0113696448579306,-0.213778884507689,-0.0030908394852851,,
0.0114089861896189,-0.245445399523173,-0.00363138538491814,,
0.0114483275213073,-0.267272815696301,-0.0040919483442079,,
0.0114876688529956,-0.27897372788937,-0.00431374939179685,,
0.0115270101846839,-0.279861268302916,-0.00444329457563253,,
0.0115663515163723,-0.27014821176362,-0.00436682203083505,,
0.0116056928480606,-0.249800358315139,-0.00412427230986889,,
0.011645034179749,-0.220080551430594,-0.0036902509374479,,
0.0116843755114373,-0.181897487984072,-0.00315509763277388,,
0.0117237168431257,-0.136758969196283,-0.00251707417064306,,
0.011763058174814,-0.0864575568680729,-0.00176679764652032,,
0.0118023995065023,-0.0328885919613518,-0.000926169697975432,,
0.0118417408381907,0.021087433107261,-9.52921978809584E-05,,
0.011881082169879,0.0756734321023291,0.000792091082344903,,
0.0119204235015674,0.127508441293287,0.00162607163632211,,
0.0119597648332557,0.173994586276898,0.002417482645372,,
0.011999106164944,0.213473191582059,0.00308817069507272,,
0.0120384474966324,0.244811288406036,0.00365829451570177,,
0.0120777888283207,0.266662371128244,0.00405474096066705,,
0.0121171301600091,0.278412835158452,0.00433701468752279,,
0.0121564714916974,0.279531146837042,0.00443434125267927,,
0.0121958128233857,0.269710089256059,0.00434851623691968,,
0.0122351541550741,0.249753607916102,0.0041243355180578,,
0.0122744954867624,0.220059484616071,0.00370949080793714,,
0.0123138368184508,0.182218487967487,0.003172216517358,,
0.0123531781501391,0.137090166414388,0.00251596802733145,,
0.0123925194818275,0.0869373871860877,0.00175383645616112,,
0.0124318608135158,0.0335068581445874,0.000937619744402873,,
0.0124712021452041,-0.0206589923697791,8.41382935248269E-05,,
0.0125105434768925,-0.0756077888047362,-0.000786549831089278,,
0.0125498848085808,-0.127359763370368,-0.00162898623615915,,
0.0125892261402692,-0.173984882095314,-0.00242303911341502,,
0.0126285674719575,-0.213829175924486,-0.00307511352190781,,
0.0126679088036458,-0.245152167394219,-0.00365398816517981,,
0.0127072501353342,-0.267277925519398,-0.00407278923973742,,
0.0127465914670225,-0.278974086473447,-0.00435141913153636,,
0.0127859327987109,-0.280071622687077,-0.00442669423230413,,
