Time domain (s),Current (AC) (A),Potential (AC) (V),Frequency (Hz),Column 5
0,0.453555666608636,0.00926373712072248,50.119,0.5
0.000224076073944013,0.4536720607606,0.0093700754475825,,
0.000448152147888027,0.451895623544226,0.00944392633962954,,
0.00067222822183204,0.448029226628614,0.0094623890626413,,
0.000896304295776053,0.442226065257893,0.00940062963898924,,
0.00112038036972007,0.433390094501068,0.0093620442873168,,
0.00134445644366408,0.422548036301567,0.00922913256074098,,
0.00156853251760809,0.410450747051473,0.00905634334037142,,
0.00179260859155211,0.395571409345609,0.00881775426732956,,
0.00201668466549612,0.378911925786176,0.00856869387332226,,
0.00224076073944013,0.359967636434878,0.0082785582691689,,
0.00246483681338415,0.339935575266328,0.0079252965525809,,
0.00268891288732816,0.318036072630236,0.0075273018696862,,
0.00291298896127217,0.294241171107748,0.00712427280229289,,
0.00313706503521619,0.269166754093034,0.00666993575310348,,
0.0033611411091602,0.242747849115237,0.00617601939676282,,
0.00358521718310421,0.215105129523084,0.0056668160051645,,
0.00380929325704823,0.186247367669941,0.00510016198691243,,
0.00403336933099224,0.156544607095921,0.00453275753227445,,
0.00425744540493625,0.126025946339015,0.00395818168885942,,
0.00448152147888027,0.0948936487662398,0.00333801807742606,,
0.00470559755282428,0.063227592717178,0.00270735332636374,,
0.00492967362676829,0.0312397410715094,0.0020652382081896,,
0.00515374970071231,-0.000790046702440277,0.00139990429003944,,
0.00537782577465632,-0.0327950151351624,0.000749539341394101,,
0.00560190184860033,-0.0647178229900274,7.26556605847861E-05,,
0.00582597792254435,-0.0964249593280178,-0.000599019693518166,,
0.00605005399648836,-0.127586141478946,-0.00124109256858418,,
0.00627413007043237,-0.158273616548167,-0.00190000553434411,,
0.00649820614437638,-0.187845718981012,-0.00254472730076039,,
0.0067222822183204,-0.216656053070028,-0.00320664201206489,,
0.00694635829226441,-0.244252735637001,-0.00379132638269519,,
0.00717043436620842,-0.27064446771535,-0.00440926601874514,,
0.00739451044015244,-0.295741172213207,-0.00497558457702318,,
0.00761858651409645,-0.31940341863603,-0.00554838124013202,,
0.00784266258804046,-0.341315687542467,-0.00606317066151929,,
0.00806673866198448,-0.361619620345384,-0.00655249742843811,,
0.00829081473592849,-0.380331977232106,-0.00703515723898551,,
0.0085148908098725,-0.396847679780289,-0.00746413102925425,,
0.00873896688381652,-0.411453719452865,-0.00782865674630173,,
0.00896304295776053,-0.424485014716514,-0.00819820690829243,,
0.00918711903170454,-0.434777909331381,-0.00848484627405055,,
0.00941119510564856,-0.443146591801644,-0.00876468201455838,,
0.00963527117959257,-0.448980563389061,-0.00899384838966455,,
0.00985934725353658,-0.45311540858163,-0.00914848798299861,,
0.0100834233274806,-0.454814534976478,-0.00928642912429467,,
0.0103074994014246,-0.453983800244813,-0.00935244764717202,,
0.0105315754753686,-0.451144981111982,-0.00941323796423266,,
0.0107556515493126,-0.445789209762873,-0.00942246187107232,,
0.0109797276232566,-0.438469429739262,-0.00934765678176586,,
0.0112038036972007,-0.429046638466285,-0.00924366915961272,,
0.0114278797711447,-0.417304237267767,-0.00911662177036021,,
0.0116519558450887,-0.403610237065361,-0.008917214422278,,
0.0118760319190327,-0.387713306369164,-0.00869162628689368,,
0.0121001079929767,-0.370243342942745,-0.00843650027957965,,
0.0123241840669207,-0.350796747211372,-0.0081024691166105,,
0.0125482601408647,-0.329466306424865,-0.00773376878655352,,
0.0127723362148088,-0.306554845074177,-0.00732638867905377,,
0.0129964122887528,-0.282083973102966,-0.00690089621784828,,
0.0132204883626968,-0.256322780667702,-0.006456376963897,,
0.0134445644366408,-0.229125989038267,-0.00591041958359462,,
0.0136686405105848,-0.20098427944353,-0.00540093788446194,,
0.0138927165845288,-0.171684048645053,-0.00481955344601959,,
0.0141167926584728,-0.141544453401437,-0.00429051070307152,,
0.0143408687324168,-0.110903478937045,-0.00366537234446884,,
0.0145649448063609,-0.079389263053137,-0.00303464795607766,,
0.0147890208803049,-0.0475377038243823,-0.00239895130540546,,
0.0150130969542489,-0.0155601222509459,-0.00174989837799178,,
0.0152371730281929,0.0165949033482789,-0.00107818326566989,,
0.0154612491021369,0.0485736260408522,-0.000437501928273409,,
0.0156853251760809,0.0802836151766848,0.000247770736773845,,
0.0159094012500249,0.111881204077532,0.000917319026152885,,
0.016133477323969,0.142616142570854,0.00156623279979939,,
0.016357553397913,0.172640663081508,0.00222405241453272,,
0.016581629471857,0.201993064420526,0.00288934657446394,,
0.016805705545801,0.230244927671947,0.00351013637784847,,
0.017029781619745,0.257276043066692,0.0041338136218978,,
0.017253857693689,0.283096431057183,0.00468357536679376,,
0.017477933767633,0.307152078302454,0.00524917579223816,,
0.017702009841577,0.329808142926313,0.00580163612625828,,
0.0179260859155211,0.351325655931327,0.00632191218188671,,
0.0181501619894651,0.370552657548792,0.00680830926503306,,
0.0183742380634091,0.388030608809169,0.00722756962538851,,
0.0185983141373531,0.403743819324325,0.00763142864560606,,
0.0188223902112971,0.417166518451932,0.00804017792677758,,
0.0190464662852411,0.4288609926467,0.00833755449659135,,
0.0192705423591851,0.438251262024275,0.00863792784217221,,
0.0194946184331292,0.445402655655247,0.00889518339909889,,
0.0197186945070732,0.4505125871503,0.00907556146954658,,
0.0199427705810172,0.453399903846449,0.009246303141631,,
0.0201668466549612,0.454174153180837,0.00935411252259888,,
0.0203909227289052,0.45238601949331,0.00943191438767288,,
0.0206149988028492,0.448530177929715,0.00944187382156647,,
0.0208390748767932,0.442418629112246,0.00940382520585237,,
0.0210631509507372,0.433956945432325,0.00933411413837293,,
0.0212872270246813,0.423365362883374,0.00919761920229778,,
0.0215113030986253,0.41077054568959,0.00906085589824324,,
0.0217353791725693,0.396133981080102,0.00883439308203826,,
0.0219594552465133,0.379563219533563,0.00857840978812385,,
0.0221835313204573,0.361053411293642,0.0082646578018033,,
0.0224076073944013,0.340820513156997,0.00794176142508096,,
0.0226316834683453,0.319091607831871,0.00758000138915227,,
0.0228557595422894,0.295225101083543,0.00714456937316266,,
0.0230798356162334,0.270325310956748,0.00668822453390661,,
0.0233039116901774,0.243762090068106,0.00619894001009547,,
0.0235279877641214,0.216256233452435,0.00566910210276461,,
0.0237520638380654,0.187612431437461,0.00512848971804747,,
0.0239761399120094,0.157773842026177,0.00453396518818039,,
0.0242002159859534,0.12745947725475,0.00395589559125886,,
0.0244242920598974,0.0962880963515354,0.00338876944415478,,
0.0246483681338415,0.0646345926129795,0.00272864385271143,,
0.0248724442077855,0.0327152081155252,0.00209316835713347,,
0.0250965202817295,0.000614385675303251,0.00143254578795071,,
0.0253205963556735,-0.0314256721708786,0.000780014016362962,,
0.0255446724296175,-0.0632355092311902,8.43669410093284E-05,,
0.0257687485035615,-0.0950459168510703,-0.000577229704542326,,
0.0259928245775055,-0.126272642032424,-0.00123121265112891,,
0.0262169006514496,-0.156897712148846,-0.00189193710074775,,
0.0264409767253936,-0.1866432646905,-0.00252794933228451,,
0.0266650527993376,-0.215578337365169,-0.00314145841178926,,
0.0268891288732816,-0.243155834866653,-0.00377997541113162,,
0.0271132049472256,-0.269666528615024,-0.00436360618895515,,
0.0273372810211696,-0.294768011549267,-0.00494715496545162,,
0.0275613570951136,-0.318424552376406,-0.00548870415320701,,
0.0277854331690576,-0.340560837233405,-0.00604023016907718,,
0.0280095092430017,-0.361060186688517,-0.00651987332474757,,
0.0282335853169457,-0.379253619647732,-0.00698794435376016,,
0.0284576613908897,-0.396125137406791,-0.0074414290861271,,
0.0286817374648337,-0.410704860019272,-0.00780416568331299,,
0.0289058135387777,-0.423583530598361,-0.0081755844816036,,
0.0291298896127217,-0.434232454383941,-0.00849446527819264,,
0.0293539656866657,-0.442732294235002,-0.00874740706834309,,
0.0295780417606098,-0.448618258063094,-0.00898933334690399,,
0.0298021178345538,-0.452982254242342,-0.00916681900690941,,
0.0300261939084978,-0.454635379271985,-0.00929348620819148,,
0.0302502699824418,-0.454026877492231,-0.00937986093926702,,
0.0304743460563858,-0.451357229271446,-0.00938194824577199,,
0.0306984221303298,-0.446128336106372,-0.00940131049849136,,
0.0309224982042738,-0.439026866437639,-0.00935328256977375,,
0.0311465742782178,-0.429385622169891,-0.00927647217528982,,
0.0313706503521619,-0.41801059001351,-0.00911187066317343,,
0.0315947264261059,-0.404394756471982,-0.00895031313970973,,
0.0318188025000499,-0.388555808891928,-0.00869834542592818,,
0.0320428785739939,-0.371248454942519,-0.00843753150838866,,
0.0322669546479379,-0.351569284867056,-0.00813254620938775,,
0.0324910307218819,-0.330537532014632,-0.00775507919201113,,
0.0327151067958259,-0.307537705250781,-0.00737103715914467,,
0.0329391828697699,-0.283116614601917,-0.0069131616284519,,
0.033163258943714,-0.25731369999821,-0.00645349449300925,,
0.033387335017658,-0.230295350873808,-0.00592888976127259,,
0.033611411091602,-0.202133671694176,-0.00539453681118074,,
0.033835487165546,-0.172927583224493,-0.00486133933433264,,
0.03405956323949,-0.142916149923941,-0.00428699210067762,,
0.034283639313434,-0.112221756819952,-0.00369811323792835,,
0.034507715387378,-0.0807399915115,-0.00307810120470586,,
0.0347317914613221,-0.0489452029598063,-0.00242465747896592,,
0.0349558675352661,-0.0169075699917904,-0.0017884042132259,,
0.0351799436092101,0.0152369715753642,-0.0011354351012276,,
0.0354040196831541,0.0472157299279105,-0.00047747881761584,,
0.0356280957570981,0.0789191219687329,0.000184356377250339,,
0.0358521718310421,0.110471921943457,0.000884819166897088,,
0.0360762479049861,0.141287844235526,0.00152573408383105,,
0.0363003239789301,0.171615938096569,0.00219217129256233,,
0.0365244000528742,0.200934141521453,0.00283360058145599,,
0.0367484761268182,0.229042188101651,0.00346226251222959,,
0.0369725522007622,0.256256738397653,0.0040868044975455,,
0.0371966282747062,0.282086576280997,0.0046545717459332,,
0.0374207043486502,0.306275128245744,0.0052294954737655,,
0.0376447804225942,0.329434426408977,0.00578975338851384,,
0.0378688564965382,0.35035713106388,0.00627259211104692,,
0.0380929325704823,0.369693680118488,0.00676925178450816,,
0.0383170086444263,0.387600977454125,0.00722865800663763,,
0.0385410847183703,0.403199505496022,0.00762017706959028,,
0.0387651607923143,0.416691242331412,0.00797963112880895,,
0.0389892368662583,0.4285788509401,0.00830342703523934,,
0.0392133129402023,0.438018473720347,0.00861508674527789,,
0.0394373890141463,0.445271141674719,0.00887556271795464,,
0.0396614650880903,0.450310894342852,0.00908759330061315,,
0.0398855411620344,0.453073829053079,0.00925062187818471,,
0.0401096172359784,0.454091707323196,0.00934987827226053,,
0.0403336933099224,0.452361770711651,0.00942394286473558,,
0.0405577693838664,0.448601783155555,0.00944317093346569,,
0.0407818454578104,0.442456000763979,0.0093981447502931,,
0.0410059215317544,0.434037679611261,0.00933247908161094,,
0.0412299976056984,0.423846629879363,0.00920883598987166,,
0.0414540736796425,0.41127349394918,0.00905715838386367,,
0.0416781497535865,0.396919926885644,0.00883250456662932,,
0.0419022258275305,0.380321493200035,0.0085797019302456,,
0.0421263019014745,0.361812540799467,0.00828157492404591,,
0.0423503779754185,0.341730270388893,0.00794577203543634,,
0.0425744540493625,0.319906652175405,0.00757350092032327,,
0.0427985301233065,0.296472629579962,0.00714099610321739,,
0.0430226061972505,0.271562284101151,0.00671074756504764,,
0.0432466822711946,0.245204143717394,0.00623573624190721,,
0.0434707583451386,0.217573084936422,0.00571570370537078,,
0.0436948344190826,0.188869659446544,0.00516862564026654,,
0.0439189104930266,0.159081065317445,0.00460246859975388,,
0.0441429865669706,0.128748086040098,0.00399877980037555,,
0.0443670626409146,0.0976340463735127,0.00337018744648576,,
0.0445911387148586,0.0659916685465416,0.00275844263795477,,
0.0448152147888027,0.034116217135858,0.00210199468178196,,
0.0450392908627467,0.00200740686167775,0.00144248534273528,,
0.0452633669366907,-0.0300500530513419,0.000781606830016823,,
0.0454874430106347,-0.061865595707338,0.000122713743366809,,
0.0457115190845787,-0.0936491870275009,-0.000541946769946566,,
0.0459355951585227,-0.12503930620527,-0.00118288653576748,,
0.0461596712324667,-0.155533504220679,-0.00186607189431021,,
0.0463837473064107,-0.185186055552675,-0.00250152999566788,,
0.0466078233803548,-0.214408975529627,-0.00316320615765742,,
0.0468318994542988,-0.241829212550057,-0.00374226225539154,,
0.0470559755282428,-0.268476626635019,-0.00435072452595442,,
0.0472800516021868,-0.293719608342237,-0.00493602514898184,,
0.0475041276761308,-0.317501743594381,-0.00547208521760778,,
0.0477282037500748,-0.339724967465624,-0.0060175481050595,,
0.0479522798240188,-0.360062848562864,-0.00650248158876376,,
0.0481763558979629,-0.378590914708976,-0.0069960773944624,,
0.0484004319719069,-0.395573905543721,-0.00741322062964933,,
0.0486245080458509,-0.410293557890365,-0.00779547851243168,,
0.0488485841197949,-0.423137638295616,-0.00816799066174845,,
0.0490726601937389,-0.43383477436473,-0.0084559992011779,,
0.0492967362676829,-0.442296672004489,-0.00871613722899189,,
0.0495208123416269,-0.44868073433584,-0.008960193057165,,
0.0497448884155709,-0.452904016261518,-0.00916101182202667,,
0.049968964489515,-0.454614553847736,-0.00927974974348,,
0.050193040563459,-0.454178931617223,-0.00939538652384009,,
0.050417116637403,-0.451319857619713,-0.00941295965669875,,
0.050641192711347,-0.44651068233718,-0.00940506516531148,,
0.050865268785291,-0.439088201591248,-0.00936940701252276,,
0.051089344859235,-0.430036274037764,-0.00927704618457836,,
0.051313420933179,-0.418349787676955,-0.00911513083714244,,
0.0515374970071231,-0.404600371876463,-0.00898066854002089,,
0.0517615730810671,-0.389518842123529,-0.00873742775534003,,
0.0519856491550111,-0.371741917649283,-0.00847935715492065,,
0.0522097252289551,-0.352399092439422,-0.00814520920218298,,
0.0524338013028991,-0.331375684020688,-0.00777050786592515,,
0.0526578773768431,-0.308653149207104,-0.00738113574680543,,
0.0528819534507871,-0.284303949063865,-0.00694858371681439,,
0.0531060295247311,-0.25863283372047,-0.00647991879940335,,
0.0533301055986752,-0.231566272312534,-0.00596146913696671,,
0.0535541816726192,-0.203386977106226,-0.00546282155254874,,
0.0537782577465632,-0.174197363544082,-0.00491908566274057,,
0.0540023338205072,-0.144328213535912,-0.00431172171298089,,
0.0542264098944512,-0.113546881417681,-0.00369407529379728,,
0.0544504859683952,-0.08214756196687,-0.00310776083618203,,
0.0546745620423392,-0.0503408629841849,-0.00245910797584825,,
0.0548986381162833,-0.018313357448509,-0.00179440770431594,,
0.0551227141902273,0.0138662022121593,-0.00113470205906197,,
0.0553467902641713,0.045807553252999,-0.000486484054250447,,
0.0555708663381153,0.0775700338691292,0.000194335690253844,,
0.0557949424120593,0.109121692724716,0.000855296204298917,,
0.0560190184860033,0.139912510395774,0.00152348774444944,,
0.0562430945599473,0.170265994157613,0.00215626465090413,,
0.0564671706338913,0.199413885551314,0.00281823402975956,,
0.0566912467078354,0.227938725896265,0.00344075331567684,,
0.0569153227817794,0.255020906372387,0.00402786293767443,,
0.0571393988557234,0.280722617972641,0.00464777309046083,,
0.0573634749296674,0.305494317476318,0.00520291213449475,,
0.0575875510036114,0.328179480638168,0.00575102391329674,,
0.0578116270775554,0.349395167631471,0.00623645188985167,,
0.0580357031514994,0.369060073717723,0.00676581269855259,,
0.0582597792254434,0.386762825448069,0.00721500602814151,,
0.0584838552993875,0.402410421612853,0.00761461091891125,,
0.0587079313733315,0.415941527058467,0.00797127693301292,,
0.0589320074472755,0.427833129584134,0.00832443925405313,,
0.0591560835212195,0.437801375804551,0.00860645921172498,,
0.0593801595951635,0.445023518822011,0.00884651933887515,,
0.0596042356691075,0.450084382194177,0.00904292494141234,,
0.0598283117430515,0.453276092420095,0.00922352665184301,,
0.0600523878169956,0.45398729492217,0.00935504684074839,,
0.0602764638909396,0.452548058410751,0.00945865675981983,,
0.0605005399648836,0.448761254554937,0.00945400504818084,,
0.0607246160388276,0.443022281135667,0.00942068766054405,,
0.0609486921127716,0.434801088313849,0.00934345731986985,,
0.0611727681867156,0.424036911495442,0.00925477661208474,,
0.0613968442606596,0.411802402669135,0.00905982218454593,,
0.0616209203346036,0.397435142175956,0.0088603949573538,,
0.0618449964085477,0.380949679284901,0.00859169400309323,,
0.0620690724824917,0.362792762138066,0.00830026128704064,,
0.0622931485564357,0.342425211943267,0.00798825866236186,,
0.0625172246303797,0.320792160625641,0.00759928412543376,,
0.0627413007043237,0.297327898373071,0.00716578038307203,,
0.0629653767782677,0.272468617975636,0.00673342962906531,,
0.0631894528522117,0.246232577339528,0.00622995142102267,,
0.0634135289261558,0.21872133606793,0.0057129603882502,,
0.0636376050000998,0.19015541543405,0.0051948064275682,,
0.0638616810740438,0.160504290500975,0.0046123485172096,,
0.0640857571479878,0.130058055149289,0.00399611599969374,,
0.0643098332219318,0.0989352074693665,0.00338782021667283,,
0.0645339092958758,0.0673644348682361,0.00280223631633447,,
0.0647579853698198,0.035464413736136,0.00214453597625841,,
0.0649820614437639,0.00340841588201056,0.00147874483858823,,
0.0652061375177079,-0.028643908994893,0.000812735030712552,,
0.0654302135916519,-0.0605005319398177,0.000158217833056362,,
0.0656542896655959,-0.0922790595438105,-0.000496344092596246,,
0.0658783657395399,-0.12366718176309,-0.0011706236100526,,
0.0661024418134839,-0.154413495787808,-0.00182404745668263,,
0.0663265178874279,-0.184030743746507,-0.00248934161661341,,
0.0665505939613719,-0.212997696437062,-0.00312706593646173,,
0.066774670035316,-0.24073373817863,-0.0037317685704279,,
0.06699874610926,-0.267294712488971,-0.00432438470577612,,
0.067222822183204,-0.292613792578632,-0.00489080017471322,,
0.067446898257148,-0.316450416269563,-0.00546385526624649,,
0.067670974331092,-0.338976464631761,-0.00599124804310014,,
0.067895050405036,-0.359077492188148,-0.0064904721216954,,
0.06811912647898,-0.377986692125986,-0.0069659406643563,,
0.068343202552924,-0.394795662292353,-0.00741944279094398,,
0.0685672786268681,-0.409875266406744,-0.0078213983864206,,
0.0687913547008121,-0.42266065049639,-0.00815602343778821,,
0.0690154307747561,-0.433373833553367,-0.00846335695660683,,
0.0692395068487001,-0.442168082141749,-0.0087128372968035,,
0.0694635829226441,-0.448462210021123,-0.00899287182840736,,
0.0696876589965881,-0.452486366657412,-0.0091468578960141,,
0.0699117350705321,-0.454211168232841,-0.00927440226300602,,
0.0701358111444761,-0.454021457176331,-0.00939210647076116,,
0.0703598872184202,-0.451683018785032,-0.00941359578820489,,
0.0705839632923642,-0.446649542272152,-0.00942079202586887,,
0.0708080393663082,-0.439446513000235,-0.00939047638377666,,
0.0710321154402522,-0.430558122083059,-0.00926865720034042,,
0.0712561915141962,-0.419215041262511,-0.00915065480594146,,
0.0714802675881402,-0.405420337296274,-0.0089679459098968,,
0.0717043436620843,-0.390372399237932,-0.00873142426425,,
0.0719284197360283,-0.372335584880257,-0.00845914010048965,,
0.0721524958099723,-0.35335855967372,-0.00814725675046812,,
0.0723765718839163,-0.332122261216007,-0.00778213714502263,,
0.0726006479578603,-0.309461917395384,-0.00739878839610242,,
0.0728247240318043,-0.285591987289645,-0.00694665792807481,,
0.0730488001057483,-0.25969407451779,-0.00650070986312334,,
0.0732728761796923,-0.232693983299579,-0.00601728967663506,,
0.0734969522536364,-0.204584225040676,-0.00549031436108205,,
0.0737210283275804,-0.175406949829199,-0.00491415812845641,,
0.0739451044015244,-0.145638289625023,-0.00432432506844771,,
0.0741691804754684,-0.114826646529718,-0.00373987676224319,,
