Time domain (s),Current (AC) (A),Potential (AC) (V),Frequency (Hz),Column 5
0,-0.202633517536113,-0.00400657212408584,630.96,0.5
4.95277038164067E-05,-0.119118359943637,-0.00267657362926466,,
9.90554076328135E-05,-0.0314430385777433,-0.00129241920261469,,
0.00014858311144922,0.0570681882159052,0.000148741468065428,,
0.000198110815265627,0.144918920989125,0.00160502351333625,,
0.000247638519082034,0.226775996815707,0.00300470076699888,,
0.00029716622289844,0.29982213518653,0.00428022216805291,,
0.000346693926714847,0.360646637981309,0.00538269081140719,,
0.000396221630531254,0.407913504310542,0.0062613229655839,,
0.000445749334347661,0.439694528112647,0.00694759250052623,,
0.000495277038164067,0.45423894735183,0.00733029374969618,,
0.000544804741980474,0.451294574698835,0.00743449741689473,,
0.000594332445796881,0.431276777519497,0.00727131035248396,,
0.000643860149613288,0.394999744317993,0.00680246744970248,,
0.000693387853429694,0.343220892921445,0.0060972761239011,,
0.000742915557246101,0.27870740157687,0.00514663678683069,,
0.000792443261062508,0.203294011556541,0.00399678337584453,,
0.000841970964878915,0.119899562972767,0.00270482918895265,,
0.000891498668695321,0.0321056008766077,0.00130813271952857,,
0.000941026372511728,-0.0565861723604827,-0.000141682596298764,,
0.000990554076328135,-0.14499316505297,-0.00161030261269524,,
0.00104008178014454,-0.226762125086199,-0.00298792841932016,,
0.00108960948396095,-0.299670794260998,-0.00428171423289081,,
0.00113913718777736,-0.361187671092093,-0.00536889924796702,,
0.00118866489159376,-0.408296563740811,-0.00630261067454496,,
0.00123819259541017,-0.440107684560152,-0.00692808860365401,,
0.00128772029922658,-0.454789109415709,-0.00729144486420275,,
0.00133724800304298,-0.451830472773504,-0.00742915475423489,,
0.00138677570685939,-0.431825227904671,-0.00723787605654236,,
0.0014363034106758,-0.395319970875787,-0.00680230185057784,,
0.0014858311144922,-0.343609016067885,-0.00609369650646441,,
0.00153535881830861,-0.278222960843281,-0.00514688602187618,,
0.00158488652212502,-0.202632091137192,-0.0040017011680229,,
0.00163441422594142,-0.119246735846539,-0.00271528702456525,,
0.00168394192975783,-0.031381917383973,-0.00130704545255034,,
0.00173346963357424,0.0569943007517907,0.00013538648413558,,
0.00178299733739064,0.144975691666186,0.00157798234722728,,
0.00183252504120705,0.22684385774438,0.00299123538365276,,
0.00188205274502346,0.299723428381188,0.00426877073769427,,
0.00193158044883986,0.360665466447068,0.00538682577136163,,
0.00198110815265627,0.408055003083518,0.00624183914133303,,
0.00203063585647268,0.439211549437952,0.00694422030017527,,
0.00208016356028908,0.453829285581682,0.00731043858195468,,
0.00212969126410549,0.451292007180777,0.00743634409803917,,
0.0021792189679219,0.43148018200565,0.00726708172029777,,
0.0022287466717383,0.394982342251156,0.00679798456431513,,
0.00227827437555471,0.343490767597323,0.00609160226299288,,
0.00232780207937112,0.278667177127294,0.00515514757819302,,
0.00237732978318752,0.20318589051832,0.00402107124742113,,
0.00242685748700393,0.119721298767598,0.00267364971745243,,
0.00247638519082034,0.0322405382145465,0.00131363596315737,,
0.00252591289463674,-0.0565490859885333,-0.000146458207411104,,
0.00257544059845315,-0.144841396207762,-0.00160743891874615,,
0.00262496830226956,-0.226810123409895,-0.00299040236987524,,
0.00267449600608596,-0.299637987085812,-0.00424320156380142,,
0.00272402370990237,-0.360955453347733,-0.00536871357622148,,
0.00277355141371878,-0.408240862862941,-0.00627410755252944,,
0.00282307911753518,-0.439680977322896,-0.00692435509612244,,
0.00287260682135159,-0.454964485163062,-0.00731403158113775,,
0.002922134525168,-0.452151769130488,-0.00741815495785181,,
0.0029716622289844,-0.431593865999664,-0.00725240863424581,,
0.00302118993280081,-0.395205573682312,-0.0068017247627199,,
0.00307071763661722,-0.343397053188205,-0.00606604981628456,,
0.00312024534043362,-0.278089378584318,-0.0051800175557819,,
0.00316977304425003,-0.202802902407997,-0.00401299536284982,,
0.00321930074806644,-0.119126918337164,-0.00269760973621658,,
0.00326882845188285,-0.0314255651909595,-0.00130293725609087,,
0.00331835615569925,0.0570530327273682,0.000136510550919233,,
0.00336788385951566,0.144937178895315,0.00158337184600255,,
0.00341741156333207,0.2270207312106,0.00300392462564858,,
0.00346693926714847,0.299757091395726,0.00424053190519036,,
0.00351646697096488,0.360909095382797,0.00537072752920942,,
0.00356599467478129,0.407775714174761,0.00626769267735794,,
0.00361552237859769,0.439356186288555,0.0069233715376873,,
0.0036650500824141,0.453957946764367,0.00731579128092452,,
0.00371457778623051,0.451193300375435,0.0073996948372792,,
0.00376410549004691,0.431781152178008,0.00726108669745118,,
0.00381363319386332,0.395002597115836,0.00680371529764967,,
0.00386316089767973,0.343661079628506,0.0060933285084106,,
0.00391268860149613,0.278676912299931,0.00514480348743351,,
0.00396221630531254,0.202949108297412,0.00397452618443994,,
0.00401174400912895,0.119893607757271,0.00269995823289015,,
0.00406127171294535,0.0321937523299335,0.00130998274611027,,
0.00411079941676176,-0.0564926005912566,-0.000135391502290361,,
0.00416032712057817,-0.144902517401532,-0.00160403995490022,,
0.00420985482439457,-0.226635460862003,-0.00299047095133087,,
0.00425938252821098,-0.299696540761524,-0.00425551277143255,,
0.00430891023202739,-0.360903817706788,-0.00535486346763658,,
0.00435843793584379,-0.408271387799853,-0.00628459884251065,,
0.0044079656396602,-0.439860418307174,-0.00694271485358966,,
0.00445749334347661,-0.454561741427681,-0.00730544049929094,,
0.00450702104729301,-0.45246008525729,-0.00741947975084667,,
0.00455654875110942,-0.431890271695474,-0.00726928301774876,,
0.00460607645492583,-0.395004237474595,-0.00679994499031267,,
0.00465560415874223,-0.343338499512493,-0.00611358178313814,,
0.00470513186255864,-0.278085384667338,-0.00511894326053453,,
0.00475465956637505,-0.202618896947171,-0.0040006306282292,,
0.00480418727019145,-0.119170566144151,-0.00270353785032595,,
0.00485371497400786,-0.0313608779998863,-0.00128061650138589,,
0.00490324267782427,0.0569951565911434,0.000135694264326247,,
0.00495277038164067,0.145102926449951,0.00161156718782696,,
0.00500229808545708,0.226845569423085,0.00299836785503027,,
0.00505182578927349,0.29974653604371,0.00426223709951401,,
0.00510135349308989,0.360681727394769,0.00537858261494772,,
0.0051508811969063,0.407906942875505,0.00626300906575938,,
0.00520040890072271,0.439361036044887,0.00694260445417383,,
0.00524993660453911,0.454028696150855,0.00730869895478925,,
0.00529946430835552,0.451295145258404,0.00744200792263694,,
0.00534899201217193,0.431408862059593,0.00724836065564993,,
0.00539851971598833,0.394979204173529,0.00680336402677995,,
0.00544804741980474,0.343511878301356,0.00607602925442707,,
0.00549757512362115,0.278772195747862,0.00515731542127584,,
0.00554710282743756,0.20318589051832,0.00399226034521494,,
0.00559663053125396,0.119778069444659,0.00269075159066157,,
0.00564615823507037,0.032232265100804,0.00129688201538114,,
0.00569568593888678,-0.0565653469362342,-0.000142458737649509,,
0.00574521364270318,-0.144905940758943,-0.00159122024086722,,
0.00579474134651959,-0.226585536899763,-0.00296820372361539,,
0.005844269050336,-0.299738976129428,-0.00426344814765534,,
0.0058937967541524,-0.361174548222019,-0.00537037291290243,,
0.00594332445796881,-0.408378367718938,-0.0062716854562459,,
0.00599285216178522,-0.439773621932823,-0.00693016277450509,,
0.00604237986560162,-0.454800805886862,-0.00732044143815447,,
0.00609190756941803,-0.452041080574208,-0.00741669634738251,,
0.00614143527323444,-0.43178871209229,-0.00725089649678701,,
0.00619096297705084,-0.395290301778227,-0.00680611397587549,,
0.00624049068086725,-0.343483706922663,-0.00606941030760666,,
0.00629001838468366,-0.278325376285818,-0.00515081858290056,,
0.00633954608850006,-0.2025921519674,-0.00402162658993888,,
0.00638907379231647,-0.119200520521494,-0.00271822933627996,,
0.00643860149613288,-0.0314076638844993,-0.001292138185919,,
0.00648812919994928,0.0570328135226612,0.000109185022677316,,
0.00653765690376569,0.14498881453626,0.00158657342907409,,
0.0065871846075821,0.22680334801502,0.00298139979929513,,
0.0066367123113985,0.299690335926218,0.00425233460641961,,
0.00668624001521491,0.360780148920327,0.00534601144171543,,
0.00673576771903132,0.407653329147328,0.00626215263392416,,
0.00678529542284772,0.439204417443347,0.00694032621167473,,
0.00683482312666413,0.454238662072046,0.00729700330753991,,
0.00688435083048054,0.451317967641142,0.00740204667938915,,
0.00693387853429694,0.431262228250501,0.00724575121490201,,
0.00698340623811335,0.394995750401014,0.0068111254402865,,
0.00703293394192976,0.343411745097092,0.00609169593522463,,
0.00708246164574616,0.278719704267564,0.00515865359601841,,
0.00713198934956257,0.203026954018533,0.00400910796522291,,
0.00718151705337898,0.119822537431026,0.0026814245127067,,
0.00723104475719538,0.0321643685121582,0.00131043772552264,,
0.00728057246101179,-0.056600436349694,-0.000135593901220421,,
0.0073301001648282,-0.144854875677566,-0.00160009233940972,,
0.0073796278686446,-0.226839435907724,-0.00299780247620118,,
0.00742915557246101,-0.299774350822672,-0.00422987334336611,,
0.00747868327627742,-0.360976564051766,-0.00537486750731864,,
0.00752821098009382,-0.408059710199958,-0.00628331586747644,,
0.00757773868391023,-0.440159106241258,-0.00691632772038586,,
0.00762726638772664,-0.454775130706282,-0.00730799641304936,,
0.00767679409154304,-0.451774272656011,-0.00743486876038535,,
0.00772632179535945,-0.432107084331486,-0.00725463167703699,,
0.00777584949917586,-0.395509396652513,-0.006806167502865,,
0.00782537720299227,-0.343449259388718,-0.00609399090490781,,
0.00787490490680867,-0.278265396211185,-0.00516545821458347,,
0.00792443261062508,-0.202659691956315,-0.00396773662034011,,
0.00797396031444149,-0.119098105078957,-0.00270804582648987,,
0.00802348801825789,-0.0314125136408312,-0.00131326796510267,,
0.0080730157220743,0.05707813734838,0.000109758765098444,,
0.00812254342589071,0.144974835826833,0.00158413460560558,,
0.00817207112970711,0.226997052988509,0.00300535312718608,,
0.00822159883352352,0.299489498958123,0.00427789374400112,,
0.00827112653733993,0.360777581402269,0.0053703662220288,,
0.00832065424115633,0.408197928255415,0.00625590335787685,,
0.00837018194497274,0.439231804302632,0.00691990566510414,,
0.00841970964878915,0.454077478993958,0.00730556762589174,,
0.00846923735260555,0.451228675068679,0.00742943911636784,,
0.00851876505642196,0.431314434451014,0.00725824642156025,,
0.00856829276023837,0.39484426683559,0.00680182512582617,,
0.00861782046405477,0.343543259077621,0.00607949512701023,,
0.00866734816787118,0.278667747686862,0.00514559301053152,,
0.00871687587168759,0.203192416293384,0.00400331701402479,,
0.00876640357550399,0.119791441934545,0.00270877680444315,,
0.0088159312793204,0.0322296975827459,0.00129582151189789,,
0.00886545898313681,-0.0565964424327148,-0.000145161850629183,,
0.00891498668695321,-0.1448804795382,-0.00160159109512126,,
0.00896451439076962,-0.226844856223625,-0.00298231979443031,,
0.00901404209458603,-0.299588419723303,-0.00425109846750082,,
0.00906356979840243,-0.361029055532064,-0.00538016667929897,,
0.00911309750221884,-0.408147647693445,-0.00626482061981681,,
0.00916262520603525,-0.439937158569131,-0.00691360955294051,,
0.00921215290985165,-0.454508108828247,-0.00729333001787147,,
0.00926168061366806,-0.451785184607758,-0.00742481906806924,,
0.00931120831748447,-0.43163551684816,-0.00723228415883703,,
0.00936073602130087,-0.395231534142677,-0.00679079187507403,,
0.00941026372511728,-0.343359681536471,-0.00607679535946692,,
0.00945979142893369,-0.278109419489159,-0.00513147024884253,,
0.00950931913275009,-0.202614047190839,-0.00399213321861414,,
0.0095588468365665,-0.11912969981506,-0.00269664625040233,,
0.00960837454038291,-0.031328926664053,-0.00129417221152739,,
0.00965790224419931,0.0570381981785884,0.000148554123601485,,
0.00970742994801572,0.145131169148589,0.00162169717062755,,
0.00975695765183213,0.226842146065674,0.00297927210145499,,
0.00980648535564854,0.299762511711627,0.00425784788635841,,
0.00985601305946494,0.360704264497722,0.00535231424475269,,
0.00990554076328135,0.407702967829783,0.00627213541750304,,
0.00995506846709776,0.439401831054031,0.00695326636143445,,
0.0100045961709142,0.454225253922187,0.00731498503064199,,
0.0100541238747306,0.451474586242682,0.00743503268679158,,
0.010103651578547,0.431455647944206,0.00725922663455902,,
0.0101531792823634,0.395011155509362,0.00679685046122058,,
0.0102027069861798,0.343350695223268,0.00609963131144786,,
0.0102522346899962,0.278536554646092,0.00515332766054311,,
0.0103017623938126,0.203121132007301,0.0040018282946237,,
0.010351290097629,0.119847392432226,0.00268518478373281,,
0.0104008178014454,0.0321903289725228,0.00130199384289753,,
0.0104503455052618,-0.0565838901222089,-0.00014506817839699,,
0.0104998732090782,-0.144891391489947,-0.00158428849570091,,
0.0105494009128946,-0.226794076422032,-0.00299062985958143,,
0.010598928616711,-0.299718721264748,-0.00425797668567718,,
0.0106484563205274,-0.361078408934735,-0.00535520972035153,,
0.0106979840243439,-0.408192080019838,-0.00625853287124523,,
0.0107475117281603,-0.439742241156558,-0.0069265630844475,,
0.0107970394319767,-0.454791962213551,-0.00731968035126984,,
0.0108465671357931,-0.451863565228474,-0.00739414810297134,,
0.0108960948396095,-0.432046319737446,-0.00723545396025838,,
0.0109456225434259,-0.395012439268391,-0.00681133285737134,,
0.0109951502472423,-0.343505744785995,-0.00609140822765486,,
0.0110446779510587,-0.278173536120664,-0.00512875208139674,,
0.0110942056548751,-0.202645713246888,-0.00399725842787779,,
0.0111437333586915,-0.11913169677355,-0.00270969178142311,,
0.0111932610625079,-0.0314309855068598,-0.00129612594665129,,
0.0112427887663243,0.0570311018439558,0.000125162829102798,,
0.0112923164701407,0.144916353471067,0.00159815867690716,,
0.0113418441739571,0.226975122105097,0.00299838123677754,,
0.0113913718777736,0.299554257469142,0.00423180700586956,,
0.01144089958159,0.36042326391026,0.00535717181906792,,
0.0114904272854064,0.40786614786636,0.00626975012102449,,
0.0115399549892228,0.43905407499706,0.00692081562392888,,
0.0115894826930392,0.454193587866138,0.00733024022270667,,
0.0116390103968556,0.451207849644431,0.00743424650913038,,
0.011688538100672,0.431471623612123,0.00727176198645951,,
0.0117380658044884,0.394969504660865,0.00678797501724127,,
0.0117875935083048,0.343366385611401,0.00608741377604893,,
0.0118371212121212,0.278656657435251,0.00516059394939505,,
0.0118866489159376,0.203135360336539,0.00399316026772922,,
0.011936176619754,0.119780636962717,0.00268689764740326,,
0.0119857043235704,0.0322045929617341,0.0013222002815092,,
0.0120352320273868,-0.0566102071823037,-0.000136983930234091,,
0.0120847597312032,-0.145042304495803,-0.0016085094585403,,
0.0121342874350197,-0.226829165835492,-0.00299781585794845,,
0.0121838151388361,-0.299541562518744,-0.00426600406141375,,
0.0122333428426525,-0.360925213690605,-0.00538743464086888,,
0.0122828705464689,-0.408215259002307,-0.00626293546614809,,
0.0123323982502853,-0.439879817332501,-0.00692511785572592,,
0.0123819259541017,-0.454567161743582,-0.00729480368280644,,
0.0124314536579181,-0.451733477646867,-0.00740593742245244,,
0.0124809813617345,-0.432023497354708,-0.00724532968985825,,
0.0125305090655509,-0.395261203240236,-0.00677373014710714,,
0.0125800367693673,-0.343467517294909,-0.00608835718924183,,
0.0126295644731837,-0.278418591455314,-0.00516709078776945,,
0.0126790921770001,-0.202670603908062,-0.00398374286297853,,
0.0127286198808165,-0.11923839141285,-0.00269872042125296,,
0.0127781475846329,-0.0313697216731973,-0.00128416266445353,,
0.0128276752884493,0.0570302460046031,0.000127437726165081,,
0.0128772029922658,0.145004219644608,0.00160162454949031,,
0.0129267306960822,0.226910898493673,0.00298778289281687,,
0.0129762583998986,0.299560533624395,0.00424313130962783,,
0.013025786103715,0.360809818017886,0.00537604008293702,,
0.0130753138075314,0.407928624139106,0.00629254258232637,,
0.0131248415113478,0.439470298202245,0.00693704768355552,,
0.0131743692151642,0.454266904770684,0.00732596140896735,,
0.0132238969189806,0.451302562532794,0.00743910408344561,,
0.013273424622797,0.431550075552785,0.00725415495228532,,
0.0133229523266134,0.394803186546662,0.00682462762343805,,
0.0133724800304298,0.343393487190902,0.00608959500087902,,
0.0134220077342462,0.278684293914347,0.0051403473655407,,
0.0134715354380626,0.203188137096621,0.00402867542539509,,
0.013521063141879,0.119795756791281,0.00270679630582427,,
0.0135705908456954,0.0321695035482743,0.00131296353034926,,
0.0136201185495119,-0.0565810373243666,-0.000127790669753214,,
0.0136696462533283,-0.144901376282395,-0.00161038290317972,,
0.0137191739571447,-0.226821178001534,-0.00297742207487284,,
0.0137687016609611,-0.299516243937894,-0.00425584731511819,,
0.0138182293647775,-0.360902961867436,-0.00537118919949497,,
0.0138677570685939,-0.408323094760744,-0.00626630766649949,,
0.0139172847724103,-0.439938014408483,-0.00690212801364964,,
0.0139668124762267,-0.454625929379132,-0.00730831757498729,,
0.0140163401800431,-0.451906927755676,-0.00742469863234252,,
0.0140658678838595,-0.431649495557588,-0.00724769993187069,,
0.0141153955876759,-0.39512170142575,-0.00678248348264132,,
0.0141649232914923,-0.343141157221754,-0.00608205438620502,,
0.0142144509953087,-0.278407251583891,-0.00514130416048131,,
0.0142639786991251,-0.202667180550651,-0.00402026165170133,,
0.0143135064029415,-0.119147743761413,-0.00269485309624695,,
0.014363034106758,-0.0314195743154908,-0.00130965489329826,,
0.0144125618105744,0.0570379128988042,0.000118416755682027,,
0.0144620895143908,0.145021051151878,0.00157285713796318,,
0.0145116172182072,0.227057817582549,0.00298359775130974,,
0.0145611449220236,0.299506615745176,0.00426483315851423,,
0.01461067262584,0.360576744434174,0.00536186546697692,,
0.0146602003296564,0.407873279860966,0.00628836747712969,,
0.0147097280334728,0.439501964258294,0.00691217101509256,,
0.0147592557372892,0.454250643822983,0.00732458308898298,,
0.0148087834411056,0.451444631865338,0.00741271193208659,,
0.014858311144922,0.431172935678038,0.00727255485499434,,
0.0149078388487384,0.39465997609498,0.00678220748410086,,
0.0149573665525548,0.343469371613506,0.00609844033592699,,
0.0150068942563712,0.278720274827133,0.00512903978896695,,
0.0150564219601876,0.203308560825537,0.0039782864554665,,
0.0151059496640041,0.119711028695366,0.00271841166258913,,
0.0151554773678205,0.0321358405337357,0.00130268634832698,,
0.0152050050716369,-0.0566073543844614,-0.000135152303555319,,
0.0152545327754533,-0.144846531243878,-0.00162411257603745,,
0.0153040604792697,-0.226977796603074,-0.00299414925915409,,
0.0153535881830861,-0.299775491941809,-0.00428286673588785,,
0.0154031158869025,-0.361031908329906,-0.00534880153605322,,
0.0154526435907189,-0.408378938278506,-0.00623544935693721,,
0.0155021712945353,-0.439967112946474,-0.00693289265097974,,
0.0155516989983517,-0.454824484108953,-0.00731641353217949,,
0.0156012267021681,-0.452142854137231,-0.00739856575233988,,
0.0156507544059845,-0.43191801515449,-0.00722705189559392,,
0.0157002821098009,-0.395163066994463,-0.00677794539754606,,
0.0157498098136173,-0.343302625579626,-0.00611358178313814,,
0.0157993375174338,-0.278489911401371,-0.00511688414414913,,
0.0158488652212502,-0.202620608625876,-0.00399498353081551,,
0.0158983929250666,-0.119150311279471,-0.0026812037138737,,
0.015947920628883,-0.0313999613303253,-0.00126805104055405,,
0.0159974483326994,0.0570330988024454,0.000130433564869747,,
0.0160469760365158,0.145063843119512,0.00160690030341248,,
0.0160965037403322,0.226823032320131,0.00298394567674309,,
0.0161460314441486,0.299810153435592,0.00424831004588144,,
0.016195559147965,0.360748768144062,0.00537604008293702,,
0.0162450868517814,0.40788297937363,0.00625563572292798,,
