Time domain (s),Current (AC) (A),Potential (AC) (V),Frequency (Hz),Column 5
0,0.275256040236719,0.00905700569081835,0.50119,0.3
0.0048712189987829,0.274461955798237,0.00903818619579111,,
0.00974243799756579,0.273168543032555,0.00898387094578057,,
0.0146136569963487,0.272136538058993,0.00896489701175529,,
0.0194848759951316,0.270846531842042,0.00891851803514632,,
0.0243560949939145,0.269312688452741,0.00888268818763782,,
0.0292273139926974,0.267830301878488,0.00888128878120797,,
0.0340985329914803,0.266438457783672,0.0088462500395865,,
0.0389697519902632,0.264838993508283,0.00878945431016165,,
0.0438409709890461,0.263201160736657,0.00874916149079574,,
0.048712189987829,0.26156099716853,0.00871964788311885,,
0.0535834089866119,0.259914020502941,0.00865273797524102,,
0.0584546279853947,0.257762157456958,0.00859646229550259,,
0.0633258469841776,0.256187076898804,0.0085316199791059,,
0.0681970659829605,0.254338755273987,0.00850464358353742,,
0.0730682849817434,0.252149061607882,0.00846569974154088,,
0.0779395039805263,0.250228664583592,0.00842826877136016,,
0.0828107229793092,0.24817415711451,0.00833600880511565,,
0.0876819419780921,0.246005978493024,0.00828974014207651,,
0.092553160976875,0.243740085710559,0.00825199399026788,,
0.0974243799756579,0.24145214000736,0.00817001209692281,,
0.102295598974441,0.239303862802146,0.00808224977251459,,
0.107166817973224,0.236750564881979,0.00802409561027106,,
0.112038036972007,0.234318109795755,0.00796532684385287,,
0.116909255970789,0.23187149063849,0.00791758628260952,,
0.121780474969572,0.229258667761543,0.00782933542667719,,
0.126651693968355,0.226680448248025,0.00774161407588014,,
0.131522912967138,0.224220202895835,0.0076846670592734,,
0.136394131965921,0.221518092583719,0.00758960828016919,,
0.141265350964704,0.218639021029611,0.00751303175175,,
0.146136569963487,0.215762818148119,0.00744227032437372,,
0.15100778896227,0.21306590730512,0.00734167380405948,,
0.155879007961053,0.210013998225905,0.00727346849968891,,
0.160750226959836,0.207036853926742,0.00718410820442461,,
0.165621445958618,0.204114214407281,0.00709679028611232,,
0.170492664957401,0.201080593115993,0.00702543316545823,,
0.175363883956184,0.197823753236782,0.00689676341750856,,
0.180235102954967,0.194805551060804,0.00682446075196985,,
0.18510632195375,0.19158707967783,0.00670217028017772,,
0.189977540952533,0.18829922227596,0.00662525335560016,,
0.194848759951316,0.184815376264513,0.00652803873415797,,
0.199719978950099,0.18164497755936,0.00643508852014696,,
0.204591197948882,0.178216353495769,0.00632972645361241,,
0.209462416947665,0.175007586294379,0.00624824254724032,,
0.214333635946447,0.171462086233195,0.00615496454433595,,
0.21920485494523,0.167892583450359,0.00604214212865895,,
0.224076073944013,0.164327697437513,0.00591298069736945,,
0.228947292942796,0.160788831181754,0.00583231941504714,,
0.233818511941579,0.15716964209275,0.00567092120681156,,
0.238689730940362,0.153514953180125,0.00559700481133563,,
0.243560949939145,0.149834625505996,0.00547133559248802,,
0.248432168937928,0.146196790044989,0.00536941846115102,,
0.253303387936711,0.142444566263424,0.00525255856881524,,
0.258174606935493,0.138562176461914,0.00514847613969183,,
0.263045825934276,0.134856927194434,0.00502235305929899,,
0.267917044933059,0.130916962237063,0.00489238791485702,,
0.272788263931842,0.126995509182666,0.00479552629683866,,
0.277659482930625,0.1230578974333,0.00465056481052084,,
0.282530701929408,0.119040836899377,0.00452905598916686,,
0.287401920928191,0.115214968913002,0.00441530063586981,,
0.292273139926974,0.111160257050996,0.0042876646836616,,
0.297144358925757,0.107088176272761,0.00417756858906948,,
0.30201557792454,0.103079385584113,0.00404386539051549,,
0.306886796923322,0.0989694741857564,0.00392270011713647,,
0.311758015922105,0.0948842826772067,0.00380052941436304,,
0.316629234920888,0.0908023408368546,0.00367874638499277,,
0.321500453919671,0.0865800357418679,0.00351756250026458,,
0.326371672918454,0.0824064756698463,0.0033652037011298,,
0.331242891917237,0.0782011584955067,0.00326297138816445,,
0.33611411091602,0.0739544696832851,0.00315162402250824,,
0.340985329914803,0.069837924479504,0.00300780979731741,,
0.345856548913586,0.0655596578570029,0.00290497233562581,,
0.350727767912368,0.0612980429825769,0.0027391017000844,,
0.355598986911151,0.0570612376439771,0.0025854569599062,,
0.360470205909934,0.0527031636528422,0.00246566272661042,,
0.365341424908717,0.0483906298394843,0.00234506162834602,,
0.3702126439075,0.044148064744148,0.00218838799271959,,
0.375083862906283,0.0397525411284731,0.0020723412689847,,
0.379955081905066,0.035474991674126,0.00190305091277576,,
0.384826300903849,0.0310909427489145,0.00179056889325757,,
0.389697519902632,0.0267802466789512,0.00165558290547629,,
0.394568738901415,0.0224001197670817,0.00152813606224456,,
0.399439957900197,0.0180660933206096,0.00138389634185554,,
0.40431117689898,0.0136886782008223,0.00126227405511559,,
0.409182395897763,0.00933224024953866,0.00109279458992972,,
0.414053614896546,0.00495321150140498,0.000947344572088227,,
0.418924833895329,0.000599642222737188,0.00081525825528761,,
0.423796052894112,-0.0037515962594302,0.00068979075268194,,
0.428667271892895,-0.00815482943276033,0.000520286072966059,,
0.433538490891678,-0.0125144946407369,0.000409881100378318,,
0.438409709890461,-0.0169073288758344,0.000269061100656387,,
0.443280928889244,-0.0212517542605391,0.000124670093085921,,
0.448152147888026,-0.0255823741582799,-1.50310118551822E-05,,
0.453023366886809,-0.0299725190128001,-0.000174702024767104,,
0.457894585885592,-0.0343269847516604,-0.000286591502824507,,
0.462765804884375,-0.0386925217738975,-0.000431310299288334,,
0.467637023883158,-0.0430063330430296,-0.000580479460344563,,
0.472508242881941,-0.0473097005509196,-0.000704358447543463,,
0.477379461880724,-0.0516017726603846,-0.000855089333568149,,
0.482250680879507,-0.0559881972051061,-0.00103464357950322,,
0.48712189987829,-0.0601677635604172,-0.00113248856420212,,
0.491993118877072,-0.0644593426167763,-0.0012691875641333,,
0.496864337875855,-0.068702692114781,-0.00143053691921624,,
0.501735556874638,-0.0729131415237224,-0.00154618336228296,,
0.506606775873421,-0.0772050343411488,-0.00167973054593107,,
0.511477994872204,-0.0813463218462418,-0.00184157158435427,,
0.516349213870987,-0.0856068385569322,-0.00197495644946333,,
0.52122043286977,-0.0896330653963228,-0.00209285801708115,,
0.526091651868553,-0.0939062670187365,-0.00223769185483924,,
0.530962870867336,-0.0979702348322297,-0.00236753407844637,,
0.535834089866119,-0.102120352470218,-0.0025180396096065,,
0.540705308864901,-0.106136270017396,-0.0026597452697037,,
0.545576527863684,-0.110120901103856,-0.00275141269448742,,
0.550447746862467,-0.11413722205812,-0.00289697617771534,,
0.55531896586125,-0.118209661420432,-0.00303914988253062,,
0.560190184860033,-0.122130061134103,-0.00319508599314711,,
0.565061403858816,-0.12596529712949,-0.00331155348435574,,
0.569932622857599,-0.129883724630737,-0.00343958026178326,,
0.574803841856382,-0.133729718148433,-0.00358180281975118,,
0.579675060855165,-0.137597271533758,-0.00371783363463019,,
0.584546279853947,-0.1414080789889,-0.00381947655795045,,
0.58941749885273,-0.145154879186301,-0.00395240598560687,,
0.594288717851513,-0.148943544074689,-0.00409218273413892,,
0.599159936850296,-0.152647359005862,-0.00420974705741406,,
0.604031155849079,-0.156229613934936,-0.00432960275112704,,
0.608902374847862,-0.159983451344847,-0.00446453830984783,,
0.613773593846645,-0.163286369277951,-0.00458411979554452,,
0.618644812845428,-0.167170731291884,-0.00469928558662813,,
0.623516031844211,-0.170541063031461,-0.0048357466244302,,
0.628387250842994,-0.17392179370927,-0.0049149706785272,,
0.633258469841776,-0.177589750232743,-0.00506043487954244,,
0.638129688840559,-0.180948427989818,-0.00515966666340573,,
0.643000907839342,-0.184225214108311,-0.00527623186091919,,
0.647872126838125,-0.187621319078421,-0.00540855771575721,,
0.652743345836908,-0.19081056585912,-0.00552158184767659,,
0.657614564835691,-0.19412459989861,-0.00564225858953149,,
0.662485783834474,-0.197424873274146,-0.00572948668107998,,
0.667357002833257,-0.200124607966752,-0.00585702335107552,,
0.67222822183204,-0.203433980413241,-0.00595542305544061,,
0.677099440830823,-0.206275938515381,-0.00605853630105679,,
0.681970659829605,-0.209597144236411,-0.00616669402863446,,
0.686841878828388,-0.21242852410828,-0.00624895800953684,,
0.691713097827171,-0.215241571369213,-0.00637815726262181,,
0.696584316825954,-0.218275237483511,-0.00647518277508707,,
0.701455535824737,-0.220943461600352,-0.00658284881932492,,
0.70632675482352,-0.223672107134165,-0.00665666435667944,,
0.711197973822303,-0.226309134436308,-0.0067482451065155,,
0.716069192821086,-0.228964763287445,-0.00686038515396703,,
0.720940411819869,-0.231429894347684,-0.0069669921879334,,
0.725811630818652,-0.234081085720868,-0.00703707597480907,,
0.730682849817434,-0.236445409832465,-0.00712911058618948,,
0.735554068816217,-0.23903474545237,-0.0072331441621607,,
0.740425287815,-0.241321839518386,-0.00727887071279865,,
0.745296506813783,-0.24348907685667,-0.00737593404705938,,
0.750167725812566,-0.24571391176232,-0.00748640048006477,,
0.755038944811349,-0.248033905917399,-0.00754029496260111,,
0.759910163810132,-0.250075862943787,-0.00760528699027052,,
0.764781382808915,-0.252069097358715,-0.00769480960407343,,
0.769652601807698,-0.25411127850015,-0.00776962111537394,,
0.77452382080648,-0.256031630701431,-0.00786309137907137,,
0.779395039805263,-0.258116617817057,-0.00791761780077271,,
0.784266258804046,-0.25996525320294,-0.00799529116125841,,
0.789137477802829,-0.261625004426272,-0.00808468927831774,,
0.794008696801612,-0.263191837550656,-0.00813225491375746,,
0.798879915800395,-0.265048944485358,-0.00818893875370419,,
0.803751134799178,-0.266429134597671,-0.00824725996221076,,
0.808622353797961,-0.268157196087668,-0.00834605049179427,,
0.813493572796744,-0.269260155885463,-0.00837324593859501,,
0.818364791795526,-0.270699870954555,-0.00842212272960818,,
0.823236010794309,-0.271991266684805,-0.00846929911573646,,
0.828107229793092,-0.273357337549087,-0.0085590234457813,,
0.832978448791875,-0.274266841237348,-0.00858820926456483,,
0.837849667790658,-0.275620854712041,-0.00864229443198639,,
0.842720886789441,-0.276542281320862,-0.00866849390484115,,
0.847592105788224,-0.277659987888823,-0.0087478203929674,,
0.852463324787007,-0.278394188786448,-0.00876259453179573,,
0.85733454378579,-0.279498807035599,-0.00879621968381405,,
0.862205762784573,-0.280272093597616,-0.00882086531124138,,
0.867076981783355,-0.280974918388505,-0.00890832190947011,,
0.871948200782138,-0.281792669376068,-0.00891422210955239,,
0.876819419780921,-0.282111988496623,-0.00894164291121724,,
0.881690638779704,-0.283108135062486,-0.00898057414594877,,
0.886561857778487,-0.283533953653904,-0.00901035250619353,,
0.89143307677727,-0.283679897373237,-0.00900761672965933,,
0.896304295776053,-0.284232296143832,-0.00904162955508081,,
0.901175514774836,-0.284328396676463,-0.00908934805360984,,
0.906046733773619,-0.28450840588311,-0.00910945664149709,,
0.910917952772402,-0.284919701819411,-0.00911407247644425,,
0.915789171771184,-0.284621897743475,-0.00911379511661137,,
0.920660390769967,-0.284688773673833,-0.00912780336408225,,
0.92553160976875,-0.284595362521778,-0.00916957123346851,,
0.930402828767533,-0.284560579866311,-0.00915473090649899,,
0.935274047766316,-0.284435075439366,-0.00916830893104725,,
0.940145266765099,-0.283771874188984,-0.00916073354061053,,
0.945016485763882,-0.28367483237315,-0.00916458978783297,,
0.949887704762665,-0.283329515907014,-0.00916249855772877,,
0.954758923761448,-0.282884199306409,-0.00915498462770969,,
0.959630142760231,-0.282269227614381,-0.00914692858528943,,
0.964501361759013,-0.281696927427513,-0.00914169499435102,,
0.969372580757796,-0.281099526355257,-0.00913757241865243,,
0.974243799756579,-0.280039372531653,-0.00915489480094545,,
0.979115018755362,-0.279532334646797,-0.00913403135305835,,
0.983986237754145,-0.278876663662031,-0.00910038098650956,,
0.988857456752928,-0.277793246696432,-0.00907211549808107,,
0.993728675751711,-0.276707050704237,-0.00908769650187757,,
0.998599894750494,-0.275506466391483,-0.00901346492477328,,
1.00347111374928,-0.274502834383014,-0.00902833046627327,,
1.00834233274806,-0.273222151352064,-0.00897985553183611,,
1.01321355174684,-0.2719977660212,-0.00893661261242906,,
1.01808477074563,-0.270741287415447,-0.00892928779138691,,
1.02295598974441,-0.269458990756151,-0.00890899009452228,,
1.02782720874319,-0.267583282272455,-0.00886231957490713,,
1.03269842774197,-0.266412146677024,-0.00881003567049188,,
1.03756964674076,-0.264981216917817,-0.00881394549859138,,
1.04244086573954,-0.263322675915745,-0.00875107149146359,,
1.04731208473832,-0.261485291105277,-0.00872285643209558,,
1.05218330373711,-0.260040421390078,-0.00864764148831076,,
1.05705452273589,-0.257711417810064,-0.00861808848293055,,
1.06192574173467,-0.255958838133803,-0.00854365676549218,,
1.06679696073345,-0.254051170844246,-0.00851430705226219,,
1.07166817973224,-0.252178644794233,-0.00846471007122807,,
1.07653939873102,-0.24994229037511,-0.00839764099662776,,
1.0814106177298,-0.247928527021775,-0.00834500566469654,,
1.08628183672859,-0.245823817781915,-0.00829983383372435,,
1.09115305572737,-0.243509381680029,-0.00823862398559427,,
1.09602427472615,-0.241331297173416,-0.00813602606194053,,
1.10089549372493,-0.23879682491729,-0.00808887489034227,,
1.10576671272372,-0.236370107176298,-0.00801785816584699,,
1.1106379317225,-0.233840475805212,-0.00797682151783841,,
1.11550915072128,-0.231562570456168,-0.00788598774846161,,
1.12038036972007,-0.228924601870823,-0.00781254885315263,,
1.12525158871885,-0.226344410144881,-0.00775074803946962,,
1.13012280771763,-0.223696849435477,-0.00766621632675157,,
1.13499402671641,-0.220933421246196,-0.00758898422054521,,
1.1398652457152,-0.218091463144056,-0.00751083335989255,,
1.14473646471398,-0.215074874596425,-0.00740968369582085,,
1.14960768371276,-0.212266264813444,-0.00735021522618773,,
1.15447890271155,-0.209471101933351,-0.00724560014011244,,
1.15935012171033,-0.206427798871984,-0.00720089477795005,,
1.16422134070911,-0.203375486385683,-0.00708836232937093,,
1.16909255970789,-0.200340834165174,-0.00700773886884409,,
1.17396377870668,-0.197107302250967,-0.00688645697826251,,
1.17883499770546,-0.193965567860468,-0.00680844322161844,,
1.18370621670424,-0.190778831168307,-0.00671461995449718,,
1.18857743570303,-0.187416029694347,-0.00664082963167223,,
1.19344865470181,-0.184178015479178,-0.00647960792514901,,
1.19831987370059,-0.180773932013355,-0.00641508394219725,,
1.20319109269938,-0.177538472709735,-0.00631410132438814,,
1.20806231169816,-0.174042995127291,-0.0062132164128843,,
1.21293353069694,-0.170652582679403,-0.00610307934468057,,
1.21780474969572,-0.16697386863362,-0.00599688835046353,,
1.22267596869451,-0.163572160787307,-0.00590551089277813,,
1.22754718769329,-0.160057678248783,-0.00578265151814694,,
1.23241840669207,-0.156292724732485,-0.00566957853307537,,
1.23728962569086,-0.152610066261855,-0.00553829908124337,,
1.24216084468964,-0.148860755975916,-0.00541904696034834,,
1.24703206368842,-0.144993516351658,-0.00534631407188657,,
1.2519032826872,-0.141342816686889,-0.0052252859025157,,
1.25677450168599,-0.137699602464728,-0.00510749622437645,,
1.26164572068477,-0.133585881110553,-0.00499080495421156,,
1.26651693968355,-0.129935315914813,-0.00488089324087193,,
1.27138815868234,-0.126052836467283,-0.00477069313634271,,
1.27625937768112,-0.122065112593159,-0.00466083500388015,,
1.2811305966799,-0.118133641596112,-0.00448588240971848,,
1.28600181567868,-0.114156944182354,-0.00438000659712978,,
1.29087303467747,-0.110147436325553,-0.00425489209794794,,
1.29574425367625,-0.106001128643382,-0.00416333656264234,,
1.30061547267503,-0.101959348219652,-0.00400554560814337,,
1.30548669167382,-0.0979880295670501,-0.00389839646177625,,
1.3103579106726,-0.0937124523251264,-0.00376932485725057,,
1.31522912967138,-0.0895756471209957,-0.0036247557720599,,
1.32010034867016,-0.0854517509436364,-0.00351248807604865,,
1.32497156766895,-0.0813020367127343,-0.00338402004434135,,
1.32984278666773,-0.077110009560748,-0.00322245636575103,,
1.33471400566651,-0.072882975638246,-0.00312060384664825,,
1.3395852246653,-0.0687151977344658,-0.00294564179703771,,
1.34445644366408,-0.0644601942539591,-0.0028204122565616,,
1.34932766266286,-0.0601152758161486,-0.00273796074259014,,
1.35419888166165,-0.0558791428226932,-0.00255814489590334,,
1.35907010066043,-0.0516121267756075,-0.00245516560247916,,
1.36394131965921,-0.0472695391342974,-0.00230476250534828,,
1.36881253865799,-0.0429342576435558,-0.00216339724140946,,
1.37368375765678,-0.0386075821706618,-0.00203065534682212,,
1.37855497665556,-0.0342562092194656,-0.001911579727639,,
1.38342619565434,-0.029952796888566,-0.00176592956946298,,
1.38829741465313,-0.0255886493796271,-0.00161359283304208,,
1.39316863365191,-0.0212092620474165,-0.00147691904764136,,
1.39803985265069,-0.0168667640521256,-0.0013334121245383,,
1.40291107164947,-0.0124902902155404,-0.00122026034405964,,
1.40778229064826,-0.00810444836994402,-0.00105568510501053,,
1.41265350964704,-0.00366607395706942,-0.000900703994727969,,
1.41752472864582,0.000654662467049484,-0.000787400927067861,,
1.42239594764461,0.00502923132572567,-0.000629874725136315,,
1.42726716664339,0.00942708573790104,-0.000529661150500793,,
1.43213838564217,0.0137517889983716,-0.000346312117760483,,
1.43700960464095,0.0181322520828132,-0.000208653389770941,,
1.44188082363974,0.0225335130437199,-8.76504349305307E-05,,
1.44675204263852,0.02683329471084,6.88451230761444E-05,,
1.4516232616373,0.0311891723745034,0.000180053808815916,,
1.45649448063609,0.0355389989318677,0.000330559339976055,,
1.46136569963487,0.039835194758218,0.00047274092433236,,
1.46623691863365,0.0442126098780052,0.00063882273156457,,
1.47110813763243,0.0485102400406634,0.000772053157676034,,
1.47597935663122,0.0527678880787379,0.000889540261452382,,
1.48085057563,0.057137235056793,0.00104942559787169,,
1.48572179462878,0.0613903783824003,0.00118241963776189,,
1.49059301362757,0.0655831451140454,0.00132560034787987,,
1.49546423262635,0.0698393588158119,0.00146757076054493,,
1.50033545162513,0.0740701130481126,0.00160804090865874,,
1.50520667062391,0.0783453317059593,0.00173722755447869,,
1.5100778896227,0.0825106443442102,0.00190434946108464,,
1.51494910862148,0.0866472702563025,0.00203167968711382,,
1.51982032762026,0.0908418074968276,0.00215678473084679,,
1.52469154661905,0.0950080165952711,0.00226856389533436,,
1.52956276561783,0.0990630646298493,0.00243065235133555,,
1.53443398461661,0.103143594545398,0.00255854044884662,,
1.5393052036154,0.107233380412434,0.00268639072456267,,
1.54417642261418,0.111161332803227,0.00281501004345142,,
1.54904764161296,0.115279133051277,0.00295990218981101,,
1.55391886061174,0.119257600973914,0.0031046619598869,,
1.55879007961053,0.123222128940559,0.00321118074299731,,
1.56366129860931,0.127099319272953,0.00335658033177877,,
1.56853251760809,0.131042645956046,0.00350379536673939,,
1.57340373660688,0.134886151796708,0.00360930556863881,,
1.57827495560566,0.138688577349051,0.00374977571675306,,
1.58314617460444,0.142425897479916,0.0038687378705502,,
1.58801739360322,0.146294504205967,0.00400471037682815,,
1.59288861260201,0.150035253297069,0.00413308700586335,,
1.59775983160079,0.153607467871987,0.00425383939130919,,
1.60263105059957,0.157299987404734,0.00436588015654804,,
1.60750226959836,0.160912161692732,0.00450862906783467,,
1.61237348859714,0.164629625230334,0.00462486805236306,,
1.61724470759592,0.1679542599116,0.00472922468950321,,
1.6221159265947,0.171500275437394,0.00486344163411134,,
1.62698714559349,0.174983381869182,0.00502077715115723,,
1.63185836459227,0.178355685821182,0.0050934328201202,,
1.63672958359105,0.18175434570284,0.00524841393040232,,
1.64160080258984,0.185056165472208,0.00533179523017724,,
