Time domain (s),Current (AC) (A),Potential (AC) (V),Frequency (Hz),Column 5
0,0.098190539924527,0.00125897133564878,1258.9,0.3
2.48232584001906E-05,0.147017342470653,0.00203043255855206,,
4.96465168003813E-05,0.190084970979342,0.00271555243601007,,
7.44697752005719E-05,0.225366372074906,0.00325788238539459,,
9.92930336007626E-05,0.251999128640693,0.00371529288869299,,
0.000124116292000953,0.269037744111713,0.00402626145650897,,
0.000148939550401144,0.275624037145725,0.00418113889897587,,
0.000173762808801334,0.271894583453048,0.00417923755378347,,
0.000198586067201525,0.257180578907099,0.00399052493390117,,
0.000223409325601716,0.233495898918735,0.00366312370259214,,
0.000248232584001906,0.200090161483857,0.00320336528455378,,
0.000273055842402097,0.159366843612968,0.00262903027099348,,
0.000297879100802288,0.112375969129497,0.00192607500851727,,
0.000322702359202478,0.0613239955051486,0.00114488514472333,,
0.000347525617602669,0.00845007859714737,0.00035808850436414,,
0.00037234887600286,-0.0450518759101872,-0.000473703442576578,,
0.00039717213440305,-0.0981576398354637,-0.0012692465447901,,
0.000421995392803241,-0.147204097540248,-0.00202785177012066,,
0.000446818651203432,-0.190236024521772,-0.00270572242657119,,
0.000471641909603622,-0.225908102969211,-0.00327594105518658,,
0.000496465168003813,-0.252784562238318,-0.00371969009191142,,
0.000521288426404003,-0.269758318814413,-0.00403484627662465,,
0.000546111684804194,-0.276346449591819,-0.00415906384294118,,
0.000570934943204385,-0.27228678478725,-0.00414874479875227,,
0.000595758201604575,-0.257652878959497,-0.0039949467943341,,
0.000620581460004766,-0.23347449593164,-0.00367417835367467,,
0.000645404718404957,-0.19988112937848,-0.00320540361426991,,
0.000670227976805147,-0.15897004792028,-0.00258336237039947,,
0.000695051235205338,-0.111976797817299,-0.00191404228793335,,
0.000719874493605529,-0.06068587272865,-0.00117765869207798,,
0.000744697752005719,-0.00768607039812245,-0.000344964017124472,,
0.00076952101040591,0.0453925756063321,0.000459251575300357,,
0.000794344268806101,0.0982034713628033,0.00129647769830576,,
0.000819167527206291,0.147099659927826,0.00201275607558138,,
0.000843990785606482,0.189970761950823,0.00270724843416836,,
0.000868814044006672,0.225178384372547,0.00327296712117198,,
0.000893637302406863,0.252238080104993,0.00372630370472793,,
0.000918460560807054,0.26907326634684,0.00402844225013022,,
0.000943283819207244,0.275661374712741,0.0041702623277744,,
0.000968107077607435,0.271827573053662,0.00417436912380253,,
0.000992930336007626,0.257400592649833,0.00398763182075523,,
0.00101775359440782,0.23328897349481,0.00366266891397293,,
0.00104257685280801,0.200209457923969,0.00318364773217628,,
0.0010674001112082,0.159354629342845,0.00259785807272372,,
0.00109222336960839,0.112426081254255,0.00193321190221507,,
0.00111704662800858,0.0613669807713771,0.00116398626674252,,
0.00114186988640877,0.00850198364229087,0.000373629398605857,,
0.00116669314480896,-0.0450879584329338,-0.000461713187195567,,
0.00119151640320915,-0.0981632875346762,-0.00127126158713731,,
0.00121633966160934,-0.147119561344099,-0.00201563959981055,,
0.00124116292000953,-0.190326925585288,-0.00271852500017955,,
0.00126598617840972,-0.225778430002371,-0.00326065495215921,,
0.00129080943680991,-0.252455606170694,-0.00372907353180185,,
0.0013156326952101,-0.269578219961748,-0.00402511489604329,,
0.00134045595361029,-0.276473029770995,-0.00416100080410997,,
0.00136527921201049,-0.272326856557853,-0.00413698878690694,,
0.00139010247041068,-0.257605545861335,-0.00398655238270651,,
0.00141492572881087,-0.233401972302069,-0.00364979784810249,,
0.00143974898721106,-0.200053070443394,-0.00317696973663351,,
0.00146457224561125,-0.159099003718965,-0.00262189337729568,,
0.00148939550401144,-0.111980831888165,-0.00191719156213876,,
0.00151421876241163,-0.0606787458701199,-0.00114152080481489,,
0.00153904202081182,-0.00770628557546245,-0.000342581856252799,,
0.00156386527921201,0.045456313926016,0.000455309160701134,,
0.0015886885376122,0.0981961876237395,0.00126400140736838,,
0.00161351179601239,0.147103671587187,0.00203890642120319,,
0.00163833505441258,0.190036338013901,0.00272343452551826,,
0.00166315831281277,0.225442481545246,0.00327656433477097,,
0.00168798157121296,0.252242988224547,0.00372437496263078,,
0.00171280482961315,0.269126986723873,0.00401843690050097,,
0.00173762808801334,0.275780133276737,0.00416085697036017,,
0.00176245134641354,0.271771454645614,0.00416606786165108,,
0.00178727460481373,0.257302049263177,0.00400368366727166,,
0.00181209786321392,0.233364589912044,0.0036718633152204,,
0.00183692112161411,0.200279023234903,0.00318065599017325,,
0.0018617443800143,0.159363190537683,0.00260866615166355,,
0.00188656763841449,0.112462320657536,0.00189812194656014,,
0.00191139089681468,0.0613086884473623,0.00116813963750895,,
0.00193621415521487,0.00848961249163491,0.00034795712897262,,
0.00196103741361506,-0.0450657262201608,-0.000460377588086924,,
0.00198586067201525,-0.0981368867820082,-0.00128784904314205,,
0.00201068393041544,-0.147132560016889,-0.00200952735035198,,
0.00203550718881563,-0.190203572662805,-0.00270801554750211,,
0.00206033044721582,-0.225783719117507,-0.00327849992609419,,
0.00208515370561601,-0.25260715276623,-0.00372349689183205,,
0.0021099769640162,-0.269896059922985,-0.00402865594598723,,
0.0021348002224164,-0.276209829058488,-0.00419502228047808,,
0.00215962348081659,-0.272456529524692,-0.00414273254799635,,
0.00218444673921678,-0.257975290867715,-0.00398924686829272,,
0.00220926999761697,-0.233270327122807,-0.00365434025491629,,
0.00223409325601716,-0.20009749004593,-0.00316661644631377,,
0.00225891651441735,-0.158857631812145,-0.0025948745497919,,
0.00228373977281754,-0.111914538656932,-0.00192752293493514,,
0.00230856303121773,-0.0606709466664455,-0.00115857537804631,,
0.00233338628961792,-0.00773779615122746,-0.000363611720369583,,
0.00235820954801811,0.045516959458036,0.000450869492279793,,
0.0023830328064183,0.0981562727336702,0.00126861230644426,,
0.00240785606481849,0.14711644614493,0.00203261609186356,,
0.00243267932321868,0.190074213457033,0.00272141811332549,,
0.00245750258161887,0.225701110310771,0.003250723574173,,
0.00248232584001906,0.252183440856263,0.00371409838364389,,
0.00250714909841925,0.269165063870548,0.00402750801567686,,
0.00253197235681945,0.275602925508192,0.00417566499739896,,
0.00255679561521964,0.271718092852657,0.00416940754434503,,
0.00258161887361983,0.257528988160898,0.00399071397254414,,
0.00260644213202002,0.233179694997349,0.00365367177043963,,
0.00263126539042021,0.200376289165786,0.00322136779069071,,
0.0026560886488204,0.159317471067868,0.00261041407418894,,
0.00268091190722059,0.112400554550275,0.00192898182011536,,
0.00270573516562078,0.0613405576072043,0.00115807675437951,,
0.00273055842402097,0.00849526019084741,0.000378095094086817,,
0.00275538168242116,-0.0451372637435192,-0.000458874867859116,,
0.00278020494082135,-0.0982326735535727,-0.00127402319514003,,
0.00280502819922154,-0.147159140061596,-0.00201389167728472,,
0.00282985145762173,-0.190207248149594,-0.00271293603160272,,
0.00285467471602192,-0.225668389513747,-0.00328366561249194,,
0.00287949797442211,-0.252568918739021,-0.0037327597853416,,
0.0029043212328223,-0.269801707487729,-0.00402581625680609,,
0.0029291444912225,-0.276237036625329,-0.00414069558812491,,
0.00295396774962269,-0.271845278142463,-0.00415553512160427,,
0.00297879100802288,-0.25774525918233,-0.00398246613435704,,
0.00300361426642307,-0.233434917214142,-0.00365810458963445,,
0.00302843752482326,-0.200070910001224,-0.00317230541359326,,
0.00305326078322345,-0.159012091903306,-0.00257376523465158,,
0.00307808404162364,-0.111933095382916,-0.00189334666605534,,
0.00310290730002383,-0.0606051464883189,-0.00115088369702665,,
0.00312773055842402,-0.007702296327606,-0.000366695242003612,,
0.00315255381682421,0.0454178781952643,0.000435316269430608,,
0.0031773770752244,0.0981794238181405,0.0012569795806705,,
0.00320220033362459,0.147032111652324,0.00201283278691511,,
0.00322702359202478,0.189934701839581,0.00272245371632662,,
0.00325184685042497,0.225436654553995,0.00327814513617719,,
0.00327667010882516,0.252208183157575,0.00374697466939189,,
0.00330149336722536,0.268935570061278,0.00404286124112119,,
0.00332631662562555,0.275811621440997,0.00416724592855688,,
0.00335113988402574,0.2717331982069,0.00416340762219614,,
0.00337596314242593,0.257614958693355,0.00397615525733919,,
0.00340078640082612,0.233225593759203,0.00369222743455033,,
0.00342560965922631,0.200163738454153,0.00320284200367205,,
0.0034504329176265,0.159276502837072,0.00263135626821009,,
0.00347525617602669,0.112420433555043,0.00192451612463485,,
0.00350007943442688,0.0612953984250091,0.00116728211438888,,
0.00352490269282707,0.00840218521136514,0.00035665290655329,,
0.00354972595122726,-0.0450992090083492,-0.00044631612670365,,
0.00357454920962745,-0.0981682180657347,-0.00126211102093743,,
0.00359937246802764,-0.147162412141298,-0.00206033764997482,,
0.00362419572642783,-0.19010307947523,-0.00271350451737673,,
0.00364901898482802,-0.225909223544451,-0.00327493695862602,,
0.00367384224322822,-0.252759595821958,-0.00371734080732589,,
0.00369866550162841,-0.269888036604263,-0.00404155851829824,,
0.0037234887600286,-0.276147211314045,-0.00417269106338392,,
0.00374831201842879,-0.272402293683048,-0.00416661169021104,,
0.00377313527682898,-0.257825223431497,-0.00400099192137615,,
0.00379795853522917,-0.233303630618956,-0.00365348410164179,,
0.00382278179362936,-0.200014119248031,-0.00319462704177065,,
0.00384760505202955,-0.158976771371723,-0.00260923600728269,,
0.00387242831042974,-0.111917990028673,-0.00192564213742141,,
0.00389725156882993,-0.0606414531261136,-0.00113104422842314,,
0.00392207482723012,-0.00771758097388746,-0.000343550336836973,,
0.00394689808563031,0.045459765297757,0.000436317626300919,,
0.0039717213440305,0.0981801633977993,0.00126665068806142,,
0.00399654460243069,0.147166692738717,0.00202464633226018,,
0.00402136786083088,0.189976947526151,0.0027173332348216,,
0.00404619111923107,0.22547654703256,0.0032929065884777,,
0.00407101437763127,0.252063225544454,0.00373869258507398,,
0.00409583763603146,0.269136646082447,0.00403815171318778,,
0.00412066089443165,0.275926211465098,0.00416817194393904,,
0.00414548415283184,0.271806775177197,0.00413586277412037,,
0.00417030741123203,0.257468701212955,0.00399599335609713,,
0.00419513066963222,0.233369117036016,0.00367012635145647,,
0.00421995392803241,0.200252801774274,0.00319952423850189,,
0.0042447771864326,0.159389232706274,0.00261703864576734,,
0.00426960044483279,0.112443001940388,0.00192031069974963,,
0.00429442370323298,0.0612699165440384,0.00113386336992649,,
0.00431924696163317,0.0084635479115391,0.000365636351633558,,
0.00434407022003336,-0.0450549686978512,-0.00047880200655781,,
0.00436889347843355,-0.0982481374918926,-0.00125776861152804,,
0.00439371673683374,-0.147223057673318,-0.00203044625700421,,
0.00441853999523393,-0.190303438328245,-0.0027313714088355,,
0.00444336325363412,-0.225623611327133,-0.00328636009807814,,
0.00446818651203432,-0.252545969358094,-0.00372329689442719,,
0.00449300977043451,-0.269538686067261,-0.00404185851440575,,
0.0045178330288347,-0.276194544412207,-0.00416150216746747,,
0.00454265628723489,-0.272164731732046,-0.00415219543891077,,
0.00456747954563508,-0.257715227765882,-0.00396908411621277,,
0.00459230280403527,-0.23319852066139,-0.00364578968093143,,
0.00461712606243546,-0.199983281017411,-0.00319829000794103,,
0.00464194932083565,-0.159113391905054,-0.00260375799616996,,
0.00466677257923584,-0.111914897241009,-0.00190842044307038,,
0.00469159583763603,-0.0606895033924295,-0.00113484143942699,,
0.00471641909603622,-0.00771121610652099,-0.000358435075209496,,
0.00474124235443641,0.0454588688375646,0.000465607657211375,,
0.0047660656128366,0.0981406295033117,0.00127801766385849,,
0.00479088887123679,0.14706288264843,0.00202822984740703,,
0.00481571212963698,0.190133603944783,0.00270809499852653,,
0.00484053538803718,0.225494028006313,0.00327713145069986,,
0.00486535864643737,0.252275238379971,0.00373593097707126,,
0.00489018190483756,0.269012598403315,0.00404076811759513,,
0.00491500516323775,0.275736049846773,0.00415348720297182,,
0.00493982842163794,0.271757245751563,0.00416339666343424,,
0.00496465168003813,0.257549225749743,0.00397040738671395,,
0.00498947493843832,0.233226893626482,0.00364282807552385,,
0.00501429819683851,0.20021165425144,0.00318142310350744,,
0.0050391214552387,0.159403441600325,0.0026041484020638,,
0.00506394471363889,0.112525162517027,0.00194528023877494,,
0.00508876797203908,0.0613176082262773,0.00114677553115383,,
0.00511359123043927,0.00844297415012212,0.000368408918398178,,
0.00513841448883946,-0.0450436732994262,-0.000434950520751265,,
0.00516323774723965,-0.0981549056318767,-0.00127406703018762,,
0.00518806100563984,-0.147244707186966,-0.00204272554973084,,
0.00521288426404003,-0.19033382832877,-0.00269609241453761,,
0.00523770752244023,-0.225697165885925,-0.00327694241205689,,
0.00526253078084042,-0.252655606439632,-0.00371974625556648,,
0.00528735403924061,-0.269374768321069,-0.00402629570263979,,
0.0053121772976408,-0.276380156495056,-0.00417225682244293,,
0.00533700055604099,-0.272370424523206,-0.00418099643507075,,
0.00536182381444118,-0.257934501928958,-0.00398740853598101,,
0.00538664707284137,-0.23342801447066,-0.00365233754117655,,
0.00541147033124156,-0.200061990222309,-0.00319706399645181,,
0.00543629358964175,-0.159073140842413,-0.00261930026025725,,
0.00546111684804194,-0.112016152419748,-0.00190575883377031,,
0.00548594010644213,-0.0606367018870935,-0.00117276012550116,,
0.00551076336484232,-0.00768934247782494,-0.000342392817609838,,
0.00553558662324251,0.0454297338813096,0.000436529952312803,,
0.0055604098816427,0.0982921760988473,0.00127762862781067,,
0.00558523314004289,0.147131013623057,0.00202019433523182,,
0.00561005639844309,0.190109175404539,0.00268987879653171,,
0.00563487965684328,0.225523162962568,0.00327577256422229,,
0.00565970291524347,0.252142450213963,0.00371767367971909,,
0.00568452617364366,0.26885798143162,0.00403718186275803,,
0.00570934943204385,0.275807452901102,0.00418580733155194,,
0.00573417269044404,0.271635035815826,0.00416376378195826,,
0.00575899594884423,0.257333201254865,0.00399463172992931,,
0.00578381920724442,0.233380950310556,0.0036599511410178,,
0.00580864246564461,0.200125504426945,0.00319040654858815,,
0.0058334657240448,0.159367762484665,0.00259653206253185,,
0.00585828898244499,0.112462679241613,0.00189230010429231,,
0.00588311224084518,0.0613425746426374,0.00114807962382191,,
0.00590793549924537,0.00847376755773316,0.000350507780808584,,
0.00593275875764556,-0.0450396840515698,-0.000442754529081046,,
0.00595758201604575,-0.0980780341703732,-0.00126039597469774,,
0.00598240527444594,-0.14721449647848,-0.00202500249202231,,
0.00600722853284614,-0.190253684787564,-0.00271292507284038,,
0.00603205179124633,-0.225698062346117,-0.00330295851284523,,
0.00605687504964652,-0.252508228383992,-0.00373841450648982,,
0.00608169830804671,-0.269577816554661,-0.00403654899425732,,
0.0061065215664469,-0.27638558007922,-0.00418157450976198,,
0.00613134482484709,-0.272265852441756,-0.00415310912568545,,
0.00615616808324728,-0.257672197676644,-0.00396198283849092,,
0.00618099134164747,-0.233331869115019,-0.0036576922662177,,
0.00620581460004766,-0.199950694689415,-0.0031768806966932,,
0.00623063785844785,-0.159101558630514,-0.00261495785084831,,
0.00625546111684804,-0.111982983392627,-0.00190931084247614,,
0.00628028437524823,-0.06068349710914,-0.00115198505259917,,
0.00630510763364842,-0.00768042269890995,-0.000351398180214346,,
0.00632993089204861,0.0454581292579058,0.00046448438411506,,
0.0063547541504488,0.0981827183093478,0.00125180156566529,,
0.00637957740884899,0.147146836145454,0.00202797231650198,,
0.00640440066724919,0.190022487703928,0.00271368122741311,,
0.00642922392564938,0.225702948054166,0.00327000551576395,,
0.00645404718404957,0.252166856342702,0.00371759696838581,,
0.00647887044244976,0.269302222279994,0.00403958731099863,,
0.00650369370084995,0.275975561598693,0.0041797717934271,,
0.00652851695925014,0.272010226817876,0.00415787344742835,,
0.00655334021765033,0.257550144621441,0.00396800467816405,,
0.00657816347605052,0.233371671947564,0.00365822787570647,,
0.00660298673445071,0.200185791374888,0.00319006134758748,,
0.0066278099928509,0.1593837642991,0.00259471838743508,,
0.00665263325125109,0.112438093820834,0.00190308626570834,,
0.00667745650965128,0.0613659050191462,0.00116992043632003,,
0.00670227976805147,0.00843750574294811,0.000362396667642262,,
0.00672710302645166,-0.0451072323270717,-0.000435884755204619,,
0.00675192628485185,-0.0982355870491982,-0.00127903271918095,,
0.00677674954325205,-0.147118306299829,-0.00202136144337572,,
0.00680157280165224,-0.190142792661756,-0.00269896498000488,,
0.00682639606005243,-0.225611778052593,-0.00330290234919017,,
0.00685121931845262,-0.252574028562118,-0.00372188321413969,,
0.00687604257685281,-0.269648726555885,-0.00403865170670015,,
0.006900865835253,-0.276169040119731,-0.00417938138753327,,
0.00692568909365319,-0.272447430453739,-0.00415546799918776,,
0.00695051235205338,-0.257510341788895,-0.0039778908512571,,
0.00697533561045357,-0.233444598984221,-0.00367470300440154,,
0.00700015886885376,-0.200004975354068,-0.00320532553309105,,
0.00702498212725395,-0.159081702037251,-0.00260645248175617,,
0.00704980538565414,-0.112005753481515,-0.00192159013520277,,
0.00707462864405433,-0.0606856934366115,-0.0011644424252073,,
0.00709945190245452,-0.00771067823040551,-0.000368721243112713,,
0.00712427516085471,0.0454186177749231,0.000447528439740719,,
0.0071490984192549,0.0981043901000315,0.00124071403829706,,
0.0071739216776551,0.146996746297731,0.00203355306600761,,
0.00719874493605529,0.190146871555632,0.00269450065436949,,
0.00722356819445548,0.225462517430548,0.00328805459663961,,
0.00724839145285567,0.252279048335789,0.00373244609078194,,
0.00727321471125586,0.269134113582403,0.00403637091437625,,
0.00729803796965605,0.275753172236449,0.00418842099626904,,
0.00732286122805624,0.272025735579205,0.00416399665564882,,
0.00734768448645643,0.257360139883648,0.00400789457153783,,
0.00737250774485662,0.233223419843236,0.00365838403806373,,
0.00739733100325681,0.20020746330004,0.00317676015031232,,
0.007422154261657,0.15939270648952,0.0026082113630439,,
0.00744697752005719,0.112486345790694,0.00192027782346393,,
0.00747180077845738,0.0613230766334513,0.00116135890357327,,
0.00749662403685757,0.00849907014666537,0.000379663566886013,,
0.00752144729525776,-0.0451187070175352,-0.000445770928298117,,
0.00754627055365796,-0.0981709522693217,-0.00126591782085805,,
0.00757109381205815,-0.14712175767157,-0.00201906832244481,,
0.00759591707045834,-0.190073541111889,-0.00271475244639019,,
0.00762074032885853,-0.225919577659674,-0.00328625872953037,,
0.00764556358725872,-0.252417013559409,-0.00371531480621634,,
0.00767038684565891,-0.2695113888544,-0.00401473968819932,,
0.0076952101040591,-0.276246852864437,-0.00414319966522303,,
0.00772003336245929,-0.272129052616386,-0.00415809673220213,,
0.00774485662085948,-0.258003887947855,-0.00398228805447598,,
0.00776967987925967,-0.23325208415789,-0.00365115673458005,,
0.00779450313765986,-0.200118287922395,-0.00320541457303181,,
0.00781932639606005,-0.15890339610497,-0.00260824560917472,,
0.00784414965446024,-0.111973705029635,-0.00194276520291492,,
0.00786897291286043,-0.0606669125955795,-0.0011561055470799,,
0.00789379617126062,-0.00772780062008152,-0.00035157626009541,,
0.00791861942966081,0.0454113340358593,0.000439903881137571,,
0.00794344268806101,0.0981918173803013,0.00123146210354941,,
0.0079682659464612,0.147070883555648,0.0020264380898336,,
0.00799308920486139,0.190310811713328,0.00270324848606895,,
0.00801791246326158,0.225534279068954,0.00327450134784035,,
0.00804273572166177,0.2523098417434,0.00370245469910824,,
