Time domain (s),Current (AC) (A),Potential (AC) (V),Frequency (Hz),Column 5
0,-0.313589688245075,-0.00853575652723393,10,0.4
0.000244140625,-0.310332291159897,-0.0084778483703527,,
0.00048828125,-0.307039700811588,-0.00840799598958464,,
0.000732421875,-0.304268275258398,-0.00836852406220778,,
0.0009765625,-0.300355733035266,-0.00828895515010286,,
0.001220703125,-0.29706677327317,-0.00823886761600479,,
0.00146484375,-0.293307652596466,-0.0081682716836009,,
0.001708984375,-0.289469303159336,-0.0080818404712395,,
0.001953125,-0.285965494674398,-0.00801954950700701,,
0.002197265625,-0.282372092690974,-0.00794596307509554,,
0.00244140625,-0.278499779705398,-0.00790540248147886,,
0.002685546875,-0.27461598938276,-0.00783942486381672,,
0.0029296875,-0.270518345820598,-0.00774992613066283,,
0.003173828125,-0.266772986236799,-0.00767564206365101,,
0.00341796875,-0.262547920810122,-0.00761016064080566,,
0.003662109375,-0.258359454034788,-0.00751260577747814,,
0.00390625,-0.254312814353136,-0.00742830894341795,,
0.004150390625,-0.249719068752294,-0.00735512687325235,,
0.00439453125,-0.245396094613545,-0.00727628225746191,,
0.004638671875,-0.241168218410445,-0.00716989660757505,,
0.0048828125,-0.236690358779214,-0.00707244690792486,,
0.005126953125,-0.232262976007915,-0.00697726044911029,,
0.00537109375,-0.227925538082156,-0.00688566584829786,,
0.005615234375,-0.223172690824197,-0.00677416124531627,,
0.005859375,-0.218402100540067,-0.00668103658705377,,
0.006103515625,-0.213740193610965,-0.00659234509621376,,
0.00634765625,-0.208960234072091,-0.00647371898672766,,
0.006591796875,-0.204292705590142,-0.00639578529575058,,
0.0068359375,-0.199311307074279,-0.00629172361501995,,
0.007080078125,-0.194425943419539,-0.00619486638679279,,
0.00732421875,-0.189404901244542,-0.00609062696463525,,
0.007568359375,-0.184619144479295,-0.00596217916013542,,
0.0078125,-0.179617367834365,-0.00586049921452503,,
0.008056640625,-0.174350909742924,-0.00574688689445635,,
0.00830078125,-0.169361078897792,-0.00564761090164501,,
0.008544921875,-0.164212731973964,-0.00552373845770893,,
0.0087890625,-0.159030070154637,-0.00539126184753247,,
0.009033203125,-0.153769233616043,-0.00529921696843827,,
0.00927734375,-0.148359894389761,-0.00519304460826353,,
0.009521484375,-0.143172547943062,-0.00506672970088617,,
0.009765625,-0.137960255855609,-0.00493536841816367,,
0.010009765625,-0.132564502048705,-0.00484501504498214,,
0.01025390625,-0.127026804032434,-0.0047139366673643,,
0.010498046875,-0.121754255925409,-0.00457953008152767,,
0.0107421875,-0.116244021537106,-0.0044685468533987,,
0.010986328125,-0.110879127713014,-0.00432426821247667,,
0.01123046875,-0.105204404346116,-0.00419480135712913,,
0.011474609375,-0.0997015482459233,-0.00406323715294432,,
0.01171875,-0.094114017505984,-0.00395194732085358,,
0.011962890625,-0.0885393694913174,-0.0038051921493838,,
0.01220703125,-0.0829172310666686,-0.00367116326407979,,
0.012451171875,-0.0772659893944721,-0.00355968384113359,,
0.0126953125,-0.0716355357562382,-0.00344177017853387,,
0.012939453125,-0.0659793166674591,-0.00328961166768682,,
0.01318359375,-0.0602643055051633,-0.00314553446704879,,
0.013427734375,-0.0545607716799285,-0.00302655583706635,,
0.013671875,-0.0488991652696718,-0.00286660928936433,,
0.013916015625,-0.0431630732842025,-0.00277971891165008,,
0.01416015625,-0.0374461882709579,-0.00262532234000235,,
0.014404296875,-0.0316871416113666,-0.00249082984580973,,
0.0146484375,-0.0259333065997265,-0.00233054262703902,,
0.014892578125,-0.0201275307821009,-0.00221238012644198,,
0.01513671875,-0.0143961819818457,-0.00206199754868486,,
0.015380859375,-0.00865423421216162,-0.00196062716939327,,
0.015625,-0.00292634032459315,-0.00178569405704732,,
0.015869140625,0.00286406405946853,-0.00164776670977984,,
0.01611328125,0.0086465631348402,-0.00150603717715514,,
0.016357421875,0.0144203663706529,-0.00135237082653639,,
0.0166015625,0.0202047392969733,-0.00123481412796922,,
0.016845703125,0.0259166761725564,-0.00108199353030702,,
0.01708984375,0.0317028936709045,-0.000966162404758997,,
0.017333984375,0.0374408595073224,-0.000801705668349584,,
0.017578125,0.0431956900022791,-0.000669039467318111,,
0.017822265625,0.0487942588954632,-0.000523313714945406,,
0.01806640625,0.0544912342423775,-0.000399156884726359,,
0.018310546875,0.0602669406080599,-0.000224851792088643,,
0.0185546875,0.0659353397280059,-8.8251580808496E-05,,
0.018798828125,0.0715922615108907,7.71160804138304E-05,,
0.01904296875,0.077170715785297,0.000189890053419184,,
0.019287109375,0.0829597440600682,0.000329058628317558,,
0.01953125,0.0885330745232865,0.0004686834062122,,
0.019775390625,0.0940233992452597,0.000615228250326449,,
0.02001953125,0.099700259973396,0.00074329391075878,,
0.020263671875,0.105193922492372,0.000899099083214505,,
0.0205078125,0.110685711160399,0.00104795160352156,,
0.020751953125,0.116140725503556,0.00115944880061036,,
0.02099609375,0.121762746812521,0.00130850276120142,,
0.021240234375,0.127078159259998,0.00146996011103218,,
0.021484375,0.132449787235936,0.00160205753949727,,
0.021728515625,0.137867558791488,0.00173454599910228,,
0.02197265625,0.143208033995404,0.00186819570269581,,
0.022216796875,0.148434906985552,0.00200938164278952,,
0.0224609375,0.153841903898149,0.00214060221354906,,
0.022705078125,0.158985858983815,0.00227311437201072,,
0.02294921875,0.164175254954989,0.00242276080402437,,
0.023193359375,0.169369335553534,0.00255372068735804,,
0.0234375,0.174467381290957,0.00270187705374303,,
0.023681640625,0.179687695802785,0.00282940948989463,,
0.02392578125,0.184482411917879,0.00300331170196477,,
0.024169921875,0.18954743103233,0.00312005227114698,,
0.0244140625,0.194480577886263,0.00328261458018142,,
0.024658203125,0.199366644235109,0.00337286871439968,,
0.02490234375,0.204314079202527,0.00351899882851825,,
0.025146484375,0.208954436845719,0.00363223196687601,,
0.025390625,0.213845656284674,0.00378277895545276,,
0.025634765625,0.218508470860329,0.00391210361765904,,
0.02587890625,0.223138053860566,0.00403481629878444,,
0.026123046875,0.227904457258982,0.00416116675444744,,
0.0263671875,0.232182927437699,0.00427510197144176,,
0.026611328125,0.236645503472129,0.00442918897677069,,
0.02685546875,0.241157238815042,0.00453415121406398,,
0.027099609375,0.245436909429523,0.00464268012932356,,
0.02734375,0.250009105744454,0.00478437559484135,,
0.027587890625,0.253982840912631,0.00488521126867392,,
0.02783203125,0.258313310455175,0.00502870192260296,,
0.028076171875,0.262500898862877,0.00514513144428808,,
0.0283203125,0.266574650825443,0.00527455090192142,,
0.028564453125,0.270558926405207,0.00539533212620835,,
0.02880859375,0.274388843513068,0.0055257706346894,,
0.029052734375,0.278268183439702,0.00562666851802129,,
0.029296875,0.281926174723016,0.00570204273245167,,
0.029541015625,0.285944413851225,0.00582685572477182,,
0.02978515625,0.289580387385891,0.00594803982962588,,
0.030029296875,0.293193172015067,0.00605786921965912,,
0.0302734375,0.296573833357967,0.0061497852362189,,
0.030517578125,0.300071141922426,0.00630728783930135,,
0.03076171875,0.303551585828346,0.00637497177466129,,
0.031005859375,0.306749312472375,0.0064745543714344,,
0.03125,0.31002269584846,0.00659743294455817,,
0.031494140625,0.313390474466087,0.00667278642248892,,
0.03173828125,0.316365447078584,0.00677603937972693,,
0.031982421875,0.319596200345585,0.00684758919112216,,
0.0322265625,0.322243014810684,0.00696474152794302,,
0.032470703125,0.325167861910302,0.00704588641403303,,
0.03271484375,0.328089898233497,0.00717370619882463,,
0.032958984375,0.33070110953057,0.00722877937994681,,
0.033203125,0.333276951890985,0.00733183385925829,,
0.033447265625,0.336055170153864,0.00742037575106425,,
0.03369140625,0.338515067986826,0.00749021628240376,,
0.033935546875,0.34110941462536,0.00757291344362221,,
0.0341796875,0.343014184114757,0.00765096562888434,,
0.034423828125,0.345259291782719,0.00774426802857375,,
0.03466796875,0.347730666952741,0.00784643380075067,,
0.034912109375,0.349849055450295,0.0078886177660662,,
0.03515625,0.351977515896697,0.0079712556801419,,
0.035400390625,0.35376985432917,0.0080430484048204,,
0.03564453125,0.355655885309079,0.00812385261984216,,
0.035888671875,0.357415197118579,0.00817034977711684,,
0.0361328125,0.359115014160457,0.00825204269927315,,
0.036376953125,0.360500961168421,0.00830157034787637,,
0.03662109375,0.361940078697055,0.00836349546100523,,
0.036865234375,0.363242873569168,0.00842869101638888,,
0.037109375,0.364847124212661,0.00851072460961344,,
0.037353515625,0.366429825570242,0.00853454196081671,,
0.03759765625,0.367507524097138,0.00859236717169898,,
0.037841796875,0.3683460723967,0.00867583454576693,,
0.0380859375,0.369197269190166,0.0086901486553459,,
0.038330078125,0.370582513504024,0.00875233445590062,,
0.03857421875,0.371061282421428,0.00878365249531887,,
0.038818359375,0.371833777475047,0.00884847775606312,,
0.0390625,0.372356347658377,0.00887452279981726,,
0.039306640625,0.373135166958948,0.0089137829186603,,
0.03955078125,0.373429361557901,0.00895664230139781,,
0.039794921875,0.373832239511881,0.00898716642910946,,
0.0400390625,0.373974417952616,0.00904585664826874,,
0.040283203125,0.374496285441841,0.00902250438713237,,
0.04052734375,0.37460965342424,0.00910098018946215,,
0.040771484375,0.374749255319921,0.00911425154933632,,
0.041015625,0.374494411590892,0.0091483216185142,,
0.041259765625,0.374403061357141,0.00916205510609869,,
0.04150390625,0.374204667387943,0.0091775274973096,,
0.041748046875,0.374111677534612,0.00922958203653179,,
0.0419921875,0.37331130894813,0.00921884645434767,,
0.042236328125,0.373038663635088,0.00923164383708386,,
0.04248046875,0.372664127676708,0.00925677647484635,,
0.042724609375,0.371859542925592,0.00924568540980841,,
0.04296875,0.371106957538303,0.00927878086349532,,
0.043212890625,0.370460478960987,0.00927724043779543,,
0.04345703125,0.369362870767761,0.00927017817843367,,
0.043701171875,0.368198740865855,0.00926752390645902,,
0.0439453125,0.367169528232258,0.00927747446400762,,
0.044189453125,0.366220656958089,0.00926822302273811,,
0.04443359375,0.364900060501963,0.00927688495494206,,
0.044677734375,0.363503338851044,0.00925691866798761,,
0.044921875,0.361994654605937,0.0092715290132781,,
0.045166015625,0.360511033117271,0.00926175323479939,,
0.04541015625,0.358868836992066,0.00925134943661199,,
0.045654296875,0.357211884290641,0.0092306366356647,,
0.0458984375,0.355391672325306,0.00919864317882446,,
0.046142578125,0.35347683088706,0.00919673542084221,,
0.04638671875,0.351453071862418,0.00914363813191565,,
0.046630859375,0.349360917278147,0.00912957286033445,,
0.046875,0.347810071386694,0.00910686935540639,,
0.047119140625,0.345153419204115,0.00907360800972068,,
0.04736328125,0.343195947656785,0.00904009782603765,,
0.047607421875,0.340620573759107,0.00898788924424521,,
0.0478515625,0.33802997482247,0.00894999477203218,,
0.048095703125,0.335667283007475,0.00891607282071005,,
0.04833984375,0.332979243821504,0.00887504713702647,,
0.048583984375,0.330624984335777,0.00884843035834937,,
0.048828125,0.327718173051541,0.00880345289027451,,
0.049072265625,0.324905757008847,0.00876226131459257,,
0.04931640625,0.321916496282865,0.00868270721427322,,
0.049560546875,0.319057468197821,0.0086580248547925,,
0.0498046875,0.31585177768726,0.00856986510705449,,
0.050048828125,0.312781707139114,0.00855816972116497,,
0.05029296875,0.309442036285718,0.00849068722608859,,
0.050537109375,0.306345966055659,0.00845062430846744,,
0.05078125,0.303053844170087,0.00835940740818675,,
0.051025390625,0.299481347336309,0.00830012471760444,,
0.05126953125,0.296260900249527,0.00825184125898959,,
0.051513671875,0.292739700085471,0.00818843496730315,,
0.0517578125,0.289245670760172,0.00810367008081858,,
0.052001953125,0.285315268395185,0.00804087107234119,,
0.05224609375,0.281641349378807,0.00797552147438729,,
0.052490234375,0.277812603427789,0.0079112975721376,,
0.052734375,0.27401219947237,0.00782995124576358,,
0.052978515625,0.269966086811298,0.00773265558868319,,
0.05322265625,0.265976423910057,0.00765032575974756,,
0.053466796875,0.261901735022017,0.00758861393633081,,
0.0537109375,0.257783713330786,0.00750646184882164,,
0.053955078125,0.253638989263537,0.00740419239414569,,
0.05419921875,0.249255114968954,0.00732799760679459,,
0.054443359375,0.244967509766862,0.00723144550135046,,
0.0546875,0.240741009673053,0.00714889349563075,,
0.054931640625,0.236195076550325,0.00703865826267291,,
0.05517578125,0.231803209110289,0.00697954146408897,,
0.055419921875,0.227257071035113,0.00688456829498652,,
0.0556640625,0.222527207730197,0.0067712640600579,,
0.055908203125,0.217776263602108,0.00667796166036849,,
0.05615234375,0.213146007186687,0.0065693261002524,,
0.056396484375,0.208392750023833,0.0064887944220855,,
0.056640625,0.20368423105238,0.00636726964616274,,
0.056884765625,0.198682688638818,0.00628266472696248,,
0.05712890625,0.193788863375888,0.00615617207815866,,
0.057373046875,0.1889316367643,0.0060650173873773,,
0.0576171875,0.183976706393088,0.00594678082785238,,
0.057861328125,0.178921290764749,0.00585636968870684,,
0.05810546875,0.173789047247512,0.0057256438315858,,
0.058349609375,0.168798982171011,0.00561629730576207,,
0.05859375,0.163607946580257,0.00549003275845594,,
0.058837890625,0.158345968163741,0.00538704937571532,,
0.05908203125,0.153109930871296,0.00526896982111724,,
0.059326171875,0.147928030303918,0.00515182933372449,,
0.0595703125,0.142551717700607,0.00502786950025369,,
0.059814453125,0.137281746138637,0.00488369454183113,,
0.06005859375,0.131912226245016,0.0047865884756062,,
0.060302734375,0.126489096646908,0.00466403279940764,,
0.060546875,0.120984161743319,0.00453210126294046,,
0.060791015625,0.115584426003149,0.00440807329525583,,
0.06103515625,0.110105988523131,0.00429074025465104,,
0.061279296875,0.104496879218361,0.00415359496966161,,
0.0615234375,0.0989022337006003,0.00406124052424905,,
0.061767578125,0.0933511844963194,0.0039210736350026,,
0.06201171875,0.0878656907963234,0.00381505679857641,,
0.062255859375,0.0822205391397104,0.00365955674890373,,
0.0625,0.0765008140711216,0.00350964962946376,,
0.062744140625,0.070949530635472,0.00338427082693471,,
0.06298828125,0.0652260871439068,0.00325792925834323,,
0.063232421875,0.0594883555388575,0.00313395165072983,,
0.0634765625,0.0538269833599693,0.00298753122561379,,
0.063720703125,0.0481255576170519,0.00282626939135255,,
0.06396484375,0.0424787370619376,0.00269304922954072,,
0.064208984375,0.0367862121110266,0.00258654360419053,,
0.064453125,0.0309980914828087,0.00244437416153431,,
0.064697265625,0.0252807380068269,0.00231802370587175,,
0.06494140625,0.0195774384129607,0.00217316444295568,,
0.065185546875,0.0138310402472734,0.00204472848788395,,
0.0654296875,0.00808417361884888,0.00189509390529841,,
0.065673828125,0.00230799879042921,0.00175592236804301,,
0.06591796875,-0.00348217136226387,0.00160494880004158,,
0.066162109375,-0.00926821318708551,0.00147774518552968,,
0.06640625,-0.0150403182454759,0.00132822021015766,,
0.066650390625,-0.0208515399424212,0.00117421022611364,,
0.06689453125,-0.0266299106899215,0.00102797642949604,,
0.067138671875,-0.032370862976289,0.000901009803553343,,
0.0673828125,-0.0381481211247884,0.000754065041228547,,
0.067626953125,-0.0437723090739124,0.000625060313590886,,
0.06787109375,-0.0494811716627827,0.000473624617879587,,
0.068115234375,-0.0552623531867061,0.000342638073332235,,
0.068359375,-0.0609159371725885,0.000197186338993127,,
0.068603515625,-0.0666442995228941,7.21185839611671E-05,,
0.06884765625,-0.0722898025265601,-0.000103192228917415,,
0.069091796875,-0.0779164499050543,-0.000224731816625301,,
0.0693359375,-0.0836466861063087,-0.000365231971047209,,
0.069580078125,-0.0891427494968125,-0.000507247371133168,,
0.06982421875,-0.0947258298407484,-0.000670058518165373,,
0.070068359375,-0.100234307493788,-0.000820629205599221,,
0.0703125,-0.105919746945799,-0.000949478409488336,,
0.070556640625,-0.111391098926916,-0.00109423398990538,,
0.07080078125,-0.116902680145589,-0.00123200581342431,,
0.071044921875,-0.122352248609427,-0.0013467201303401,,
0.0712890625,-0.12774987626728,-0.00149218371410775,,
0.071533203125,-0.133277033871964,-0.00164211453240437,,
0.07177734375,-0.13856597817479,-0.00178193778822555,,
0.072021484375,-0.143834017327968,-0.00192206912918635,,
0.072265625,-0.149111308620206,-0.00208101588136245,,
0.072509765625,-0.15445389190644,-0.00220531786708023,,
0.07275390625,-0.159677251426059,-0.00233075591675158,,
0.072998046875,-0.164929479961858,-0.00247586401766542,,
0.0732421875,-0.170003341310473,-0.00259569876885379,,
0.073486328125,-0.175124341722017,-0.0027702615865608,,
0.07373046875,-0.180323341179303,-0.00288836632119427,,
0.073974609375,-0.185185047465816,-0.00302199380710944,,
0.07421875,-0.190078609218457,-0.00316544150686049,,
0.074462890625,-0.19529470756565,-0.00327594927667318,,
0.07470703125,-0.199905786287768,-0.00342618966128816,,
0.074951171875,-0.204956517288734,-0.00353367434566509,,
0.0751953125,-0.209614442284571,-0.00365489399880481,,
0.075439453125,-0.214394870286182,-0.00380117519313616,,
0.07568359375,-0.219077623807089,-0.00392980073906291,,
0.075927734375,-0.223545879952207,-0.00405568906701603,,
0.076171875,-0.228344285211358,-0.00418913881150429,,
0.076416015625,-0.232799365841993,-0.00430905354633504,,
0.07666015625,-0.23731364845104,-0.00444993140128869,,
0.076904296875,-0.24167509509208,-0.00456809538306446,,
0.0771484375,-0.246033203936118,-0.00469341345727248,,
0.077392578125,-0.250483541381539,-0.00481587730040056,,
0.07763671875,-0.254574977812434,-0.00494773774029689,,
0.077880859375,-0.258789444269682,-0.00506443091176534,,
0.078125,-0.263121787663174,-0.00515102653494637,,
0.078369140625,-0.267299011332816,-0.00526519577815288,,
0.07861328125,-0.271170914413498,-0.00538811138074102,,
0.078857421875,-0.275042524704968,-0.00550048987907159,,
0.0791015625,-0.278925846564868,-0.00560955201861191,,
0.079345703125,-0.282771164385214,-0.00572190829926367,,
0.07958984375,-0.286561789180994,-0.00584828245378333,,
0.079833984375,-0.290366175069678,-0.00594081464062279,,
0.080078125,-0.293796727694088,-0.00605255326981657,,
0.080322265625,-0.297295675878128,-0.00617952137693756,,
0.08056640625,-0.300878010429386,-0.00629717435211097,,
0.080810546875,-0.304174114248224,-0.00639237117917535,,
0.0810546875,-0.307553838665649,-0.00646006844514257,,
0.081298828125,-0.310758592250736,-0.0065928057427449,,
0.08154296875,-0.31412356009194,-0.0066563542275726,,
0.081787109375,-0.317102514637704,-0.00677873512470129,,
0.08203125,-0.320182012998436,-0.00687849546290131,,
0.082275390625,-0.32298055083254,-0.00696749652005968,,
0.08251953125,-0.325910492464425,-0.00706418785628848,,
0.082763671875,-0.32863161683121,-0.00713449051533832,,
0.0830078125,-0.331481568450721,-0.0072593834913004,,
0.083251953125,-0.334368645742154,-0.00733022085580926,,
0.08349609375,-0.336697842471441,-0.00741397113498188,,
0.083740234375,-0.339290549490395,-0.00750183316582964,,
0.083984375,-0.341535130137777,-0.00756374791070868,,
0.084228515625,-0.34418340854893,-0.00765223944244342,,
0.08447265625,-0.346312103226701,-0.00775595748974878,,
0.084716796875,-0.348577120560993,-0.00781736122802545,,
0.0849609375,-0.35060181651111,-0.00788878958277861,,
0.085205078125,-0.352548044952747,-0.0079539614393056,,
0.08544921875,-0.354684000802945,-0.00803929065482034,,
0.085693359375,-0.356498356984065,-0.00810632139043665,,
0.0859375,-0.35823816903213,-0.00817226345981314,,
0.086181640625,-0.35980828045365,-0.00824358516971024,,
0.08642578125,-0.361539718730288,-0.00831252366330881,,
0.086669921875,-0.362676677793437,-0.00838084746780554,,
0.0869140625,-0.364226118296679,-0.00842039049175325,,
0.087158203125,-0.365271551452551,-0.00847755361581992,,
0.08740234375,-0.367051417064645,-0.00853248608497914,,
0.087646484375,-0.368163547602724,-0.00856753669436205,,
0.087890625,-0.369354848343387,-0.00863646481971037,,
0.088134765625,-0.370070190943069,-0.00867433559306674,,
