Time domain (s),Current (AC) (A),Potential (AC) (V),Frequency (Hz),Column 5
0,-0.274132685969546,-0.00441345737260335,398.11,0.3
7.84958930948733E-05,-0.282591012000464,-0.00469715420593042,,
0.000156991786189747,-0.280312613598315,-0.00474231034629158,,
0.00023548767928462,-0.267144196070187,-0.00465689865130869,,
0.000313983572379493,-0.244187419346597,-0.00437642855715925,,
0.000392479465474366,-0.211721172193418,-0.00391752798015954,,
0.00047097535856924,-0.170877190780624,-0.00331879553590975,,
0.000549471251664113,-0.123504827662251,-0.00260896494010687,,
0.000627967144758986,-0.0715143050394061,-0.00176621636075636,,
0.000706463037853859,-0.0170519279048784,-0.000890292584737384,,
0.000784958930948733,0.0379731348809523,2.65461400030809E-05,,
0.000863454824043606,0.0925050100919006,0.000984665276468011,,
0.000941950717138479,0.143138179925836,0.00187775020663628,,
0.00102044661023335,0.188014573753349,0.00269053212037429,,
0.00109894250332823,0.225309043445599,0.00343454976414748,,
0.0011774383964231,0.254409015341572,0.0040057879455162,,
0.00125593428951797,0.273309780335877,0.0044054327935128,,
0.00133443018261285,0.282304682614992,0.00467790171901328,,
0.00141292607570772,0.279888229343204,0.00477005301996769,,
0.00149142196880259,0.267027409718615,0.00467304275183622,,
0.00156991786189747,0.243966800493232,0.0043750694509761,,
0.00164841375499234,0.211785627681256,0.00394493380359551,,
0.00172690964808721,0.170959687529835,0.00332678369875827,,
0.00180540554118209,0.123902654284161,0.00259908053150237,,
0.00188390143427696,0.0720077167293367,0.00178357260191753,,
0.00196239732737183,0.0175237124926658,0.000884889975087066,,
0.00204089322046671,-0.0376496696320076,-2.76659394518042E-05,,
0.00211938911356158,-0.0923026342034525,-0.000971234185986436,,
0.00219788500665645,-0.143012653087387,-0.00186795423747732,,
0.00227638089975132,-0.187997070368091,-0.00268647040878589,,
0.0023548767928462,-0.225705727080763,-0.00342240364678492,,
0.00243337268594107,-0.255014327675026,-0.00401590255679452,,
0.00251186857903594,-0.274030803268673,-0.0044228787746996,,
0.00259036447213082,-0.282718085232746,-0.00469130549731256,,
0.00266886036522569,-0.280362680900064,-0.0047644657279462,,
0.00274735625832056,-0.267408786295992,-0.00465973911820239,,
0.00282585215141544,-0.244219288506439,-0.00435904630439632,,
0.00290434804451031,-0.211293695150643,-0.00392964418418051,,
0.00298284393760518,-0.170771363654904,-0.00331414726270562,,
0.00306133983070006,-0.123542792751402,-0.00260180004444877,,
0.00313983572379493,-0.0715450984470172,-0.00176134828951868,,
0.0032183316168898,-0.0169923581250894,-0.000895671783946117,,
0.00329682750998468,0.0379986839964375,2.50725827730669E-05,,
0.00337532340307955,0.092506982304324,0.000971357741094359,,
0.00345381929617442,0.143095710124218,0.00188217998238693,,
0.0035323151892693,0.188039069528108,0.00267887372054121,,
0.00361081108236417,0.225439881810688,0.0034075575251773,,
0.00368930697545904,0.254388508814669,0.00399986510383421,,
0.00376780286855392,0.27356807292883,0.00443111925008344,,
0.00384629876164879,0.282212526507207,0.00467917628749115,,
0.00392479465474366,0.280009744522292,0.00476516283886896,,
0.00400329054783854,0.267058539298798,0.00467729564869623,,
0.00408178644093341,0.244086298636887,0.00438123159939297,,
0.00416028233402828,0.211683207104268,0.00393990055868754,,
0.00423877822712316,0.171053277973928,0.00335003286825986,,
0.00431727412021803,0.123897790987617,0.00265273726326321,,
0.0043957700133129,0.0719828847820055,0.00178471191006713,,
0.00447426590640778,0.0175199249483527,0.000896870918779769,,
0.00455276179950265,-0.0376685849420685,-2.62353013642525E-05,,
0.00463125769259752,-0.0925033516405446,-0.000988918173328024,,
0.0047097535856924,-0.143104450611095,-0.00187916263660259,,
0.00478824947878727,-0.187803076382442,-0.00267570160572728,,
0.00486674537188214,-0.225512943316374,-0.0034140682290551,,
0.00494524126497702,-0.254392049832429,-0.00397707764026078,,
0.00502373715807189,-0.27382309344208,-0.00443153803686913,,
0.00510223305116676,-0.282547444035111,-0.00468192571377912,,
0.00518072894426164,-0.280318037182479,-0.00475788479274364,,
0.00525922483735651,-0.267647468822235,-0.00465454850310509,,
0.00533772073045138,-0.244223412223324,-0.00439033045762915,,
0.00541621662354626,-0.211613552147314,-0.00394749724693222,,
0.00549471251664113,-0.170939494764,-0.00332618022960141,,
0.005573208409736,-0.123557046468462,-0.00258831432960394,,
0.00565170430283088,-0.071577819244042,-0.00178397318058199,,
0.00573020019592575,-0.01703628467452,-0.000910964004521286,,
0.00580869608902062,0.0380539507673027,5.45294209941538E-05,,
0.00588719198211549,0.0925305816188906,0.000979265267977869,,
0.00596568787521037,0.143163572160787,0.00187388488263984,,
0.00604418376830524,0.188063542891362,0.00269340380118965,,
0.00612267966140012,0.22541702207578,0.00342839802037131,,
0.00620117555449499,0.254432973240215,0.00400471366637056,,
0.00627967144758986,0.273649964567411,0.00443190219929157,,
0.00635816734068474,0.282233391618187,0.00470100522354588,,
0.00643666323377961,0.280200533662753,0.00477634002407212,,
0.00651515912687448,0.267243927266599,0.00468625664544398,,
0.00659365501996935,0.244066307574596,0.0043937978041213,,
0.00667215091306423,0.211609428430428,0.00392984187235257,,
0.0067506468061591,0.17117909616194,0.00332214583019486,,
0.00682914269925397,0.123810318884337,0.00259852648438841,,
0.00690763859234885,0.0719717238526094,0.00177042113615355,,
0.00698613448544372,0.017542605391222,0.000889496629728814,,
0.00706463037853859,-0.0377591274215071,-4.10359026692397E-05,,
0.00714312627163347,-0.0924052340724797,-0.000971506007223066,,
0.00722162216472834,-0.142963706360878,-0.00188113691716341,,
0.00730011805782321,-0.18796632178349,-0.00270581523688884,,
0.00737861395091809,-0.225704113452416,-0.00341843427638233,,
0.00745710984401296,-0.254524546648875,-0.00399216046744311,,
0.00753560573710783,-0.273893824151265,-0.0044435501944835,,
0.00761410163020271,-0.282637627930472,-0.00469907646328771,,
0.00769259752329758,-0.280322340191403,-0.0047867446647083,,
0.00777109341639245,-0.267477724084793,-0.00466901485532967,,
0.00784958930948733,-0.244163125275381,-0.00438946427129627,,
0.0079280852025822,-0.211414806922645,-0.00394731906746104,,
0.00800658109567707,-0.170821386133643,-0.0033419432601649,,
0.00808507698877195,-0.12348721221947,-0.00259559497688899,,
0.00816357288186682,-0.0715836014122834,-0.00178935237979116,,
0.00824206877496169,-0.01701844511669,-0.000877748489870545,,
0.00832056466805657,0.0379851922705409,2.84358828586129E-05,,
0.00839906056115144,0.0924769284763718,0.000991329448795319,,
0.00847755645424631,0.143175450258337,0.00187443892975381,,
0.00855605234734119,0.187963453110874,0.00270247144550417,,
0.00863454824043606,0.225502880550713,0.00340110404682248,,
0.00871304413353093,0.254191780625433,0.00402708624489856,,
0.00879154002662581,0.273568790096984,0.00443766637020371,,
0.00887003591972068,0.282337784407599,0.00469239798457943,,
0.00894853181281555,0.280092174036989,0.00476879926077123,,
0.00902702770591043,0.267004908567784,0.00465620544212664,,
0.0091055235990053,0.244064335362172,0.00439331658949182,,
0.00918401949210017,0.211545152234629,0.0039756118865113,,
0.00926251538519504,0.171195658263996,0.003335526198053,,
0.00934101127828992,0.123899942492079,0.00261897940671929,,
0.00941950717138479,0.0719870084988909,0.00178080496750832,,
0.00949800306447967,0.0175780603918338,0.000868740672239632,,
0.00957649895757454,-0.0377245688810877,-4.03153813048895E-05,,
0.00965499485066941,-0.0924012896476329,-0.000985606896445557,,
0.00973349074376429,-0.143009784414771,-0.00188512579626732,,
0.00981198663685916,-0.187806482931174,-0.00270299427869602,,
0.00989048252995403,-0.225541226635446,-0.00340535694368249,,
0.0099689784230489,-0.254824412583253,-0.0039837522172288,,
0.0100474743161438,-0.274049718578734,-0.00443122459706968,,
0.0101259702092387,-0.282640855187165,-0.0046899580963502,,
0.0102044661023335,-0.280148651029114,-0.00475478290925402,,
0.0102829619954284,-0.267587540458369,-0.00467578307406358,,
0.0103614578885233,-0.244075854875645,-0.00438324879909624,,
0.0104399537816181,-0.21152121674749,-0.00392932033974081,,
0.010518449674713,-0.170742587282726,-0.00332884381760401,,
0.0105969455678079,-0.123448485139155,-0.00258738441484718,,
0.0106754414609028,-0.0715529872967108,-0.00178176869734736,,
0.0107539373539976,-0.0170283510018167,-0.00087468692436321,,
0.0108324332470925,0.0379913106113545,4.68937153472737E-05,,
0.0109109291401874,0.0925031947600109,0.000971890978926915,,
0.0109894250332823,0.143053061030562,0.00185757040612211,,
0.0110679209263771,0.187977841296963,0.00269108616748825,,
0.011146416819472,0.225553463317073,0.00339698901145091,,
0.0112249127125669,0.25436457332753,0.00399559399885296,,
0.0113034086056618,0.273611977066755,0.00441810304464774,,
0.0113819044987566,0.282132965665126,0.00468168120472434,,
0.0114604003918515,0.280019090119798,0.00477946401742324,,
0.0115388962849464,0.267155939698709,0.00465532885115305,,
0.0116173921780412,0.244041117043187,0.00438601513292536,,
0.0116958880711361,0.211547864026711,0.00393729939852872,,
0.011774383964231,0.171171879657391,0.0033350137695014,,
0.0118528798573259,0.12386645970389,0.0026193747830634,,
0.0119313757504207,0.0718930370592161,0.00175108931385148,,
0.0120098716435156,0.0175440397275299,0.000844560287401208,,
0.0120883675366105,-0.0377436186601775,-4.52042618239723E-05,,
0.0121668634297054,-0.0923818364614565,-0.000977271478715736,,
0.0122453593228002,-0.142932240608123,-0.00187098328848245,,
0.0123238552158951,-0.188153323379637,-0.00267682920865608,,
0.01240235110899,-0.225444677872718,-0.00341125767550343,,
0.0124808470020848,-0.254680396253334,-0.0039969440009755,,
0.0125593428951797,-0.273998575524754,-0.00442316100057694,,
0.0126378387882746,-0.282613692443334,-0.0047111523493264,,
0.0127163346813695,-0.280175096604792,-0.004757299531708,,
0.0127948305744643,-0.267448768420576,-0.00467450980616579,,
0.0128733264675592,-0.24428930204747,-0.00439320343902505,,
0.0129518223606541,-0.211514538119056,-0.00395365939534864,,
0.013030318253749,-0.170705473830758,-0.00331768744168182,,
0.0131088141468438,-0.123531093945891,-0.0026088075699171,,
0.0131873100399387,-0.0715137671632907,-0.0017959749335561,,
0.0132658059330336,-0.0170065670191399,-0.000896246640341491,,
0.0133443018261285,0.038030015280164,3.67400866667644E-05,,
0.0134227977192233,0.0925361620835886,0.000979777696529016,,
0.0135012936123182,0.143057722623562,0.00188375628544346,,
0.0135797895054131,0.188009172580689,0.00268186245356405,,
0.0136582853985079,0.225449070527661,0.00340683700381295,,
0.0137367812916028,0.254407401713225,0.00399244919622088,,
0.0138152771846977,0.273386270801798,0.00440592441278298,,
0.0138937730777926,0.282067075840981,0.00468926618774823,,
0.0139722689708874,0.280059049832877,0.00474426251699089,,
0.0140507648639823,0.267012102660828,0.00464203172041966,,
0.0141292607570772,0.243947526599094,0.00437448158878029,,
0.0142077566501721,0.211480539866257,0.00395615260736149,,
0.0142862525432669,0.171020691645932,0.0033454054043367,,
0.0143647484363618,0.123823631318195,0.00260541175532936,,
0.0144432443294567,0.0720152694064582,0.00178244369840863,,
0.0145217402225516,0.0175733763873282,0.000901841735843512,,
0.0146002361156464,-0.0377446944124084,-7.80022902695521E-05,,
0.0146787320087413,-0.0923971659307476,-0.000986264989965679,,
0.0147572279018362,-0.142999340653528,-0.00189671136361547,,
0.014835723794931,-0.188019930102999,-0.00270043603767967,,
0.0149142196880259,-0.225560634998613,-0.00341401490527193,,
0.0149927155811208,-0.254647451341261,-0.00400807956761629,,
0.0150712114742157,-0.273770695343831,-0.00444095943896494,,
0.0151497073673105,-0.282560218592853,-0.00468004507498421,,
0.0152282032604054,-0.28034412417408,-0.00475597294002661,,
0.0153066991535003,-0.267348857932126,-0.00467301543965437,,
0.0153851950465952,-0.244226505010988,-0.00439068551599098,,
0.01546369093969,-0.211465412100509,-0.00394220128484823,,
0.0155421868327849,-0.170860292505996,-0.00332842503081832,,
0.0156206827258798,-0.123560811601271,-0.0026282577450063,,
0.0156991786189747,-0.0714909074283829,-0.00179444935312256,,
0.0157776745120695,-0.0170441735242136,-0.000894376406187281,,
0.0158561704051644,0.0379933052352827,3.64799706504826E-05,,
0.0159346662982593,0.0925593804025734,0.000962862352015037,,
0.0160131621913541,0.143131344416868,0.00187235019814613,,
0.016091658084449,0.188011324085151,0.00267780984603627,,
0.0161701539775439,0.225575426591788,0.00341627921519061,,
0.0162486498706388,0.254634385433956,0.00399075844211749,,
0.0163271457637336,0.273629458040508,0.00441836316066357,,
0.0164056416568285,0.282243297503314,0.00470169453098812,,
0.0164841375499234,0.279846835293817,0.00476497555533717,,
0.0165626334430183,0.2671195658264,0.00467275142189827,,
0.0166411293361131,0.24408486430058,0.00441618078729,,
0.016719625229208,0.211643986970848,0.00392599735763755,,
0.0167981211223029,0.171085483306342,0.00333999499120585,,
0.0168766170153978,0.123894182735342,0.00258840537020966,,
0.0169551129084926,0.0719243683429426,0.00177583415044458,,
0.0170336088015875,0.0175386385548703,0.00087982291509725,,
0.0171121046946824,-0.0377474286159954,-3.58973107750238E-05,,
0.0171906005877772,-0.0923829122136874,-0.000976008615458657,,
0.0172690964808721,-0.142907005253705,-0.00188417637280924,,
0.017347592373967,-0.188071252449017,-0.00269016795795185,,
0.0174260882670619,-0.225727331771401,-0.00342310335886786,,
0.0175045841601567,-0.254830149928485,-0.00400274198696993,,
0.0175830800532516,-0.273948553046015,-0.00443020104054703,,
0.0176615759463465,-0.282507865317614,-0.00468600953522902,,
0.0177400718394414,-0.280549323912134,-0.00476944825023073,,
0.0178185677325362,-0.267445854924951,-0.00466650863751639,,
0.0178970636256311,-0.244239458860769,-0.0043572593073673,,
0.017975559518726,-0.211642866395607,-0.00393990315984771,,
0.0180540554118209,-0.17080036414213,-0.0033321967130493,,
0.0181325513049157,-0.123522129343966,-0.0025889620184838,,
0.0182110471980106,-0.0715058334905874,-0.00175880045314303,,
0.0182895430911055,-0.0170216723733828,-0.000895661379305857,,
0.0183680389842003,0.0379961739078986,1.64978583088171E-05,,
0.0184465348772952,0.0925040912202034,0.000983297066224242,,
0.0185250307703901,0.143147727226886,0.00189901729209652,,
0.018603526663485,0.188087836962578,0.0026933205640649,,
0.0186820225565798,0.225507743847258,0.00339597455898888,,
0.0187605184496747,0.254484990342883,0.00398522317329908,,
0.0188390143427696,0.273361057858885,0.00443841810548973,,
0.0189175102358645,0.28208146402707,0.00467522772636952,,
0.0189960061289593,0.280027382376579,0.00474997726586013,,
0.0190745020220542,0.267261049656275,0.00466330921052105,,
0.0191529979151491,0.244123008681769,0.00437736627539653,,
0.019231493808244,0.211653892855974,0.00395049248285551,,
0.0193099897013388,0.171066769699825,0.00330377123483094,,
0.0193884855944337,0.123784209481232,0.00262399184234541,,
0.0194669814875286,0.071991154627281,0.00177212489605783,,
0.0195454773806234,0.0175339545503647,0.000887335065636652,,
0.0196239732737183,-0.0377324577307813,-4.12557007023473E-05,,
0.0197024691668132,-0.0923791470808791,-0.000988197651963674,,
0.0197809650599081,-0.143075853530955,-0.00188980528339311,,
0.0198594609530029,-0.188019392226883,-0.00268681506250701,,
0.0199379568460978,-0.225557587033958,-0.00340508512244586,,
0.0200164527391927,-0.254693170811077,-0.00399707015724315,,
0.0200949486322876,-0.273846311761065,-0.00442567762303048,,
0.0201734445253824,-0.282657260408687,-0.00469598498443879,,
0.0202519404184773,-0.280310641385892,-0.0047708060558338,,
0.0203304363115722,-0.267543076032823,-0.00467219087188386,,
0.0204089322046671,-0.244149812841523,-0.00437420326464322,,
0.0204874280977619,-0.211511131570325,-0.00394283856908739,,
0.0205659239908568,-0.170846621488061,-0.00332460262596479,,
0.0206444198839517,-0.123590305141603,-0.00260137085302237,,
0.0207229157770465,-0.0715654032703764,-0.00178347115667155,,
0.0208014116701414,-0.0170330125948175,-0.000892214842095118,,
0.0208799075632363,0.0379326372917579,3.70119079029507E-05,,
0.0209584034563312,0.0925678519513921,0.00097940052830614,,
0.021036899349426,0.143181210015074,0.00187781263448006,,
0.0211153952425209,0.188006124616035,0.00269678791055661,,
0.0211938911356158,0.225598824202812,0.00342443905460943,,
0.0212723870287107,0.25412445646498,0.00400331424220512,,
0.0213508829218055,0.273325064982158,0.00443250826960861,,
0.0214293788149004,0.282225838941065,0.00469814394737078,,
0.0215078747079953,0.280068059257812,0.0047912238625023,,
0.0215863706010902,0.267072770604353,0.00466057279003351,,
0.021664866494185,0.244025832396906,0.00439801688589947,,
0.0217433623872799,0.211824511642104,0.00394274102558123,,
0.0218218582803748,0.171004308835915,0.00333321636783168,,
0.0219003541734696,0.124023250591552,0.00259466116039198,,
0.0219788500665645,0.0718847672139407,0.0017750173861546,,
0.0220573459596594,0.0175534077365411,0.000871561630432005,,
0.0221358418527543,-0.0376891138804759,-3.33065552564626E-05,,
0.0222143377458491,-0.0924094026123746,-0.000978232607394602,,
0.022292833638944,-0.143006198574001,-0.00188381090980672,,
0.0223713295320389,-0.188061346563891,-0.00268500725619614,,
0.0224498254251338,-0.225706623540955,-0.00339444117507526,,
0.0225283213182286,-0.254658970854734,-0.00398644701915352,,
0.0226068172113235,-0.274002878533678,-0.00442842444815872,,
0.0226853131044184,-0.282839600411834,-0.00470046548281289,,
0.0227638089975132,-0.280456988512311,-0.0047775534652863,,
0.0228423048906081,-0.267523622846647,-0.00468205056946669,,
0.022920800783703,-0.244203286692004,-0.00437544661919942,,
0.0229992966767979,-0.211595712589484,-0.00393431326666605,,
0.0230777925698927,-0.170791354717196,-0.00332127053980091,,
0.0231562884629876,-0.123540461954902,-0.00261520122158787,,
0.0232347843560825,-0.071534654685775,-0.00177293255628719,,
0.0233132802491774,-0.0169755943194903,-0.000873392847184018,,
0.0233917761422722,0.0380188543507678,2.87805365797311E-05,,
0.0234702720353671,0.0925275336542362,0.000982430879891361,,
0.023548767928462,0.142926525674396,0.00187568228430957,,
0.0236272638215569,0.188014573753349,0.00269994311782984,,
0.0237057597146517,0.225431230969831,0.00341431794043068,,
0.0237842556077466,0.25425045394503,0.00399931365788042,,
0.0238627515008415,0.273705410630315,0.00443991377258124,,
0.0239412473939363,0.282178685134942,0.00467338870613743,,
0.0240197432870312,0.279950331623037,0.00476388827039065,,
0.0240982391801261,0.267013357705098,0.00468318727645656,,
0.024176735073221,0.24413112164651,0.00439309809203881,,
0.0242552309663158,0.211655327192282,0.00393788465956435,,
0.0243337268594107,0.171033466203675,0.00334075973229275,,
0.0244122227525056,0.123876544881055,0.00259839122406014,,
0.0244907186456005,0.0719935078352862,0.00176837402310825,,
0.0245692145386953,0.0175309065857103,0.000875259179598409,,
0.0246477104317902,-0.0376946719336691,-5.77379520505517E-05,,
0.0247262063248851,-0.0924549427901517,-0.000998444922410524,,
0.02480470221798,-0.143065051185636,-0.00189565659317115,,
0.0248831981110748,-0.187949020101775,-0.00269447157743485,,
0.0249616940041697,-0.225615363893362,-0.0034201055217844,,
0.0250401898972646,-0.254463677001807,-0.00400419343433889,,
0.0251186857903594,-0.274018745879085,-0.00438978811573598,,
0.0251971816834543,-0.28266048766538,-0.00469143035300013,,
0.0252756775765492,-0.280459140016773,-0.00474505847199946,,
0.0253541734696441,-0.267568087272193,-0.00469984900785514,,
0.0254326693627389,-0.244118481557797,-0.00437846526556385,,
0.0255111652558338,-0.211616779404006,-0.00394449940984876,,
0.0255896611489287,-0.170821206841605,-0.00335499978358333,,
0.0256681570420236,-0.123484657307921,-0.00260117316485031,,
0.0257466529351184,-0.0716059232710757,-0.00176533846920268,,
