Time domain (s),Current (AC) (A),Potential (AC) (V),Frequency (Hz),Column 5
0,0.239814009752926,0.00341597758512835,6309.6,0.4
4.95277038164067E-06,0.230905166043104,0.00311858641865737,,
9.90554076328135E-06,0.21318125900766,0.00271721061559171,,
1.4858311144922E-05,0.18723041433421,0.0021979743067102,,
1.98110815265627E-05,0.154153460897298,0.00158076983821998,,
2.47638519082034E-05,0.115032254830612,0.000922265166423131,,
2.9716622289844E-05,0.0715850881752276,0.000258666319091549,,
3.46693926714847E-05,0.0259337457835426,-0.000434563466436888,,
3.96221630531254E-05,-0.0197129412596916,-0.00108585258497929,,
4.45749334347661E-05,-0.0658281788768746,-0.00175775973979997,,
4.95277038164067E-05,-0.110112371327926,-0.00236919497222443,,
5.44804741980474E-05,-0.150282816810223,-0.00284063530783651,,
5.94332445796881E-05,-0.1842234691399,-0.00324768330701675,,
6.43860149613288E-05,-0.211286678582797,-0.00348515272542427,,
6.93387853429694E-05,-0.230188037429236,-0.00360694799031203,,
7.42915557246101E-05,-0.239547747244678,-0.00357775330998367,,
7.92443261062508E-05,-0.240262914170834,-0.00342169787930535,,
8.41970964878915E-05,-0.231290915828255,-0.00313010548279813,,
8.91498668695321E-05,-0.213503854160055,-0.00271520568581307,,
9.41026372511728E-05,-0.187437767653257,-0.00219976490476936,,
9.90554076328135E-05,-0.153956735826601,-0.00160685248949877,,
0.000104008178014454,-0.114788742044039,-0.000937675954527428,,
0.000108960948396095,-0.0711683027337377,-0.000239006868767877,,
0.000113913718777736,-0.0252127523520928,0.000445046312663067,,
0.000118866489159376,0.0204909993083148,0.00110527238881453,,
0.000123819259541017,0.0663465036166495,0.00175320898799392,,
0.000128772029922658,0.110284824173052,0.00234384476162219,,
0.000133724800304298,0.150023347011664,0.00283914848701672,,
0.000138677570685939,0.184183532691555,0.00321075580830188,,
0.00014363034106758,0.210934248209828,0.0034881364929733,,
0.00014858311144922,0.229646201715838,0.00362819467671027,,
0.000153535881830861,0.239302009260103,0.00359193211261877,,
0.000158488652212502,0.239476248119415,0.00342249529455829,,
0.000163441422594142,0.230753676905466,0.00314207514984455,,
0.000168394192975783,0.213203276756308,0.00271225904659422,,
0.000173346963357424,0.187262738263076,0.00219630184424391,,
0.000178299733739064,0.154096923300704,0.00160244434422951,,
0.000183252504120705,0.115031259347296,0.000948791670001725,,
0.000188205274502346,0.0716944449454393,0.00023950810121276,,
0.000193158044883986,0.0259312863541724,-0.00045358835986109,,
0.000198110815265627,-0.0196963693903637,-0.00106631295790027,,
0.000203063585647268,-0.065794332444113,-0.00175784327854078,,
0.000208016356028908,-0.110113542484769,-0.00234804785725506,,
0.000212969126410549,-0.15020475920664,-0.00285886278600822,,
0.00021792189679219,-0.184214861137104,-0.00322963218840888,,
0.00022287466717383,-0.211415915740418,-0.0034822254941953,,
0.000227827437555471,-0.23006248941567,-0.00358741764531523,,
0.000232780207937112,-0.239794158644437,-0.00357431809570485,,
0.000237732978318752,-0.240211266154059,-0.00343075466015863,,
0.000242685748700393,-0.231277740313772,-0.0031312902140308,,
0.000247638519082034,-0.213228749417642,-0.0027100566616105,,
0.000252591289463674,-0.187354322728196,-0.00220251577643449,,
0.000257544059845315,-0.153952812451177,-0.0016103079555938,,
0.000262496830226956,-0.11479067445283,-0.000941188800767101,,
0.000267449600608596,-0.0711191141463332,-0.000233054522532861,,
0.000272402370990237,-0.0252087704188268,0.00046276412013313,,
0.000277355141371878,0.0204775602835418,0.00109320230651466,,
0.000282307911753518,0.0662622974396403,0.00176244212841103,,
0.000287260682135159,0.110285819656369,0.00234128965751124,,
0.0002922134525168,0.1501082851617,0.00285426984291837,,
0.00029716622289844,0.184068993552313,0.00322291027316846,,
0.000302118993280081,0.210911264256785,0.00347720388766826,,
0.000307071763661722,0.229611213405155,0.00359056342739139,,
0.000312024534043362,0.239420178985558,0.00357593486567787,,
0.000316977304425003,0.239488223198134,0.00343052176427561,,
0.000321930074806644,0.230817534232329,0.00312228237506629,,
0.000326882845188285,0.213381204759675,0.00271618789888661,,
0.000331835615569925,0.18735525965367,0.00220304401130056,,
0.000336788385951566,0.154153929360035,0.00159101050648047,,
0.000341741156333206,0.115003356535512,0.000944243449672033,,
0.000346693926714847,0.0717216450631172,0.000221867081877658,,
0.000351646697096488,0.0259501419793441,-0.000438083907107423,,
0.000356599467478129,-0.0196760498191383,-0.00108563319030663,,
0.000361552237859769,-0.0657975531254311,-0.00175397855699888,,
0.00036650500824141,-0.110107920931922,-0.00235557393835384,,
0.000371457778623051,-0.150033711749725,-0.00284591090588915,,
0.000376410549004691,-0.184267973099933,-0.00322494895597281,,
0.000381363319386332,-0.211157441425176,-0.00347173589736416,,
0.000386316089767973,-0.230028760098593,-0.00359746845280107,,
0.000391268860149613,-0.239853243507165,-0.00358584391045147,,
0.000396221630531254,-0.24006053826837,-0.00340941684058915,,
0.000401174400912895,-0.231367041023048,-0.00313473217891502,,
0.000406127171294535,-0.213478440056562,-0.00271143209744329,,
0.000411079941676176,-0.187256355458282,-0.00221890202700692,,
0.000416032712057817,-0.153929096525107,-0.00158597371109037,,
0.000420985482439457,-0.114787278097985,-0.0009210711531078,,
0.000425938252821098,-0.0711011954466359,-0.000239056654482095,,
0.000430891023202739,-0.0251970588503971,0.000446195603217348,,
0.000435843793584379,0.0204946884523701,0.00109672274718564,,
0.00044079656396602,0.0663105198226494,0.00177400929061511,,
0.000445749334347661,0.110304206818803,0.00235329560906106,,
0.000450702104729301,0.15012026024042,0.00285037474365257,,
0.000455654875110942,0.184165906781068,0.00323635410364975,,
0.000460607645492583,0.211086732830782,0.00346420390948632,,
0.000465560415874223,0.229770783525009,0.00361194934502418,,
0.000470513186255864,0.239335270114443,0.00358475115621681,,
0.000475465956637505,0.239725909479414,0.00341412960692367,,
0.000480418727019145,0.230804827180583,0.00313070375519464,,
0.000485371497400786,0.21302315283386,0.00272523708530903,,
0.000490324267782427,0.187109726621543,0.00220740490233284,,
0.000495277038164067,0.154118941049352,0.00159263233940665,,
0.000500229808545708,0.115143602567457,0.000946331074365148,,
0.000505182578927349,0.0717022916962872,0.000237886268286136,,
0.000510135349308989,0.0259944117080081,-0.000420074979782914,,
0.00051508811969063,-0.0196919189943604,-0.00109639027987329,,
0.000520040890072271,-0.0658171700025508,-0.00177535181724675,,
0.000524993660453911,-0.110057209840622,-0.00237105729546538,,
0.000529946430835552,-0.150148485120335,-0.00282106108390501,,
0.000534899201217193,-0.18434585502999,-0.00322095681675583,,
0.000539851971598833,-0.211275962497684,-0.00347582760800957,,
0.000544804741980474,-0.229949472780324,-0.00360312546005348,,
0.000549757512362115,-0.239642435275432,-0.00357383795890209,,
0.000554710282743756,-0.240332656560832,-0.00342027265775835,,
0.000559663053125396,-0.231281136668616,-0.00312498430484265,,
0.000564615823507037,-0.213446350359065,-0.00271079078993841,,
0.000569568593888678,-0.187165298013741,-0.00219543354763507,,
0.000574521364270318,-0.1538896285395,-0.00158163560335112,,
0.000579474134651959,-0.114649257264042,-0.000919547203958704,,
0.0005844269050336,-0.0711286590746034,-0.000247083968024864,,
0.00058937967541524,-0.0251885094054435,0.000457114707311579,,
0.000594332445796881,0.0204406102851462,0.00109428915397025,,
0.000599285216178522,0.0662716081365419,0.00175174241898945,,
0.000604237986560162,0.11020872825718,0.00234837273013611,,
0.000609190756941803,0.149986397013269,0.00284988194946489,,
0.000614143527323444,0.184059448624043,0.00321514538940715,,
0.000619096297705084,0.210964844682351,0.00347276030172106,,
0.000624049068086725,0.229512104257319,0.00360557339830558,,
0.000629001838468366,0.239106689577618,0.00358366430876123,,
0.000633954608850006,0.239732497236655,0.00341137873525854,,
0.000638907379231647,0.230911519568977,0.00312617578668073,,
0.000643860149613288,0.213231208847012,0.00271119245095486,,
0.000648812919994928,0.187268359815922,0.00219777516385378,,
0.000653765690376569,0.154121400478722,0.00158931779219795,,
0.00065871846075821,0.115026106257187,0.000952728960550431,,
0.00066367123113985,0.0716822356353514,0.000235755608484212,,
0.000668624001521491,0.0259145973691601,-0.000455443088670737,,
0.000673576771903132,-0.019713468280271,-0.00108858236100318,,
0.000678529542284772,-0.0659011419481913,-0.00176508077126236,,
0.000683482312666413,-0.110112078538715,-0.00235100293473112,,
0.000688435083048054,-0.150095841620244,-0.00286236803781703,,
0.000693387853429694,-0.184392818419393,-0.00323775147894922,,
0.000698340623811335,-0.21124996281577,-0.00347500319033589,,
0.000703293394192976,-0.230053237276611,-0.00361762744791783,,
0.000708246164574616,-0.239917071555107,-0.00356206659088709,,
0.000713198934956257,-0.240152298407016,-0.0034212607776114,,
0.000718151705337898,-0.231326636111965,-0.00312472271888664,,
0.000723104475719538,-0.213593916121278,-0.00271862824270697,,
0.000728057246101179,-0.187371714407314,-0.00219405136119732,,
0.00073301001648282,-0.154077892002006,-0.00161281327399054,,
0.00073796278686446,-0.114742481348742,-0.000953504436335795,,
0.000742915557246101,-0.0711504425918825,-0.000227537590340443,,
0.000747868327627742,-0.0252007479944525,0.000462461186719665,,
0.000752821098009382,0.0204885691578656,0.00108957723146119,,
0.000757773868391023,0.0662608334935866,0.00176201177732205,,
0.000762726638772664,0.110248840379052,0.00234845711270237,,
0.000767679409154304,0.15004612601226,0.00284907862743244,,
0.000772632179535945,0.184067763837628,0.00322457429737844,,
0.000777584949917586,0.210979015680151,0.00349168393606547,,
0.000782537720299226,0.229417123437355,0.00358966728453636,,
0.000787490490680867,0.239176929709274,0.00358108388988043,,
0.000792443261062508,0.239759668075412,0.0034089029507598,,
0.000797396031444149,0.230815836054907,0.00312680359297479,,
0.000802348801825789,0.213172709562706,0.00273031522815614,,
0.00080730157220743,0.187105334783382,0.00218545193385422,,
0.00081225434258907,0.15394932825957,0.00159424742172787,,
0.000817207112970711,0.114918154875186,0.000944461156693333,,
0.000822159883352352,0.0716193152339632,0.000277272674986229,,
0.000827112653733993,0.0259143631377915,-0.000450611342917906,,
0.000832065424115633,-0.0197173916556949,-0.00108822964187549,,
0.000837018194497274,-0.0658482642167315,-0.00174358853159617,,
0.000841970964878915,-0.110080281630428,-0.00233577356914427,,
0.000846923735260555,-0.150200074579268,-0.00282478488656102,,
0.000851876505642196,-0.184331859705716,-0.00322526623442254,,
0.000856829276023837,-0.211254647443142,-0.00346777919882513,,
0.000861782046405477,-0.229985661526772,-0.00362205837648055,,
0.000866734816787118,-0.239759199612675,-0.00358470896493346,,
0.000871687587168759,-0.240412705131049,-0.00340809794107599,,
0.000876640357550399,-0.231363410436834,-0.00313933862321569,,
0.00088159312793204,-0.213589992745855,-0.00271587652721639,,
0.000886545898313681,-0.187262913936602,-0.00219780385392587,,
0.000891498668695321,-0.154134458877521,-0.00160026389871293,,
0.000896451439076962,-0.114775273740345,-0.000943085720860104,,
0.000901404209458603,-0.071116654716963,-0.000251964655666459,,
0.000906356979840243,-0.0251816581379122,0.000452423880444641,,
0.000911309750221884,0.0204464953482821,0.00109985502805099,,
0.000916262520603525,0.0662975492606136,0.00176738019619771,,
0.000921215290985165,0.110140947554894,0.0023335045219337,,
0.000926168061366806,0.150038747724149,0.00285118650394178,,
0.000931120831748447,0.184067295374891,0.00321922781797035,,
0.000936073602130087,0.211069838893322,0.00346756064797837,,
0.000941026372511728,0.229716705357785,0.00357294265987251,,
0.000945979142893369,0.239165686603582,0.0035722389092685,,
0.000950931913275009,0.239701168791106,0.00341658513960663,,
0.00095588468365665,0.230849360419536,0.0031327863169337,,
0.000960837454038291,0.213355263635603,0.00273424408044853,,
0.000965790224419931,0.187176833908645,0.00220065260936853,,
0.000970742994801572,0.154062432731679,0.00160004619169207,,
0.000975695765183213,0.114953904437818,0.000961509810411876,,
0.000980648535564854,0.0716129617080901,0.000246618176258817,,
0.000985601305946494,0.0259283584620649,-0.000445341651645226,,
0.000990554076328135,-0.0197200853164337,-0.00107213366733161,,
0.000995506846709775,-0.0659025473364029,-0.00178515538381285,,
0.00100045961709142,-0.110076826717742,-0.00232950394445952,,
0.00100541238747306,-0.150081612064602,-0.00283839241922124,,
0.0010103651578547,-0.184524749237753,-0.00323258135910498,,
0.00101531792823634,-0.211341254491679,-0.00346799099906692,,
0.00102027069861798,-0.229942621512793,-0.00359593100244116,,
0.00102522346899962,-0.239799545965915,-0.00354230925678634,,
0.00103017623938126,-0.240216887706905,-0.00340212365537385,,
0.0010351290097629,-0.231227322011682,-0.00312094913051642,,
0.00104008178014454,-0.213369932375062,-0.00272639397029417,,
0.00104503455052618,-0.187426290316196,-0.00220420849071656,,
0.00104998732090782,-0.154108459195607,-0.00160171696650657,,
0.00105494009128946,-0.114741778654636,-0.000948742728112961,,
0.0010598928616711,-0.0711318797559215,-0.000225308202935981,,
0.00106484563205274,-0.0252117568687763,0.000447253760600397,,
0.00106979840243439,0.0204256780353985,0.00109606118786498,,
0.00107475117281603,0.0663146774294419,0.00176479133906016,,
0.00107970394319767,0.110193064034406,0.00234131159697837,,
0.00108465671357931,0.150007214326153,0.00284910562985363,,
0.00108960948396095,0.183918236387703,0.00323418040873902,,
0.00109456225434259,0.210892145121324,0.00347326659711955,,
0.00109951502472423,0.229628341573983,0.00360459962348925,,
0.00110446779510587,0.239331844480677,0.00356654646133814,,
0.00110942056548751,0.239772902147738,0.00343497210082866,,
0.00111437333586915,0.230883880267483,0.0031120113290819,,
0.00111932610625079,0.21331292631573,0.00272929251145104,,
0.00112427887663243,0.187302118411921,0.00220599908877661,,
0.00112923164701407,0.154079795131876,0.00156095343632279,,
0.00113418441739571,0.115044229909331,0.000911195861360792,,
0.00113913718777736,0.0716176170565409,0.000255753432898853,,
0.001144089958159,0.0259273629787484,-0.00044285152211021,,
0.00114904272854064,-0.0196870586934621,-0.00111542867450831,,
0.00115399549892228,-0.0658340346610895,-0.00177870939956426,,
0.00115894826930392,-0.110031327274392,-0.00233199998077405,,
0.00116390103968556,-0.150092620938926,-0.00283458339017306,,
0.0011688538100672,-0.184236410423015,-0.00321836795961783,,
0.00117380658044884,-0.211169211551448,-0.0034842709276055,,
0.00117875935083048,-0.229972486012288,-0.00360592527360737,,
0.00118371212121212,-0.239882580986081,-0.00359538757871336,,
0.00118866489159376,-0.240180464729089,-0.0034126967909458,,
0.0011936176619754,-0.231268195385502,-0.00314258313289439,,
0.00119857043235704,-0.213371981899537,-0.00268536210354897,,
0.00120352320273868,-0.187408898637078,-0.00218914198348319,,
0.00120847597312032,-0.153998370452369,-0.00159081220744905,,
0.00121342874350197,-0.114741544423267,-0.000947903965402563,,
0.00121838151388361,-0.0710950468732103,-0.000233858688390765,,
0.00122333428426525,-0.0251522621011538,0.000439493939792701,,
0.00122828705464689,0.0204807224070178,0.0011185542047687,,
0.00123323982502853,0.0663452739019643,0.0017737493923109,,
0.00123819259541017,0.110286288119106,0.00234813308364767,,
0.00124314536579181,0.15008893179487,0.00280799950644983,,
0.00124809813617345,0.184292684509319,0.00322493376711108,,
0.00125305090655509,0.211057834535682,0.00346460557050232,,
0.00125800367693673,0.2295644549682,0.00360035349274712,,
0.00126295644731837,0.239209224359219,0.00358603377122657,,
0.00126790921770001,0.239750855120169,0.00341581557060078,,
0.00127286198808165,0.230921093776168,0.00315327609171057,,
0.00127781475846329,0.213272052941911,0.00270360308293149,,
0.00128276752884493,0.187280100663273,0.00220322796529526,,
0.00128772029922658,0.15404993063238,0.00159948757910255,,
0.00129267306960822,0.115010969054991,0.000916422517524662,,
0.00129762583998986,0.0716337790209738,0.000253516451063085,,
0.0013025786103715,0.0259305543811455,-0.000421189673485589,,
0.00130753138075314,-0.0196613518007591,-0.00110582171932183,,
0.00131248415113478,-0.0658636649292165,-0.00177104071192824,,
0.00131743692151642,-0.110123614433618,-0.00234855584030491,,
0.00132238969189806,-0.150104391065198,-0.00283674189622207,,
0.0013273424622797,-0.184329166044978,-0.0032402129184117,,
0.00133229523266134,-0.211209557904688,-0.00348171076054049,,
0.00133724800304298,-0.230013359386108,-0.00361036379660096,,
0.00134220077342462,-0.239605192487825,-0.00357811277971676,,
0.00134715354380626,-0.240115114177252,-0.00340124860816005,,
0.0013521063141879,-0.231155354423682,-0.00312766513897733,,
0.00135705908456954,-0.213525403445965,-0.00272948321605071,,
0.00136201185495119,-0.187404741030285,-0.00218749146048403,,
0.00136696462533283,-0.154066590338471,-0.00161222090837443,,
0.00137191739571447,-0.114661261621682,-0.000935030561070249,,
0.00137687016609611,-0.071102425161321,-0.000253495355421407,,
0.00138182293647775,-0.0252115226374077,0.000440262664972657,,
0.00138677570685939,0.0204714409890373,0.00108454127989788,,
0.00139172847724103,0.0662948555998747,0.0017541473221323,,
0.00139668124762267,0.110304704560461,0.00232560462606557,,
0.00140163401800431,0.150105093759303,0.00284244784536369,,
0.00140658678838595,0.184093236498962,0.00323667138209949,,
0.00141153955876759,0.210940367504333,0.00347194854143185,,
0.00141649232914923,0.229542173709262,0.0036189564733391,,
0.00142144509953087,0.239250097733039,0.00359229158235186,,
0.00142639786991251,0.239636052470637,0.00342070975945274,,
0.00143135064029415,0.23085135138617,0.00311188475523227,,
0.0014363034106758,0.213290176594056,0.00271282272213824,,
0.00144125618105744,0.18738852050801,0.00218490344717237,,
0.00144620895143908,0.154201419770018,0.00163347350155219,,
0.00145116172182072,0.114975922186466,0.000942451163961078,,
0.00145611449220236,0.0716391663424514,0.000228807547965282,,
0.001461067262584,0.02590505244089,-0.000447090902246927,,
0.00146602003296564,-0.0196909235110439,-0.0010887443755303,,
0.00147097280334728,-0.0657528149340299,-0.00175709649282796,,
0.00147592557372892,-0.110104758808446,-0.0023631633063772,,
0.00148087834411056,-0.150107611746516,-0.00284131205601934,,
0.0014858311144922,-0.184330161528294,-0.00325099025979458,,
0.00149078388487384,-0.211322633097876,-0.00350007831377219,,
0.00149573665525548,-0.229955797027276,-0.0035975671804036,,
0.00150068942563712,-0.239701227348948,-0.00359735538016226,,
0.00150564219601877,-0.240348115831159,-0.00344843196399713,,
0.00151059496640041,-0.23134964934393,-0.00314091826485896,,
0.00151554773678205,-0.21338515741402,-0.00270120493039361,,
0.00152050050716369,-0.187369196420101,-0.00222098290109463,,
0.00152545327754533,-0.153976352703721,-0.00161636831151357,,
0.00153040604792697,-0.114778201632452,-0.000931856088921545,,
0.00153535881830861,-0.0711125556680126,-0.000225767244097064,,
0.00154031158869025,-0.0252075407041417,0.000434838553603711,,
0.00154526435907189,0.0205230597268909,0.00108270173994995,,
0.00155021712945353,0.0663325375712971,0.00174882953279676,,
0.00155516989983517,0.110344582450964,0.00236888444438055,,
0.00156012267021681,0.15009408488498,0.0028526193199192,,
0.00156507544059845,0.184264518187246,0.0032301958639529,,
0.00157002821098009,0.210773946116948,0.00349347622177598,,
0.00157498098136173,0.229492516659121,0.0035968752433595,,
0.00157993375174338,0.23946547347646,0.00358815008599223,,
0.00158488652212502,0.23965221443507,0.0034138275173361,,
0.00158983929250666,0.23102582447685,0.00312329834116598,,
0.0015947920628883,0.213487223732884,0.00269672590376846,,
