Time domain (s),Current (AC) (A),Potential (AC) (V),Frequency (Hz),Column 5
0,0.321805296119346,0.0100908547630452,0.063096,0.5
0.0386935186065678,0.326764314608543,0.010292170650283,,
0.0773870372131355,0.331663709622837,0.0104774094494844,,
0.116080555819703,0.3367770644753,0.0107028089427037,,
0.154774074426271,0.34128534090542,0.0108650103209351,,
0.193467593032839,0.34598332839205,0.0110266565805888,,
0.232161111639407,0.35074008351423,0.0112367262607811,,
0.270854630245974,0.355092882461947,0.0114114818591515,,
0.309548148852542,0.359328716698132,0.0116037236927169,,
0.34824166745911,0.363961945673743,0.0117669072038162,,
0.386935186065678,0.368106205099191,0.0119811029095898,,
0.425628704672246,0.372286695057235,0.0121581857358435,,
0.464322223278813,0.376096891855355,0.0123015504461872,,
0.503015741885381,0.380350128158377,0.0124918493647308,,
0.541709260491949,0.384248191130038,0.0126195479882929,,
0.580402779098517,0.388246387305963,0.012813668684736,,
0.619096297705084,0.391998672307884,0.0129743328115217,,
0.657789816311652,0.395309629483609,0.0130975691357484,,
0.69648333491822,0.398969483835441,0.0132501360040513,,
0.735176853524788,0.402388562049387,0.013400407670543,,
0.773870372131355,0.405575993078542,0.013529131128402,,
0.812563890737923,0.408888661932972,0.0136730562950018,,
0.851257409344491,0.412152547944299,0.0138396986218541,,
0.889950927951059,0.415069533738007,0.013944167668015,,
0.928644446557626,0.418288060263643,0.0140879433796131,,
0.967337965164194,0.421229865398579,0.0142456184063655,,
1.00603148377076,0.42368926241839,0.014351021546287,,
1.04472500237733,0.42675487897968,0.0144881571856681,,
1.0834185209839,0.429093887930547,0.0145975795975986,,
1.12211203959047,0.431562128623668,0.0146913359227479,,
1.16080555819703,0.43342414977531,0.0147920045417238,,
1.1994990768036,0.436317457346928,0.0149120809602015,,
1.23819259541017,0.438017724860914,0.0150715547846523,,
1.27688611401674,0.440232637105643,0.0151316303576414,,
1.3155796326233,0.442472368691599,0.015262809147671,,
1.35427315122987,0.443939562621872,0.0153401627863876,,
1.39296666983644,0.446019537528663,0.0154354723760184,,
1.43166018844301,0.447391733290789,0.0154773197764837,,
1.47035370704958,0.448876899847468,0.0155555060930666,,
1.50904722565614,0.450711534139824,0.0156879232245384,,
1.54774074426271,0.452122527952605,0.0157676040911383,,
1.58643426286928,0.453085061944583,0.0158091525816002,,
1.62512778147585,0.453969999835251,0.0158872695083612,,
1.66382130008241,0.455362735741841,0.0159499979076299,,
1.70251481868898,0.45610189566277,0.01602827496475,,
1.74120833729555,0.456889838426802,0.0160665140944607,,
1.77990185590212,0.457361405910127,0.0161172380544885,,
1.81859537450869,0.458074320090907,0.0161897771070807,,
1.85728889311525,0.458659999487923,0.0162278881325042,,
1.89598241172182,0.45884543134767,0.0162669119009737,,
1.93467593032839,0.459160380229455,0.0163194560094149,,
1.97336944893496,0.459416846755474,0.0163122021041553,,
2.01206296754152,0.459420270112885,0.0163709752835586,,
2.05075648614809,0.459284762215377,0.0164036632274933,,
2.08945000475466,0.459226279859611,0.0164412244720182,,
2.12814352336123,0.458751003739091,0.0164440854677643,,
2.1668370419678,0.458663422845334,0.0164729676468349,,
2.20553056057436,0.457996153430029,0.0164681690737463,,
2.24422407918093,0.457484932056697,0.0164677153710624,,
2.2829175977875,0.456591721052286,0.016512386403523,,
2.32161111639407,0.455895067819207,0.0164792073931546,,
2.36030463500063,0.454811004639149,0.0164828957290881,,
2.3989981536072,0.453918364194306,0.0164960317561986,,
2.43769167221377,0.452755849073586,0.0164684252823202,,
2.47638519082034,0.451639549277911,0.0164392975700323,,
2.51507870942691,0.450349514093642,0.0164200819269618,,
2.55377222803347,0.448832110921345,0.0164165216953149,,
2.59246574664004,0.447170926737798,0.0163720214685705,,
2.63115926524661,0.445547399485769,0.0163726886783993,,
2.66985278385318,0.443621475662461,0.0163224024080186,,
2.70854630245974,0.441887545133936,0.0162671040574041,,
2.74723982106631,0.439819551978084,0.0162515180358023,,
2.78593333967288,0.437814605654545,0.0162000468007659,,
2.82462685827945,0.435661884402777,0.0161183536293223,,
2.86332037688602,0.433617284189231,0.0160826125332107,,
2.90201389549258,0.430970458351184,0.0160139272845905,,
2.94070741409915,0.428454575934097,0.0159812179899412,,
2.97940093270572,0.425952957506221,0.0159188525528196,,
3.01809445131229,0.423381160251426,0.0158578108599983,,
3.05678796991885,0.420146943337658,0.0157633980003773,,
3.09548148852542,0.41743792650665,0.0157384817165291,,
3.13417500713199,0.414530069666037,0.0156123203444123,,
3.17286852573856,0.411378013330126,0.0155576411645191,,
3.21156204434513,0.408516657094341,0.0154287041995147,,
3.25025556295169,0.405319811832307,0.015368794094563,,
3.28894908155826,0.401578938021754,0.0152746160928019,,
3.32764260016483,0.398340156631439,0.0151758743758119,,
3.3663361187714,0.394614687929235,0.0150408257687751,,
3.40502963737796,0.391137127359522,0.0149705232035293,,
3.44372315598453,0.387391974352206,0.0148567399081574,,
3.4824166745911,0.383614299449488,0.0147611741099527,,
3.52111019319767,0.37947745729843,0.0146439747002574,,
3.55980371180424,0.375466708812,0.0145246722451811,,
3.5984972304108,0.371750083783107,0.0144152071318215,,
3.63719074901737,0.367309133382064,0.0142726697616662,,
3.67588426762394,0.362926665336787,0.0141663005019126,,
3.71457778623051,0.358733052508668,0.0140176995288321,,
3.75327130483707,0.354086130103415,0.0138621382228177,,
3.79196482344364,0.349584700388116,0.0137547494664454,,
3.83065834205021,0.345039622865831,0.0135883580104892,,
3.86935186065678,0.34067712440545,0.0134367252359464,,
3.90804537926334,0.33563280726077,0.0133161737640712,,
3.94673889786991,0.331070327671647,0.013189227753196,,
3.98543241647648,0.325787516627354,0.0130054621532962,,
4.02412593508305,0.320811096071319,0.0128174050597774,,
4.06281945368962,0.315882317239251,0.0126915212469498,,
4.10151297229618,0.310754127838008,0.0125604492104929,,
4.14020649090275,0.305548057055672,0.0123665046574448,,
4.17890000950932,0.30014314626373,0.0121746044353119,,
4.21759352811589,0.294743120888093,0.0120284321060087,,
4.25628704672245,0.2893590355204,0.0118670367172506,,
4.29498056532902,0.283689064148939,0.0117296929084025,,
4.33367408393559,0.278319528050242,0.0114784163491812,,
4.37236760254216,0.272583086489057,0.011301717835789,,
4.41106112114873,0.266926024027832,0.0111220729237922,,
4.44975463975529,0.261067233099188,0.0109424547001886,,
4.48844815836186,0.255360496295535,0.0107569810431274,,
4.52714167696843,0.249533977642481,0.0105637090375863,,
4.565835195575,0.243491716152606,0.0103721237384931,,
4.60452871418156,0.237483723896811,0.0101492703179802,,
4.64322223278813,0.231346214618977,0.00996665765666505,,
4.6819157513947,0.2252854456031,0.00977774653456542,,
4.72060927000127,0.219126789961261,0.0095720537508508,,
4.75930278860784,0.212868072435105,0.00935011307338396,,
4.7979963072144,0.206603898933075,0.00914653934808563,,
4.83668982582097,0.200244691602925,0.00892919974959883,,
4.87538334442754,0.193944323228272,0.0087171711413494,,
4.91407686303411,0.187372903398631,0.00852033890416148,,
4.95277038164067,0.181082198876668,0.00826731158634919,,
4.99146390024724,0.174464278442198,0.0080707569084506,,
5.03015741885381,0.167860051437371,0.00786062317611513,,
5.06885093746038,0.161436691815744,0.00762903197568399,,
5.10754445606695,0.154646783331359,0.00739767563311267,,
5.14623797467351,0.148037385630443,0.00719369090655952,,
5.18493149328008,0.141261134915728,0.00693201654936582,,
5.22362501188665,0.134629200111858,0.00673872853078894,,
5.26231853049322,0.127718653938719,0.00647859142504048,,
5.30101204909978,0.120987727049723,0.00626147067137728,,
5.33970556770635,0.114138979609841,0.00600853409410185,,
5.37839908631292,0.107437793138351,0.0057625311613676,,
5.41709260491949,0.100363139769336,0.00553150041719297,,
5.45578612352606,0.0934713507420092,0.0052920681668529,,
5.49447964213262,0.0865515686358555,0.00505290280044512,,
5.53317316073919,0.0797217566416522,0.0048246102854077,,
5.57186667934576,0.0725834502207816,0.00457686193176121,,
5.61056019795233,0.0656588540182692,0.00431860368889092,,
5.64925371655889,0.0586392596476096,0.00406621689251452,,
5.68794723516546,0.0516693039594053,0.00385456725944788,,
5.72664075377203,0.044646321891308,0.00356152870261939,,
5.7653342723786,0.0375890349291575,0.00333113314220146,,
5.80402779098517,0.0305397358009654,0.00308380646516682,,
5.84272130959173,0.0234927902309932,0.00283229504808613,,
5.8814148281983,0.0164646374668068,0.00257770912811361,,
5.92010834680487,0.00928985089352838,0.00234391880408635,,
5.95880186541144,0.00223969592598359,0.00207790491416571,,
5.997495384018,-0.0047867094995244,0.00183715425720443,,
6.03618890262457,-0.0118722035003402,0.00158526386494051,,
6.07488242123114,-0.0189736731690726,0.00133744612147169,,
6.11357593983771,-0.0260520351752827,0.00110517169817603,,
6.15226945844428,-0.0331412378132934,0.000830841704948515,,
6.19096297705084,-0.0401094818227923,0.000589317084585428,,
6.22965649565741,-0.0472888328726184,0.000309275775222773,,
6.26835001426398,-0.0542522271257855,7.21387266944262E-05,,
6.30704353287055,-0.0612681128592502,-0.000202580917072925,,
6.34573705147711,-0.0682483386196866,-0.000430948159611422,,
6.38443057008368,-0.0751849165731365,-0.000697597233289216,,
6.42312408869025,-0.0821559420605317,-0.000915182364993328,,
6.46181760729682,-0.0891573498449469,-0.00119363838380249,,
6.50051112590339,-0.096073958213501,-0.0014253790392349,,
6.53920464450995,-0.103072441880128,-0.00168216408280353,,
6.57789816311652,-0.109807041746346,-0.00194548244501558,,
6.61659168172309,-0.116770435999513,-0.00221548091203427,,
6.65528520032966,-0.12358897944224,-0.00246161461789507,,
6.69397871893622,-0.130373146670967,-0.00269890645910387,,
6.73267223754279,-0.137011892529685,-0.00294386053798679,,
6.77136575614936,-0.143878006376431,-0.00318156071161102,,
6.81005927475593,-0.15058293714509,-0.0034653330583363,,
6.8487527933625,-0.15709359238069,-0.00366809812532187,,
6.88744631196906,-0.163852441028568,-0.00394049321004575,,
6.92613983057563,-0.170389912563886,-0.00418542860705395,,
6.9648333491822,-0.176779038611406,-0.00443683327056243,,
7.00352686778877,-0.183437540095182,-0.00467143492174138,,
7.04222038639533,-0.189808051636782,-0.00493031233533259,,
7.0809139050019,-0.196153173277586,-0.00515261597494643,,
7.11960742360847,-0.202617684508088,-0.00539142371688639,,
7.15830094221504,-0.20883678380421,-0.00562566240591833,,
7.19699446082161,-0.215099530907319,-0.00586666660261459,,
7.23568797942817,-0.221386241512302,-0.00611578940850865,,
7.27438149803474,-0.227415629751914,-0.00633747387740113,,
7.31307501664131,-0.233572252775291,-0.00657177394973729,,
7.35176853524788,-0.239550861213311,-0.00680915653148251,,
7.39046205385444,-0.24553688692572,-0.00704704352385876,,
7.42915557246101,-0.251787366998107,-0.00725034502754696,,
7.46784909106758,-0.257489610645158,-0.00750860327041725,,
7.50654260967415,-0.263025964097682,-0.00772759754927987,,
7.54523612828072,-0.269178807163917,-0.00793557219060892,,
7.58392964688728,-0.274751819068714,-0.0081627251112586,,
7.62262316549385,-0.280370119139257,-0.00837123352045133,,
7.66131668410042,-0.28559016863102,-0.00861059638096862,,
7.70001020270699,-0.291304394029009,-0.00879515462614489,,
7.73870372131355,-0.29678797072145,-0.00904649523750978,,
7.77739723992012,-0.302326107172626,-0.00924460584872966,,
7.81609075852669,-0.307618332449798,-0.00942414934483216,,
7.85478427713326,-0.312834388024582,-0.00966120365934176,,
7.89347779573983,-0.317787130358526,-0.0098527836207567,,
7.93217131434639,-0.322850275968965,-0.0100577905127675,,
7.97086483295296,-0.327996794596344,-0.0102672009896483,,
8.00955835155953,-0.332869301990975,-0.010471249768345,,
8.0482518701661,-0.337625201273803,-0.0106436327685642,,
8.08694538877266,-0.342418757488149,-0.0108565901328954,,
8.12563890737923,-0.346890803385672,-0.0110308946974222,,
8.1643324259858,-0.351305508046566,-0.0112317195182254,,
8.20302594459237,-0.356198626905607,-0.0114137984116778,,
8.24171946319894,-0.360591650302899,-0.0115997871547271,,
8.2804129818055,-0.364847240164141,-0.0117733017428163,,
8.31910650041207,-0.369419633225766,-0.0119414599703993,,
8.35780001901864,-0.373365337921393,-0.0121525091146202,,
8.39649353762521,-0.377328159404073,-0.0122700688176232,,
8.43518705623177,-0.381306671274886,-0.0124125207849208,,
8.47388057483834,-0.385598420348779,-0.0126291638163463,,
8.51257409344491,-0.389100800259719,-0.0127876501702509,,
8.55126761205148,-0.39290842953978,-0.0129451997615555,,
8.58996113065805,-0.396571421969239,-0.013102874788308,,
8.62865464926461,-0.400177929001422,-0.0132362527019332,,
8.66734816787118,-0.403475549347234,-0.0134212352925607,,
8.70604168647775,-0.406634951637588,-0.0135630894398515,,
8.74473520508432,-0.409899978768052,-0.0137171134944203,,
8.78342872369088,-0.412959319174089,-0.0138496160287502,,
8.82212224229745,-0.416214361512106,-0.0139753290358615,,
8.86081576090402,-0.419242321141878,-0.0141067640344654,,
8.89950927951059,-0.421915749319804,-0.0142264534712422,,
8.93820279811716,-0.424808985571476,-0.0143819774135063,,
8.97689631672372,-0.427334282221442,-0.0144950908302097,,
9.01558983533029,-0.430017338592086,-0.0146347672046194,,
9.05428335393686,-0.432249367623868,-0.0147387451843466,,
9.09297687254343,-0.434659411241008,-0.014861063427849,,
9.13167039114999,-0.437305309919756,-0.0149553695338969,,
9.17036390975656,-0.439246353571628,-0.0150741862602177,,
9.20905742836313,-0.441178054310567,-0.0151522444725138,,
9.2477509469697,-0.443486538324522,-0.0152574394429688,,
9.28644446557627,-0.444786843581023,-0.0153256763265839,,
9.32513798418283,-0.446808906691615,-0.0154481627069631,,
9.3638315027894,-0.448194795883384,-0.0155313264088699,,
9.40252502139597,-0.450051396719126,-0.0156517204192257,,
9.44121854000254,-0.451275532273238,-0.0156912832932368,,
9.4799120586091,-0.45283915077058,-0.0157876417367184,,
9.51860557721567,-0.453697201041585,-0.0158652302332953,,
9.55729909582224,-0.455055774694014,-0.0159324422826135,,
9.59599261442881,-0.4558770951928,-0.016000273502653,,
9.63468613303538,-0.457216198499956,-0.0160340716837433,,
9.67337965164194,-0.457586491659881,-0.0161236165804528,,
9.71207317024851,-0.457979535882598,-0.0161714208302697,,
9.75076668885508,-0.458886226356814,-0.0162227265972685,,
9.78946020746165,-0.459360361358197,-0.0162433487186582,,
9.82815372606821,-0.459529888869973,-0.0163081081046461,,
9.86684724467478,-0.459737501232944,-0.0163394482847266,,
9.90554076328135,-0.460043677761364,-0.0163682076971892,,
9.94423428188792,-0.460183750135419,-0.0163899854260023,,
9.98292780049449,-0.459777226442897,-0.0164320063010228,,
10.0216213191011,-0.459643430224095,-0.0164823539547077,,
10.0603148377076,-0.459405720843889,-0.0164451183085794,,
10.0990083563142,-0.458799002062787,-0.0165038541242324,,
10.1377018749208,-0.458584186385265,-0.0165154662440936,,
10.1763953935273,-0.457692045180045,-0.016520379577273,,
10.2150889121339,-0.456966863968543,-0.016531778189989,,
10.2537824307405,-0.456530956458246,-0.0165111133671703,,
10.292475949347,-0.455141643909066,-0.0165131390162103,,
10.3311694679536,-0.45425413850034,-0.0165066937692639,,
10.3698629865602,-0.453055963406592,-0.0165164510458009,,
10.4085565051667,-0.45170231083044,-0.0164949268567223,,
10.4472500237733,-0.450387171025159,-0.0164703521843061,,
10.4859435423799,-0.448877185127252,-0.0164439226685662,,
10.5246370609864,-0.447549207731681,-0.0164290839219725,,
10.563330579593,-0.445374805216312,-0.0163899427245733,,
10.6020240981996,-0.444020011521024,-0.0163625924592692,,
10.6407176168061,-0.442100649132753,-0.0163130374508613,,
10.6794111354127,-0.440197547692183,-0.0162972192402391,,
10.7181046540193,-0.437834860519225,-0.0162152965486144,,
10.7567981726258,-0.435697758335644,-0.0161677271566574,,
10.7954916912324,-0.433426075413854,-0.0161233176704494,,
10.834185209839,-0.431201820256191,-0.0160437222067076,,
10.8728787284455,-0.428292251736872,-0.0159752931666612,,
10.9115722470521,-0.425817734888498,-0.0159094048616431,,
10.9502657656587,-0.42327817424932,-0.0158762472019891,,
10.9889592842652,-0.420296073344862,-0.015789160306289,,
11.0276528028718,-0.417274175910504,-0.0157209020719589,,
11.0663463214784,-0.414274744259154,-0.0156407034505319,,
11.105039840085,-0.411438207364597,-0.0155465040980562,,
11.1437333586915,-0.408031966740942,-0.0154592250459253,,
11.1824268772981,-0.404674865560119,-0.0153495250747064,,
11.2211203959047,-0.401386088887618,-0.0152837648739754,,
11.2598139145112,-0.397885420655383,-0.0151941559251223,,
11.2985074331178,-0.394298883208097,-0.0150825557403107,,
11.3372009517244,-0.390638173016911,-0.014955454936755,,
11.3758944703309,-0.38649398491141,-0.0148672337843458,,
11.4145879889375,-0.382691989907087,-0.0147362658326227,,
11.4532815075441,-0.379098534425033,-0.014634788555334,,
11.4919750261506,-0.374730116409129,-0.0145183417583254,,
11.5306685447572,-0.370582148346486,-0.0144036483887473,,
11.5693620633638,-0.366558063030143,-0.0142632861226337,,
11.6080555819703,-0.362190286893755,-0.0141160489264434,,
11.6467491005769,-0.357716600637472,-0.014009917193389,,
11.6854426191835,-0.353401458621273,-0.0138560879640899,,
11.72413613779,-0.348655544130893,-0.0136875000533769,,
11.7628296563966,-0.344123589478682,-0.013572868067103,,
11.8015231750032,-0.339436371303906,-0.0134477075097297,,
11.8402166936097,-0.334538545328426,-0.0133150982218271,,
11.8789102122163,-0.329585731674536,-0.0131346660022325,,
11.9176037308229,-0.324758441125705,-0.0129676420313585,,
11.9562972494294,-0.319634602241172,-0.0128152779948434,,
11.994990768036,-0.314678436549818,-0.0126768212800012,,
12.0336842866426,-0.309390775749193,-0.0125097519388584,,
12.0723778052491,-0.304086782680921,-0.0123363868057709,,
12.1110713238557,-0.298636298443449,-0.0121516577548784,,
12.1497648424623,-0.293341862247949,-0.011982175782995,,
12.1884583610688,-0.287974537067579,-0.0117767178571402,,
12.2271518796754,-0.282253464954769,-0.0116228646082872,,
12.265845398282,-0.27678557865046,-0.0114123892645193,,
12.3045389168886,-0.271027206205862,-0.0112724353308211,,
12.3432324354951,-0.265337871469048,-0.0110654828549492,,
12.3819259541017,-0.259684481985045,-0.0108941433709022,,
12.4206194727083,-0.253924397861742,-0.0106757042106174,,
12.4593129913148,-0.247839665343991,-0.0104937107200231,,
12.4980065099214,-0.242005979036358,-0.0102929713020776,,
12.536700028528,-0.235816548837795,-0.0100911429976915,,
12.5753935471345,-0.229789157556673,-0.00987633345887584,,
12.6140870657411,-0.223674185381793,-0.00969805499260845,,
12.6527805843477,-0.217514994840358,-0.00947769693685574,,
12.6914741029542,-0.211415356453881,-0.00930208197222537,,
12.7301676215608,-0.204970957448167,-0.00906660761059053,,
12.7688611401674,-0.198609218259932,-0.00883580638659653,,
12.8075546587739,-0.192390618203432,-0.00864166433943891,,
12.8462481773805,-0.185837527599928,-0.00841526136263671,,
12.8849416959871,-0.179364814575629,-0.00818194075432954,,
12.9236352145936,-0.172696399619351,-0.00796147060732544,,
12.9623287332002,-0.166249647055417,-0.00775665587174545,,
13.0010222518068,-0.159666316794785,-0.0075176773240897,,
13.0397157704133,-0.153025716617469,-0.00727826909330354,,
13.0784092890199,-0.146394744632871,-0.00709100197622226,,
13.1171028076265,-0.139601091851318,-0.00685460953386263,,
13.155796326233,-0.132936956091804,-0.00660484887537249,,
13.1944898448396,-0.126126186523198,-0.00636838971203035,,
13.2331833634462,-0.119298585447322,-0.00615829868112394,,
13.2718768820527,-0.112371421726751,-0.00591737721844599,,
13.3105704006593,-0.105604299965132,-0.00569902346101925,,
13.3492639192659,-0.0986483229863544,-0.00544860093037869,,
13.3879574378725,-0.0917799269013345,-0.005193478573704,,
13.426650956479,-0.0848696660079794,-0.00494515108192628,,
