Time domain (s),Current (AC) (A),Potential (AC) (V),Frequency (Hz),Column 5
0,-0.427552663896267,-0.00893814458549791,25.119,0.5
0.000242984021059756,-0.431525541491341,-0.00907198886006855,,
0.000485968042119511,-0.43454886532462,-0.00920529111840374,,
0.000728952063179267,-0.437335692216776,-0.00929806135771294,,
0.000971936084239022,-0.439190367413974,-0.00941952697105153,,
0.00121492010529878,-0.440506077778823,-0.00951018986923158,,
0.00145790412635853,-0.441096535612224,-0.00956691940246435,,
0.00170088814741829,-0.440969942707974,-0.00961717172923926,,
0.00194387216847804,-0.44058788175695,-0.00968018055428876,,
0.0021868561895378,-0.43939263078099,-0.00972302007811621,,
0.00242984021059756,-0.437476406470345,-0.00975945436444592,,
0.00267282423165731,-0.434736294142857,-0.00976616547002651,,
0.00291580825271707,-0.431354872860428,-0.00974606813776502,,
0.00315879227377682,-0.427858483824957,-0.00971447376403889,,
0.00340177629483658,-0.423213487058247,-0.00968473259105007,,
0.00364476031589633,-0.418044288688022,-0.00963116969208544,,
0.00388774433695609,-0.412237989239674,-0.00956706334038593,,
0.00413072835801584,-0.405904136150348,-0.00951877216778918,,
0.0043737123790756,-0.398896024291003,-0.00940036748430817,,
0.00461669640013536,-0.391516121552866,-0.00928555675079989,,
0.00485968042119511,-0.383548471139278,-0.00918541194205424,,
0.00510266444225487,-0.374763636783776,-0.0090331795980374,,
0.00534564846331462,-0.365802642161514,-0.00887326681650125,,
0.00558863248437438,-0.356149130863043,-0.00870532274876235,,
0.00583161650543413,-0.34575888452181,-0.00856516544692454,,
0.00607460052649389,-0.335031580115514,-0.00835251516044133,,
0.00631758454755364,-0.323584728773455,-0.0081646784221725,,
0.0065605685686134,-0.311795185090594,-0.00795789135695246,,
0.00680355258967316,-0.299749032241822,-0.00773117113866162,,
0.00704653661073291,-0.286984473576424,-0.0075276946456313,,
0.00728952063179267,-0.274258641641734,-0.00724480490258284,,
0.00753250465285242,-0.260648585015836,-0.00701410839921657,,
0.00777548867391218,-0.246877273991905,-0.00673233192602796,,
0.00801847269497193,-0.23264124219947,-0.00643688135031617,,
0.00826145671603169,-0.218005818709119,-0.00616186995942858,,
0.00850444073709144,-0.203443498163476,-0.00588694852974214,,
0.0087474247581512,-0.188138166419816,-0.00557996492808588,,
0.00899040877921095,-0.172607534966565,-0.00524529126881923,,
0.00923339280027071,-0.15692142603091,-0.00494543259426727,,
0.00947637682133047,-0.141094959441416,-0.00460086320291087,,
0.00971936084239022,-0.125009458807846,-0.00429506708910488,,
0.00996234486344998,-0.108620135204075,-0.00395155923991819,,
0.0102053288845097,-0.0922057069792915,-0.00359162447546302,,
0.0104483129055695,-0.0755708288012479,-0.00325058156317848,,
0.0106912969266292,-0.0587769071434985,-0.00289117082271817,,
0.010934280947689,-0.042040968601893,-0.00252768933792069,,
0.0111772649687488,-0.025133862189752,-0.00217011155692681,,
0.0114202489898085,-0.00822076490214226,-0.00180450923682018,,
0.0116632330108683,0.00873198627547486,-0.00142694207700522,,
0.011906217031928,0.0256679059458227,-0.00105353112466799,,
0.0121492010529878,0.0425556133326363,-0.000692498833562816,,
0.0123921850740475,0.059468710620246,-0.000315741324555585,,
0.0126351690951073,0.0762057902809885,6.88967856432576E-05,,
0.012878153116167,0.0929559928118053,0.000426294644235714,,
0.0131211371372268,0.109299350710343,0.000817466186643578,,
0.0133641211582866,0.125537796968232,0.00118326417236192,,
0.0136071051793463,0.141803594425433,0.00157578288375193,,
0.0138500892004061,0.157756119019582,0.00193721550220083,,
0.0140930732214658,0.173390057414696,0.00229252176287398,,
0.0143360572425256,0.188719317000257,0.00265144446382015,,
0.0145790412635853,0.20401455697155,0.00301597174757706,,
0.0148220252846451,0.218819721933515,0.00336689239971077,,
0.0150650093057048,0.233303376578658,0.00371338246270447,,
0.0153079933267646,0.247530279417998,0.00406001196555961,,
0.0155509773478244,0.261373160007797,0.00439039897360782,,
0.0157939613688841,0.274783057205087,0.00472958868515549,,
0.0160369453899439,0.287626032151174,0.00506715909508859,,
0.0162799294110036,0.300189218948882,0.00538132160056959,,
0.0165229134320634,0.312496474120167,0.00568871902375001,,
0.0167658974531231,0.324304489669056,0.00596310068623129,,
0.0170088814741829,0.335260945062032,0.00628069970958389,,
0.0172518654952426,0.346139233794129,0.00658354509600301,,
0.0174948495163024,0.356321154572932,0.00684963233576941,,
0.0177378335373622,0.365793013968796,0.00710503218487935,,
0.0179808175584219,0.374760498706149,0.00735968985408242,,
0.0182238015794817,0.383508032729864,0.00758319395944396,,
0.0184667856005414,0.391787993187233,0.00782819879179986,,
0.0187097696216012,0.399021547396062,0.00801569142847525,,
0.0189527536426609,0.406000632037362,0.00824687372232624,,
0.0191957376637207,0.412289910160404,0.00847024738394664,,
0.0194387216847804,0.417842881160358,0.00863496184457624,,
0.0196817057058402,0.422512911228134,0.00880246060437084,,
0.0199246897269,0.426883112242689,0.0089528712340714,,
0.0201676737479597,0.431374271885756,0.00910074945596895,,
0.0204106577690195,0.434110390296265,0.00922752278015526,,
0.0206536417900792,0.437101263554088,0.00935535764651174,,
0.020896625811139,0.438691698351147,0.00946741331824486,,
0.0211396098321987,0.439765206179189,0.009544941881106,,
0.0213825938532585,0.440694362436412,0.00959425861139218,,
0.0216255778743182,0.440659843582521,0.00966748702885445,,
0.021868561895378,0.439782037686458,0.00970476695047173,,
0.0221115459164378,0.438555905173856,0.00974210084880944,,
0.0223545299374975,0.436405466160362,0.00977239528318341,,
0.0225975139585573,0.433711569157918,0.0097819131782293,,
0.022840497979617,0.430768622903844,0.0097601470656925,,
0.0230834820006768,0.426931324526223,0.00973470603810256,,
0.0233264660217365,0.42260305963995,0.00967218300353689,,
0.0235694500427963,0.417648320347516,0.00964962073437281,,
0.023812434063856,0.411418665699378,0.00958383660627815,,
0.0240554180849158,0.405347056051701,0.00948330046630863,,
0.0242984021059756,0.398509184903593,0.00941124154445694,,
0.0245413861270353,0.390907334493328,0.00927178369095572,,
0.0247843701480951,0.382775148964188,0.00917892573947565,,
0.0250273541691548,0.373928052295778,0.00902987802196797,,
0.0252703381902146,0.364814219029117,0.00886638253560923,,
0.0255133222112743,0.355290723992308,0.00871696147911782,,
0.0257563062323341,0.344731092779191,0.00853562668663788,,
0.0259992902533938,0.334171176286289,0.00834485496419246,,
0.0262422742744536,0.323163655811937,0.00816087081434835,,
0.0264852582955134,0.311151094657758,0.00792916674553279,,
0.0267282423165731,0.298830146056831,0.00771446534367115,,
0.0269712263376329,0.286404499775093,0.00747567683029127,,
0.0272142103586926,0.273350952688273,0.00723728864425555,,
0.0274571943797524,0.259832399553166,0.00699576531037094,,
0.0277001784008121,0.246196061527147,0.00671299926397362,,
0.0279431624218719,0.231882077033672,0.00641699092881654,,
0.0281861464429316,0.217464642958443,0.00613775136149108,,
0.0284291304639914,0.202557633113509,0.00585799001920062,,
0.0286721144850512,0.187373331318307,0.00553244292375643,,
0.0289150985061109,0.172082334883805,0.00523315550282977,,
0.0291580825271707,0.156339740550874,0.00487505594687088,,
0.0294010665482304,0.140310475694769,0.00456546347039088,,
0.0296440505692902,0.124190420547334,0.00423438825915667,,
0.0298870345903499,0.107817357891263,0.00392563691990411,,
0.0301300186114097,0.0913053639802749,0.00354053101146112,,
0.0303730026324694,0.0746156407637139,0.00320767906651076,,
0.0306159866535292,0.0578751377455608,0.00286494938171122,,
0.030858970674589,0.0410764376514256,0.00249470056558287,,
0.0311019546956487,0.0240854589827222,0.00214045134901886,,
0.0313449387167085,0.00718659002435077,0.00177600503034281,,
0.0315879227377682,-0.00977660952536362,0.00138621664139738,,
0.031830906758828,-0.0266880664542141,0.0010182753300696,,
0.0320738907798877,-0.0436185658086616,0.000644918354452795,,
0.0323168748009475,-0.060494576724322,0.000280107692913312,,
0.0325598588220072,-0.0771098419172,-9.51564601603394E-05,,
0.032802842843067,-0.0936954380125185,-0.000484076723517912,,
0.0330458268641268,-0.110078842060767,-0.000841330644188787,,
0.0332888108851865,-0.12636396722335,-0.00122938728001865,,
0.0335317949062463,-0.142605515898892,-0.00158552568179937,,
0.033774778927306,-0.158628254979933,-0.00195690351099831,,
0.0340177629483658,-0.174334904060052,-0.00232628420153924,,
0.0342607469694255,-0.189809620675595,-0.00270685606546106,,
0.0345037309904853,-0.20481391092695,-0.00307373583461912,,
0.034746715011545,-0.219932883651564,-0.00341391511937594,,
0.0349896990326048,-0.234241875748815,-0.00376528557751366,,
0.0352326830536646,-0.248559854159269,-0.00410478340617404,,
0.0354756670747243,-0.262344929932789,-0.00444817880385973,,
0.0357186510957841,-0.275868190184336,-0.00477859280026838,,
0.0359616351168438,-0.288780595097909,-0.00510342020610599,,
0.0362046191379036,-0.301468128221567,-0.00540651973291739,,
0.0364476031589633,-0.313623043988074,-0.00570795947557334,,
0.0366905871800231,-0.325298119157515,-0.00601062943765074,,
0.0369335712010828,-0.336450847042037,-0.00630470810505068,,
0.0371765552221426,-0.347173373011948,-0.0065960766912756,,
0.0374195392432024,-0.357255445866271,-0.00684863376643996,,
0.0376625232642621,-0.366861886000344,-0.00710432149139262,,
0.0379055072853219,-0.376001465767531,-0.00737913496763776,,
0.0381484913063816,-0.384694796632244,-0.00763885520341701,,
0.0383914753274414,-0.392648111736674,-0.00784427036032476,,
0.0386344593485011,-0.400153252300086,-0.00806501715488128,,
0.0388774433695609,-0.40694868808029,-0.00827684204734691,,
0.0391204273906206,-0.41333203721218,-0.00846842117156976,,
0.0393634114116804,-0.418773749096287,-0.00865658401919145,,
0.0396063954327402,-0.423413824786719,-0.00882443362766949,,
0.0398493794537999,-0.428657837780358,-0.00896381951221015,,
0.0400923634748597,-0.432024424514006,-0.00909500093523663,,
0.0403353474959194,-0.435272334857417,-0.00923292719929369,,
0.0405783315169792,-0.437554501811277,-0.00933021573991377,,
0.0408213155380389,-0.439812277343586,-0.00941677640733651,,
0.0410642995590987,-0.440562848455884,-0.00952632890865734,,
0.0413072835801584,-0.441159653764484,-0.00961600223362868,,
0.0415502676012182,-0.441222985876582,-0.00965045737354009,,
0.041793251622278,-0.440443530186132,-0.00971661484061848,,
0.0420362356433377,-0.43882492401038,-0.00973097264826839,,
0.0422792196643975,-0.437011115142273,-0.00975018836076202,,
0.0425222036854572,-0.434225928608877,-0.00975688147410247,,
0.042765187706517,-0.430922103427758,-0.00973971687698727,,
0.0430081717275767,-0.427033240729138,-0.00973485672311325,,
0.0432511557486365,-0.422358289585084,-0.00970556760515873,,
0.0434941397696962,-0.417242652494347,-0.00963091780072345,,
0.043737123790756,-0.411317106096194,-0.00956391469835749,,
0.0439801078118158,-0.404966778099328,-0.00948611625189377,,
0.0442230918328755,-0.397962018277448,-0.00936333720502347,,
0.0444660758539353,-0.390365944782814,-0.0092858783620926,,
0.044709059874995,-0.382169214702493,-0.00914199666654136,,
0.0449520438960548,-0.373675579686739,-0.00902254618410137,,
0.0451950279171145,-0.3642692633213,-0.0088626671380152,,
0.0454380119381743,-0.35434302454911,-0.0087122317689845,,
0.045680995959234,-0.343882955980687,-0.00852160623349052,,
0.0459239799802938,-0.333056588169319,-0.00832264804177107,,
0.0461669640013536,-0.321691612125332,-0.00816404869376663,,
0.0464099480224133,-0.310086644462866,-0.00793934135734453,,
0.0466529320434731,-0.297798075117448,-0.00769820935468379,,
0.0468959160645328,-0.285243696333078,-0.00743728588784398,,
0.0471389000855926,-0.272008140743923,-0.00718422502995519,,
0.0473818841066523,-0.258616037873174,-0.00693292741160212,,
0.0476248681277121,-0.244620996178463,-0.00668621781449108,,
0.0478678521487718,-0.230440308664168,-0.00639103712238143,,
0.0481108361698316,-0.215840545146845,-0.00611127578009096,,
0.0483538201908914,-0.200865852673104,-0.00583659049855667,,
0.0485968042119511,-0.185691606990296,-0.00552458481286511,,
0.0488397882330109,-0.170219529212757,-0.00519977090120749,,
0.0490827722540706,-0.154533348957156,-0.00488924282823877,,
0.0493257562751304,-0.138484078856182,-0.00455269797599511,,
0.0495687402961901,-0.122405424937433,-0.00422101102859518,,
0.0498117243172499,-0.106024659727188,-0.00389975958048971,,
0.0500547083383096,-0.0895090284989512,-0.00354320735718527,,
0.0502976923593694,-0.0729513185025407,-0.00318111352391037,,
0.0505406763804292,-0.0561769385100108,-0.00282425543252263,,
0.0507836604014889,-0.0393864402096721,-0.00245273366540255,,
0.0510266444225487,-0.0224140047269434,-0.00209204322686052,,
0.0512696284436084,-0.00551773894660297,-0.00174123052816766,,
0.0515126124646682,0.0114792305975691,-0.00136242190378155,,
0.0517555964857279,0.0284211411433857,-0.000990592019548764,,
0.0519985805067877,0.0453056747925998,-0.000640897088776349,,
0.0522415645278474,0.0621491994728315,-0.000225798115982112,,
0.0524845485489072,0.0788392079691767,0.000148116619079985,,
0.052727532569967,0.0955032560051573,0.000486298765178361,,
0.0529705165910267,0.111830673895751,0.000876336796455934,,
0.0532135006120865,0.128162335323136,0.00125612824696075,,
0.0534564846331462,0.144416757248941,0.0016022854535116,,
0.053699468654206,0.16018616788159,0.00197979863660569,,
0.0539424526752657,0.1758260614922,0.00236109019013409,,
0.0541854366963255,0.191202071302401,0.00272582438465285,,
0.0544284207173852,0.206374141726854,0.00308696912725903,,
0.054671404738445,0.221198099494605,0.00342637474568885,,
0.0549143887595048,0.235481202451438,0.00375203429263404,,
0.0551573727805645,0.249748900299922,0.00410300892148863,,
0.0554003568016243,0.263512794049463,0.00442141759564807,,
0.055643340822684,0.276886995613752,0.00477272957900565,,
0.0558863248437438,0.289625344198975,0.005101951589503,,
0.0561293088648035,0.302360198106841,0.00541903333595073,,
0.0563722928858633,0.314426391860454,0.00572556713160299,,
0.056615276906923,0.325843859384739,0.00600476621638846,,
0.0568582609279828,0.337118401737126,0.00634441473005998,,
0.0571012449490426,0.347788436226738,0.00661501352404725,,
0.0573442289701023,0.357958089974819,0.00689684397395629,,
0.0575872129911621,0.367206575299635,0.00713720231029003,,
0.0578301970122218,0.376319838006727,0.00737926990943949,,
0.0580731810332816,0.385076786263322,0.00764406620597446,,
0.0583161650543413,0.39274368046439,0.00784859749408406,,
0.0585591490754011,0.400260517498955,0.00807486790637046,,
0.0588021330964608,0.406918377103216,0.00826765475971403,,
0.0590451171175206,0.41342446786227,0.00847332405701451,,
0.0592881011385804,0.418618271613884,0.00863834888378667,,
0.0595310851596401,0.423520234146236,0.0088252927571375,,
0.0597740691806999,0.427638247831535,0.0089880100791091,,
0.0600170532017596,0.43179648596641,0.00914231153074452,,
0.0602600372228194,0.434689793538028,0.00926528849225683,,
0.0605030212438791,0.43724048008879,0.00937255822810723,,
0.0607460052649389,0.438949305996303,0.00947552332049817,,
0.0609889892859986,0.440279850909932,0.00955546734160118,,
0.0612319733070584,0.440685804042885,0.00961741462448185,,
0.0614749573281182,0.440364293726063,0.0096897929085964,,
0.0617179413491779,0.439579774319442,0.00973574508997199,,
0.0619609253702377,0.438033557888938,0.00973865983287814,,
0.0622039093912974,0.435893674227461,0.00977669992664243,,
0.0624468934123572,0.433609724274949,0.00978965433955947,,
0.0626898774334169,0.430213183163957,0.00974769193743974,,
0.0629328614544767,0.426038969361165,0.00973270889944455,,
0.0631758454755364,0.421478486730532,0.0096850069727128,,
0.0634188294965962,0.416509483448887,0.00965053384056125,,
0.063661813517656,0.410653545318084,0.00960123960057535,,
0.0639047975387157,0.404369972790727,0.00949715449123412,,
0.0641477815597755,0.397485601037791,0.00940269523037962,,
0.0643907655808352,0.389484644209394,0.00929135924825264,,
0.064633749601895,0.381338765250612,0.00916231890180574,,
0.0648767336229547,0.372644293266762,0.0090293742392431,,
0.0651197176440145,0.3634979381047,0.00885576711391334,,
0.0653627016650742,0.353593879835733,0.00870371919035806,,
0.065605685686134,0.343296135464535,0.00854737561946406,,
0.0658486697071937,0.332377337003077,0.00830968463273418,,
0.0660916537282535,0.321106218008101,0.00812220549023879,,
0.0663346377493133,0.309418305248371,0.00790209292214783,,
0.066577621770373,0.297148136449036,0.00769422407348808,,
0.0668206057914328,0.284319960391755,0.0074481621970226,,
0.0670635898124925,0.271248155398745,0.00720346773080971,,
0.0673065738335523,0.257807483644732,0.00693642690231444,,
0.067549557854612,0.243635390183936,0.0066673169662006,,
0.0677925418756718,0.22967490300309,0.00638307555610984,,
0.0680355258967316,0.215118252393159,0.00608790835818018,,
0.0682785099177913,0.200189810904435,0.00582250932159978,,
0.0685214939388511,0.184835161418077,0.00550863469196106,,
0.0687644779599108,0.169552188477507,0.00519871835515806,,
0.0690074619809706,0.153825569812492,0.00486017186619625,,
0.0692504460020303,0.137795128177277,0.00451119887406026,,
0.0694934300230901,0.121523090224795,0.00416956221785059,,
0.0697364140441498,0.105284643966907,0.00386211081794974,,
0.0699793980652096,0.0886770813282028,0.00351615602410105,,
0.0702223820862694,0.0719859317127207,0.00313060030965406,,
0.0704653661073291,0.0551238995064874,0.00281514236288061,,
0.0707083501283889,0.0383916696020768,0.00242962263291391,,
0.0709513341494486,0.0214283630724433,0.00204642390192822,,
0.0711943181705084,0.00443652856438726,0.00169955600189109,,
0.0714373021915681,-0.0125039555825082,0.00133288764155504,,
0.0716802862126279,-0.0294515717240092,0.000946614486531328,,
0.0719232702336876,-0.0462805114752723,0.000560390810168343,,
0.0721662542547474,-0.0631553812717958,0.000178255870382227,,
0.0724092382758072,-0.0798499542446886,-0.000178244625232082,,
0.0726522222968669,-0.0963092427155412,-0.000530750843529937,,
0.0728952063179267,-0.112764109349738,-0.00092337525933095,,
0.0731381903389864,-0.12907383989371,-0.00129007510608758,,
0.0733811743600462,-0.145317171567904,-0.0016494521110979,,
0.0736241583811059,-0.161226868534446,-0.00201190578917565,,
0.0738671424021657,-0.176829105213538,-0.00239129241427705,,
0.0741101264232254,-0.192153479382794,-0.00273316072057916,,
0.0743531104442852,-0.207206338517414,-0.00312713680342203,,
0.074596094465345,-0.22228223399461,-0.00348083050957104,,
0.0748390784864047,-0.236723809871579,-0.00382017990225014,,
0.0750820625074645,-0.250708581494057,-0.0041659750149674,,
0.0753250465285242,-0.264663042139461,-0.00449839739518421,,
0.075568030549584,-0.277866432432945,-0.00480647852349048,,
0.0758110145706437,-0.290850014652683,-0.00513884917601626,,
0.0760539985917035,-0.303678475989748,-0.00545385731678527,,
0.0762969826127632,-0.315503037766122,-0.00575373398357737,,
0.076539966633823,-0.327042319758271,-0.00605227922459761,,
0.0767829506548827,-0.33841250215832,-0.0063505163485047,,
0.0770259346759425,-0.348829350839432,-0.00660456902863249,,
0.0772689186970023,-0.358789680545837,-0.00689467590901627,,
0.077511902718062,-0.368590681492752,-0.00714804263498792,,
0.0777548867391218,-0.377466662739315,-0.00741414786699446,,
0.0779978707601815,-0.386067206354208,-0.00763860331205457,,
0.0782408547812413,-0.394131067375026,-0.00786854189230413,,
0.078483838802301,-0.40121677533568,-0.00809495624251211,,
0.0787268228233608,-0.407889255528883,-0.0083101096994076,,
0.0789698068444206,-0.413964502493809,-0.00849594929901842,,
0.0792127908654803,-0.419518828572739,-0.00867072367092936,,
0.0794557748865401,-0.424257682388459,-0.00884836330708572,,
0.0796987589075998,-0.429103159523534,-0.0089906819267731,,
0.0799417429286596,-0.432700822882406,-0.00911284923747768,,
0.0801847269497193,-0.435425244821762,-0.00924107768408744,,
