Time domain (s),Current (AC) (A),Potential (AC) (V),Frequency (Hz),Column 5
0,-0.265091960295045,-0.00954184248980061,1.9953,0.5
0.00122357853455621,-0.259403196117799,-0.00937233649836333,,
0.00244715706911241,-0.253728695929764,-0.00920975080727038,,
0.00367073560366862,-0.247641395893954,-0.00902914511312014,,
0.00489431413822483,-0.241740169597405,-0.00887413892568345,,
0.00611789267278103,-0.235580337176456,-0.00870386697736203,,
0.00734147120733724,-0.229573200760014,-0.00854337365629254,,
0.00856504974189345,-0.223458513864918,-0.00839351299105573,,
0.00978862827644966,-0.217284774054488,-0.00822446070230187,,
0.0110122068110059,-0.211092491058083,-0.00804953429821476,,
0.0122357853455621,-0.204840299306991,-0.00785801572010403,,
0.0134593638801183,-0.198400964017447,-0.00768644137819718,,
0.0146829424146745,-0.192146204748297,-0.0075141197612818,,
0.0159065209492307,-0.185626991119169,-0.00734444830180703,,
0.0171300994837869,-0.179067053800843,-0.00713559027466415,,
0.0183536780183431,-0.172595125295951,-0.00696064785754125,,
0.0195772565528993,-0.166103013246325,-0.00678830488991133,,
0.0208008350874555,-0.159323410494145,-0.00659368778935532,,
0.0220244136220117,-0.152753559703318,-0.00639623905028586,,
0.0232479921565679,-0.146048129695037,-0.0062062844120141,,
0.0244715706911241,-0.139367447708037,-0.00602413879757879,,
0.0256951492256803,-0.132589200034833,-0.00583964727338548,,
0.0269187277602366,-0.125820081314723,-0.00563500067468237,,
0.0281423062947928,-0.118976718530769,-0.00542867003837166,,
0.029365884829349,-0.112113528801811,-0.00523435718549736,,
0.0305894633639052,-0.105296768357736,-0.00504552879741693,,
0.0318130418984614,-0.0982902968571511,-0.00485999108821167,,
0.0330366204330176,-0.0915138321825979,-0.00462054282483626,,
0.0342601989675738,-0.0844810436219179,-0.00443784476066256,,
0.03548377750213,-0.077573564206459,-0.00424147957035537,,
0.0367073560366862,-0.0705910562077487,-0.0039984257050647,,
0.0379309345712424,-0.0635971370176694,-0.00382600000341604,,
0.0391545131057986,-0.0565464471505292,-0.00361725139868518,,
0.0403780916403548,-0.0495169393073678,-0.00336608159303653,,
0.041601670174911,-0.0424972736167621,-0.00320937001727684,,
0.0428252487094672,-0.0354320344806264,-0.00299555862436485,,
0.0440488272440235,-0.0284224249024147,-0.00278064500081543,,
0.0452724057785797,-0.0213238080315246,-0.00254730304179374,,
0.0464959843131359,-0.0142771834013096,-0.00236498929048157,,
0.0477195628476921,-0.00721123106571327,-0.00215280588955169,,
0.0489431413822483,-0.000129802301822731,-0.00192962687064302,,
0.0501667199168045,0.00699021055288435,-0.00173149223986924,,
0.0513902984513607,0.0140560559085616,-0.00150931670454302,,
0.0526138769859169,0.0211115242120875,-0.0012730496976312,,
0.0538374555204731,0.0281822193240966,-0.00107773603001382,,
0.0550610340550293,0.0352229600587619,-0.000871400056024374,,
0.0562846125895855,0.0422353867748429,-0.000656953479355238,,
0.0575081911241417,0.0494076058300633,-0.000419490832430203,,
0.0587317696586979,0.0563992427818687,-0.000234892554664246,,
0.0599553481932541,0.0632970226846639,-3.13134916871682E-05,,
0.0611789267278103,0.0702764282657207,0.000170045096979266,,
0.0624025052623666,0.0773316469494355,0.000404988359590241,,
0.0636260837969228,0.0842034663918662,0.000629491122799752,,
0.064849662331479,0.0912050881361195,0.00085815727534122,,
0.0660732408660352,0.0981045797176201,0.00106261171761357,,
0.0672968194005914,0.105000933221494,0.00127133630279053,,
0.0685203979351476,0.111933802537749,0.00150060027533883,,
0.0697439764697038,0.118696395482794,0.00169375485194978,,
0.07096755500426,0.125544501043161,0.00188796095125143,,
0.0721911335388162,0.132350991415004,0.00211496174806003,,
0.0734147120733724,0.139013130216029,0.00232533567593363,,
0.0746382906079286,0.145776258060669,0.00253502638094272,,
0.0758618691424848,0.152433832385147,0.00274607285632422,,
0.077085447677041,0.15901352532853,0.00296440526303643,,
0.0783090262115972,0.165774941494465,0.00314693252149389,,
0.0795326047461535,0.172179436990361,0.0033697005391482,,
0.0807561832807097,0.17882160620649,0.00359085657785618,,
0.0819797618152659,0.185097226559862,0.00376941260341201,,
0.0832033403498221,0.191751092247144,0.00399596503521593,,
0.0844269188843783,0.198106555280126,0.0041930107795487,,
0.0856504974189345,0.204433775614469,0.00441512226273177,,
0.0868740759534907,0.21071338988482,0.00460845298273771,,
0.0880976544880469,0.217123305696617,0.00482757536588707,,
0.0893212330226031,0.223326714604606,0.00500950480433771,,
0.0905448115571593,0.229324151508385,0.00522079147525734,,
0.0917683900917155,0.235635396174812,0.00541899015817471,,
0.0929919686262717,0.241561513132534,0.00560484812809747,,
0.0942155471608279,0.247482245434329,0.00581562238186883,,
0.0954391256953841,0.253496442525431,0.00596900591500216,,
0.0966627042299403,0.259280561470555,0.00618139748539814,,
0.0978862827644966,0.265017751891173,0.00636551003440866,,
0.0991098612990528,0.270772166078764,0.00657476838744886,,
0.100333439833609,0.276459824796847,0.00674450656790704,,
0.101557018368165,0.282008195660281,0.0069419366251009,,
0.102780596902721,0.287637086742813,0.00710907001838734,,
0.104004175437278,0.293029659184087,0.00730194703570941,,
0.105227753971834,0.298236621465749,0.00748210436485452,,
0.10645133250639,0.30365294344906,0.0076735989234118,,
0.107674911040946,0.308805096352177,0.00785514938667919,,
0.108898489575502,0.314184331963539,0.00801233334699791,,
0.110122068110059,0.319302251292549,0.00818565844749575,,
0.111345646644615,0.324340577561761,0.00834854304859167,,
0.112569225179171,0.329178637422446,0.00852391781768391,,
0.113792803713727,0.334159622455028,0.00870120881340419,,
0.115016382248283,0.338739789390773,0.00885442154082128,,
0.11623996078284,0.34377982733869,0.00901656420458785,,
0.117463539317396,0.34825301435535,0.00918743397291522,,
0.118687117851952,0.352845448321817,0.00935482357477557,,
0.119910696386508,0.357299521592934,0.00953019834386781,,
0.121134274921064,0.361687980513679,0.00963815289417491,,
0.122357853455621,0.366142053784796,0.00983651704512933,,
0.123581431990177,0.370200158715408,0.00995390327357715,,
0.124805010524733,0.374348697337619,0.0101114021569346,,
0.126028589059289,0.378464999344213,0.0102460664511099,,
0.127252167593846,0.382387596377318,0.0104056203407406,,
0.128475746128402,0.38602919282296,0.0105464710044485,,
0.129699324662958,0.389910139007567,0.0106880262417364,,
0.130922903197514,0.393275869901863,0.0107959754543647,,
0.13214648173207,0.397081502223435,0.010959778136185,,
0.133370060266627,0.400203889461786,0.0110762889853371,,
0.134593638801183,0.403975858768819,0.0112033043860347,,
0.135817217335739,0.407283677866917,0.0113244056388093,,
0.137040795870295,0.410411770700953,0.0114649146910852,,
0.138264374404851,0.413552415845495,0.0115570376865732,,
0.139487952939408,0.41644287061927,0.0117043576167819,,
0.140711531473964,0.41956782537568,0.0118286881651279,,
0.14193511000852,0.42250249851601,0.0119068050918894,,
0.143158688543076,0.425009537259786,0.0120101959269667,,
0.144382267077632,0.427591889866598,0.0121224953476795,,
0.145605845612189,0.430379073358484,0.0122476585738918,,
0.146829424146745,0.432469033057722,0.0122919346181338,,
0.148053002681301,0.434974645402577,0.0124212985974288,,
0.149276581215857,0.437012398901302,0.0125403288308945,,
0.150500159750413,0.439207341561135,0.0126340157662215,,
0.15172373828497,0.441129271467464,0.0127185432450183,,
0.152947316819526,0.443210672773176,0.0127921765217294,,
0.154170895354082,0.444982260233218,0.0128587747380053,,
0.155394473888638,0.446789792946072,0.0129632010827376,,
0.156618052423194,0.448014784339538,0.0130226841733987,,
0.157841630957751,0.449920168018382,0.013076888299894,,
0.159065209492307,0.451274105874317,0.0131567239591739,,
0.160288788026863,0.452383844234956,0.0132057612127547,,
0.161512366561419,0.453415415934716,0.0132892905456474,,
0.162735945095976,0.454637269250555,0.0133745866501669,,
0.163959523630532,0.455529053856045,0.0133923771330431,,
0.165183102165088,0.456485596972554,0.0134861281205136,,
0.166406680699644,0.457211919303193,0.0135152931965523,,
0.1676302592342,0.457989877274776,0.0135735379457711,,
0.168853837768757,0.458556442926249,0.0136234505786472,,
0.170077416303313,0.4589298741638,0.0136844282193249,,
0.171300994837869,0.459251955040191,0.0137141057125119,,
0.172524573372425,0.459358364399708,0.0137426142540789,,
0.173748151906981,0.459277630220772,0.0137726760601269,,
0.174971730441538,0.459477040789945,0.0138016436420561,,
0.176195308976094,0.459291323650414,0.0138217560151368,,
0.17741888751065,0.458907337060847,0.0138248145049924,,
0.178642466045206,0.458695944740735,0.013844985592538,,
0.179866044579762,0.458574415552655,0.0138468697930945,,
0.181089623114319,0.457772494079196,0.0138826055515273,,
0.182313201648875,0.457317758103141,0.0138874735144388,,
0.183536780183431,0.456210301980776,0.0138906334201883,,
0.184760358717987,0.45583316210603,0.0139350002049667,,
0.185983937252543,0.454729985180428,0.0139076285889486,,
0.1872075157871,0.453706116034842,0.0139034865503311,,
0.188431094321656,0.452454308341659,0.0139016290381675,,
0.189654672856212,0.450734071242778,0.0138791894372039,,
0.190878251390768,0.449534184470324,0.0138587141019761,,
0.192101829925324,0.44789411099081,0.0138332854009793,,
0.193325408459881,0.446661702322955,0.0138201120101185,,
0.194548986994437,0.444754321685621,0.0138340753774164,,
0.195772565528993,0.443070885678905,0.0137774319317869,,
0.196996144063549,0.441499564627389,0.0137564922185187,,
0.198219722598106,0.439053861037222,0.0137223684390322,,
0.199443301132662,0.437226644019256,0.0136645080026749,,
0.200666879667218,0.434802621692689,0.0136325673337483,,
0.201890458201774,0.432434514203831,0.0135961643654867,,
0.20311403673633,0.430170819115999,0.0135645226065635,,
0.204337615270887,0.427304327844099,0.0135179353474744,,
0.205561193805443,0.424817258685218,0.0134265756400302,,
0.206784772339999,0.422402650591531,0.013405417081938,,
0.208008350874555,0.419228912992019,0.0133617975721676,,
0.209231929409111,0.416169857865766,0.0132822821736052,,
0.210455507943668,0.413224629373419,0.0131991691796456,,
0.211679086478224,0.410012093723253,0.0131638070587172,,
0.21290266501278,0.406959029472468,0.013078836552594,,
0.214126243547336,0.40386517021254,0.0129884803287328,,
0.215349822081892,0.400141698468825,0.0129223998672838,,
0.216573400616449,0.396686960281851,0.0128502985043397,,
0.217796979151005,0.393049928312756,0.0127639989162378,,
0.219020557685561,0.389600895721467,0.01268645312109,,
0.220244136220117,0.385469188606525,0.0125719492391032,,
0.221467714754673,0.381610208965302,0.0124931864532281,,
0.22269129328923,0.377929529189221,0.0123797714576814,,
0.223914871823786,0.373588997272226,0.0123390342943717,,
0.225138450358342,0.369703486611071,0.0121948315684834,,
0.226362028892898,0.365394906029909,0.0121043899417637,,
0.227585607427454,0.36124180293115,0.0120066517083561,,
0.228809185962011,0.356667912150658,0.0118726919877599,,
0.230032764496567,0.352140521974995,0.0117439471791863,,
0.231256343031123,0.347553508324429,0.0116420562318038,,
0.232479921565679,0.343096582255469,0.0115285611710783,,
0.233703500100236,0.338348670806599,0.0113928293411769,,
0.234927078634792,0.333485791604687,0.0112897107277092,,
0.236150657169348,0.328706784659336,0.0111476217225586,,
0.237374235703904,0.323708682839701,0.0110216738575875,,
0.23859781423846,0.318760790262089,0.0108966654240552,,
0.239821392773017,0.313610634317461,0.0107872643628393,,
0.241044971307573,0.308668732615317,0.0106452607605467,,
0.242268549842129,0.303076963564708,0.0104894859473865,,
0.243492128376685,0.29775735142825,0.0103488221024306,,
0.244715706911241,0.292447438804455,0.0102039788551065,,
0.245939285445798,0.286872215981331,0.0100718873220313,,
0.247162863980354,0.281597642390807,0.00992367066181243,,
0.24838644251491,0.27584162350443,0.00977246490156025,,
0.249610021049466,0.270146297892146,0.0096273440949477,,
0.250833599584022,0.264362464226807,0.00946815850514238,,
0.252057178118579,0.258643246432594,0.00930022979774048,,
0.253280756653135,0.252778428968508,0.00914557055941456,,
0.254504335187691,0.246794114934803,0.00899390575880021,,
0.255727913722247,0.240860045803096,0.00879221089638005,,
0.256951492256803,0.23475359636177,0.0086593453999031,,
0.25817507079136,0.228762720893028,0.00850384814603222,,
0.259398649325916,0.222522225613089,0.00830949259172931,,
0.260622227860472,0.216407823997778,0.00814413130774838,,
0.261845806395028,0.210090053556287,0.00795771821924784,,
0.263069384929584,0.203858366289686,0.00779688328674588,,
0.264292963464141,0.197444670520749,0.00759417426538578,,
0.265516541998697,0.191198220025314,0.00745347839435784,,
0.266740120533253,0.184724365881879,0.00725834887665355,,
0.267963699067809,0.178146634237012,0.00709647309681882,,
0.269187277602366,0.171550430726116,0.00690526143522918,,
0.270410856136922,0.165062597873253,0.00669422563520516,,
0.271634434671478,0.158475202375696,0.00652677198120122,,
0.272858013206034,0.151792808709991,0.00634260071772585,,
0.27408159174059,0.145152386832541,0.00616588085361869,,
0.275305170275147,0.138340761424582,0.00597216582075122,,
0.276528748809703,0.131619534048249,0.00576617412703317,,
0.277752327344259,0.124838397917229,0.00556707871410644,,
0.278975905878815,0.118045351355218,0.00536593363258486,,
0.280199484413371,0.111174102472356,0.0051692561880774,,
0.281423062947928,0.104341936919933,0.00495764391876152,,
0.282646641482484,0.0974005092101509,0.00475734752814239,,
0.28387022001704,0.0906279671326308,0.00456615187958898,,
0.285093798551596,0.0834993958843969,0.00438819901171827,,
0.286317377086152,0.0766224414058502,0.00416963708482454,,
0.287540955620709,0.0695449352389928,0.00397121955708357,,
0.288764534155265,0.062592096337842,0.00380180163734378,,
0.289988112689821,0.055585910117041,0.00356827285956962,,
0.291211691224377,0.0485694181640349,0.00336950838271743,,
0.292435269758933,0.0414979385326192,0.00316245449095209,,
0.29365884829349,0.0344663624110221,0.00293282755625723,,
0.294882426828046,0.027434786289425,0.00271159145236943,,
0.296106005362602,0.0204303117473294,0.00251364897802686,,
0.297329583897158,0.0133120105713277,0.0022989675434979,,
0.298553162431714,0.00627644053275144,0.00210275447703134,,
0.299776740966271,-0.000864112466419894,0.00187071491159507,,
0.301000319500827,-0.00792792520363449,0.00167080817151621,,
0.302223898035383,-0.0150402355041675,0.00147096548358094,,
0.303447476569939,-0.0220866461745443,0.00126484568557572,,
0.304671055104496,-0.0291451099158047,0.00103187202637933,,
0.305894633639052,-0.0362194066850896,0.000813753126811978,,
0.307118212173608,-0.0432558325630185,0.000614075906914202,,
0.308341790708164,-0.0502863388854247,0.000402447624562097,,
0.30956536924272,-0.057279045636421,0.000190968797211699,,
0.310788947777277,-0.0642791696618072,-3.43239424349662E-05,,
0.312012526311833,-0.0713296455691093,-0.000241724783311525,,
0.313236104846389,-0.0783209972411305,-0.000455530838545215,,
0.314459683380945,-0.0852812534166712,-0.000664255423722171,,
0.315683261915501,-0.0922971391501358,-0.000876051842951142,,
0.316906840450058,-0.0990753155033944,-0.00108318046221711,,
0.318130418984614,-0.106073656530129,-0.00129405880072175,,
0.31935399751917,-0.11291345331678,-0.00152376846943536,,
0.320577576053726,-0.119754676502353,-0.00171618377755633,,
0.321801154588282,-0.126476795378011,-0.00194286698248636,,
0.323024733122839,-0.133268736480858,-0.00213104951145304,,
0.324248311657395,-0.140137132565878,-0.00235781545040181,,
0.325471890191951,-0.146809826718919,-0.00256312659009428,,
0.326695468726507,-0.153504487415346,-0.0027576502812745,,
0.327919047261063,-0.160160991940632,-0.00299927631753105,,
0.32914262579562,-0.166821918302574,-0.00319653556900912,,
0.330366204330176,-0.173275160981599,-0.00341194559667146,,
0.331589782864732,-0.179802790364361,-0.00361088888575756,,
0.332813361399288,-0.186266017835835,-0.00381250101415898,,
0.334036939933844,-0.192829164551733,-0.00402191149103981,,
0.335260518468401,-0.199146970653197,-0.00421722782749656,,
0.336484097002957,-0.205423411185949,-0.00441794322588818,,
0.337707675537513,-0.211709836511148,-0.0046208444036786,,
0.338931254072069,-0.21802678677326,-0.00482745259927864,,
0.340154832606626,-0.22421336417398,-0.00502144519143455,,
0.341378411141182,-0.230203312483423,-0.00520871230851627,,
0.342601989675738,-0.236218294093931,-0.00542102381373288,,
0.343825568210294,-0.24230923144699,-0.00562125081452969,,
0.34504914674485,-0.248430408457176,-0.00580260378368802,,
0.346272725279407,-0.254152407729285,-0.00599589447110427,,
0.347496303813963,-0.260263599947024,-0.0061905249158567,,
0.348719882348519,-0.265960066678444,-0.006390068693789,,
0.349943460883075,-0.271476807145802,-0.00655959336710144,,
0.351167039417631,-0.277348435664737,-0.00673313197474457,,
0.352390617952188,-0.282885430996775,-0.00692558731545523,,
0.353614196486744,-0.288282924514327,-0.00711326009611257,,
0.3548377750213,-0.293801447980337,-0.00730434899109333,,
0.356061353555856,-0.299263913968746,-0.0074821790923556,,
0.357284932090412,-0.304560133162898,-0.00765473556713037,,
0.358508510624969,-0.309903494841393,-0.00787281176526866,,
0.359732089159525,-0.315061923899763,-0.00801368377969114,,
0.360955667694081,-0.320294169102302,-0.00819189819381494,,
0.362179246228637,-0.325074531126628,-0.00834344556549915,,
0.363402824763193,-0.330096168528462,-0.00851320242783249,,
0.36462640329775,-0.335085640634625,-0.00867732537037069,,
0.365849981832306,-0.339680000239635,-0.00883436254452707,,
0.367073560366862,-0.344560638108116,-0.00899863494206699,,
0.368297138901418,-0.349161131228487,-0.00914612567799189,,
0.369520717435974,-0.353722398378527,-0.00932083590609434,,
0.370744295970531,-0.35829571859945,-0.00950063561077119,,
0.371967874505087,-0.362804565589139,-0.00965145438932247,,
0.373191453039643,-0.366892624897094,-0.0098122679711099,,
0.374415031574199,-0.370917637372736,-0.00995414346911527,,
0.375638610108756,-0.375464141293942,-0.0101040441669422,,
0.376862188643312,-0.379185045519599,-0.0102786529791508,,
0.378085767177868,-0.383392851016983,-0.010396978639037,,
0.379309345712424,-0.387025104549692,-0.0105107325771763,,
0.38053292424698,-0.39073802094139,-0.010674898221144,,
0.381756502781537,-0.39473051152163,-0.0107810352918771,,
0.382980081316093,-0.397917086711432,-0.0109503277761696,,
0.384203659850649,-0.401628291424425,-0.0110436490805101,,
0.385427238385205,-0.405237936534234,-0.0112025197472758,,
0.386650816919761,-0.408117550676209,-0.0113085046941679,,
0.387874395454318,-0.411438777924166,-0.0114282608519276,,
0.389097973988874,-0.414478434025092,-0.0115402880510298,,
0.39032155252343,-0.417644397750483,-0.011678235017563,,
0.391545131057986,-0.420639835484854,-0.0118212634541526,,
0.392768709592542,-0.423170053211099,-0.0119071573786789,,
0.393992288127099,-0.425823155204398,-0.0120043004609194,,
0.395215866661655,-0.428590440431334,-0.0121283080797081,,
0.396439445196211,-0.430992424894569,-0.0122223606460214,,
0.397663023730767,-0.433812130281857,-0.0123388287937445,,
0.398886602265323,-0.435914357011817,-0.0124158168014752,,
0.40011018079988,-0.437988555002977,-0.0125013264131395,,
0.401333759334436,-0.440345679220142,-0.0125732142689388,,
0.402557337868992,-0.442019986273763,-0.0127036244332452,,
0.403780916403548,-0.444061091809953,-0.0127344548650163,,
0.405004494938104,-0.445839525984816,-0.0128630288678742,,
0.406228073472661,-0.447476461386704,-0.0129607297375314,,
0.407451652007217,-0.449060334748725,-0.0130131457416853,,
0.408675230541773,-0.450599133904839,-0.0131075586013063,,
0.409898809076329,-0.452087438539145,-0.0132034233095144,,
0.411122387610886,-0.453239398307849,-0.0132466585064237,,
0.412345966145442,-0.454467527778941,-0.0133256988515877,,
0.413569544679998,-0.45556385798972,-0.0133544796147649,,
