Time domain (s),Current (AC) (A),Potential (AC) (V),Frequency (Hz),Column 5
0,-0.235408741386244,-0.00606919681174034,0.019953,0.5
0.122357853455621,-0.241377578991654,-0.00632692128674783,,
0.244715706911241,-0.247549892403163,-0.00656771731397754,,
0.367073560366862,-0.253463171770595,-0.00683910357744022,,
0.489431413822483,-0.259135389720357,-0.00708183718201338,,
0.611789267278104,-0.265236668465593,-0.00733709031181462,,
0.734147120733724,-0.27089034322938,-0.00759703259229294,,
0.856504974189345,-0.276567410935473,-0.00787664154968626,,
0.978862827644966,-0.282178293731626,-0.00813566841827917,,
1.10122068110059,-0.287573790290688,-0.00836503914440012,,
1.22357853455621,-0.293282595372776,-0.00862890995635057,,
1.34593638801183,-0.298429541919832,-0.00885230782008373,,
1.46829424146745,-0.303957907538397,-0.00909929021684652,,
1.59065209492307,-0.309259903648179,-0.00934258427767531,,
1.71300994837869,-0.314341592444593,-0.00959774399810076,,
1.83536780183431,-0.319357952170419,-0.00982937789996097,,
1.95772565528993,-0.324388005325888,-0.0100731817090991,,
2.08008350874555,-0.329433249629867,-0.010285816143873,,
2.20244136220117,-0.334197065426708,-0.0105405915514369,,
2.32479921565679,-0.339186608852817,-0.0107601622995914,,
2.44715706911241,-0.343934520301686,-0.0109697836147786,,
2.56951492256803,-0.348572028474061,-0.0112083965314485,,
2.69187277602366,-0.352707729505982,-0.0114144122447204,,
2.81423062947928,-0.357803111732038,-0.0116556112666868,,
2.9365884829349,-0.361844385155381,-0.0118592757325215,,
3.05894633639052,-0.366420344214308,-0.0120809815521286,,
3.18130418984614,-0.370608750686365,-0.0122802050693429,,
3.30366204330176,-0.374460313053198,-0.0124881183273682,,
3.42601989675738,-0.378700640445984,-0.0127120019198563,,
3.548377750213,-0.382625591037308,-0.0128896825661169,,
3.67073560366862,-0.386393637747308,-0.0130946921269666,,
3.79309345712424,-0.390228012007141,-0.0132957731563446,,
3.91545131057986,-0.394018809779933,-0.0135119704916047,,
4.03780916403548,-0.397526610006773,-0.01369095620029,,
4.1601670174911,-0.401086259834397,-0.0138863979721946,,
4.28252487094673,-0.404577085914075,-0.0140538516261985,,
4.40488272440235,-0.407755316670189,-0.0142381723446756,,
4.52724057785797,-0.410948168015244,-0.0143883746213449,,
4.64959843131359,-0.413817226805202,-0.0145602692239697,,
4.77195628476921,-0.417087959531351,-0.0147305411722911,,
4.89431413822483,-0.419929560142078,-0.0148847360325761,,
5.01667199168045,-0.423043460306848,-0.015061242389538,,
5.13902984513607,-0.425826649881755,-0.0152055732197134,,
5.26138769859169,-0.428376765872949,-0.0153998860725872,,
5.38374555204731,-0.430466440292403,-0.0155240831789678,,
5.50610340550293,-0.433145431426122,-0.0157062287934027,,
5.62846125895855,-0.43558207738314,-0.0158426998917944,,
5.75081911241417,-0.437584170908837,-0.0159740281368257,,
5.87317696586979,-0.439748945231488,-0.0161362295150571,,
5.99553481932541,-0.441906230959803,-0.0162368527637646,,
6.11789267278104,-0.443967591360673,-0.0163567210127753,,
6.24025052623666,-0.445542335769599,-0.0165105288913598,,
6.36260837969228,-0.447313352670073,-0.016648796118611,,
6.4849662331479,-0.448833608640212,-0.0167483545004319,,
6.60732408660352,-0.450082563535552,-0.0168857249976728,,
6.72968194005914,-0.451736045164925,-0.0169557953738981,,
6.85203979351476,-0.453076574871002,-0.017055804789563,,
6.97439764697038,-0.454142594104708,-0.0171909975139228,,
7.096755500426,-0.455589033930678,-0.0172780470458727,,
7.21911335388162,-0.45601345892966,-0.017372585340941,,
7.34147120733724,-0.456943827625967,-0.0174556823218648,,
7.46382906079286,-0.457622436912694,-0.0175305379269823,,
7.58618691424848,-0.458443900051372,-0.0176220257387136,,
7.7085447677041,-0.459230915656105,-0.0177043327431998,,
7.83090262115973,-0.459219504464736,-0.0177860018950895,,
7.95326047461535,-0.459520474637094,-0.0178281668874329,,
8.07561832807097,-0.459652059937568,-0.0178898491016901,,
8.19797618152659,-0.4598368499178,-0.0179937843799882,,
8.32033403498221,-0.459982342607755,-0.0180021111586521,,
8.44269188843783,-0.459986907084303,-0.0180710312651322,,
8.56504974189345,-0.459513342642488,-0.0181171701592167,,
8.68740759534907,-0.459314288673045,-0.0181477657331279,,
8.80976544880469,-0.458730891514303,-0.0182159599153144,,
8.93212330226031,-0.457862143251389,-0.0182282792775945,,
9.05448115571593,-0.457512033636198,-0.0182827849829321,,
9.17683900917155,-0.456829430432492,-0.0183165831640224,,
9.29919686262717,-0.455762484039488,-0.0183307413565901,,
9.4215547160828,-0.455132229676187,-0.0183309335130208,,
9.54391256953842,-0.453756681876596,-0.0183441682871859,,
9.66627042299404,-0.452700861395177,-0.0183903498826994,,
9.78862827644966,-0.451626212447998,-0.0183931895277309,,
9.91098612990528,-0.450020087262807,-0.0183714331496319,,
10.0333439833609,-0.448150720156721,-0.0183816201092988,,
10.1557018368165,-0.446460651395022,-0.0183726714910741,,
10.2780596902721,-0.444772936191542,-0.0183193160554813,,
10.4004175437278,-0.443390470357184,-0.0183328764280426,,
10.5227753971834,-0.441507053221725,-0.0183165431314323,,
10.645133250639,-0.439632265799739,-0.0183076398834765,,
10.7674911040946,-0.436993927035273,-0.0182474095178069,,
10.8898489575502,-0.434810680846593,-0.0182062666909211,,
11.0122068110059,-0.432515034422929,-0.0181900614985984,,
11.1345646644615,-0.430090441536794,-0.0181744514574427,,
11.2569225179171,-0.427627977759303,-0.018089392879622,,
11.3792803713727,-0.42490747841698,-0.018034521543298,,
11.5016382248283,-0.422277484086202,-0.017993613574272,,
11.623996078284,-0.419403575539912,-0.0179140394612447,,
11.7463539317396,-0.416030427371226,-0.0178641455102437,,
11.8687117851952,-0.41323582660495,-0.0178031011485831,,
11.9910696386508,-0.409932001423831,-0.0177558760368974,,
12.1134274921065,-0.407023859303434,-0.0176683994906575,,
12.2357853455621,-0.403625963113467,-0.0176023377110841,,
12.3581431990177,-0.400180781799264,-0.0174928752665635,,
12.4805010524733,-0.396410238891152,-0.0174178061543007,,
12.6028589059289,-0.3929053627821,-0.0173329370640718,,
12.7252167593846,-0.389139170390697,-0.0172305603879339,,
12.8475746128402,-0.385450217500873,-0.0171472712505798,,
12.9699324662958,-0.381370288666768,-0.0170049660694445,,
13.0922903197514,-0.377561019027948,-0.0169116447651039,,
13.214648173207,-0.373579654359293,-0.0168069835625118,,
13.3370060266627,-0.369375771458942,-0.0166730718810237,,
13.4593638801183,-0.36519613734025,-0.0165402277352613,,
13.5817217335739,-0.360832212480948,-0.0164618065608182,,
13.7040795870295,-0.356368154417383,-0.016281563828815,,
13.8264374404851,-0.351915792824971,-0.016167185382276,,
13.9487952939408,-0.347234066286042,-0.0160215975287827,,
14.0711531473964,-0.342778566616003,-0.0158997062995709,,
14.193511000852,-0.337783032314426,-0.0157561654458327,,
14.3158688543076,-0.333210282653071,-0.0156169561183037,,
14.4382267077632,-0.32811497174696,-0.0154587499925274,,
14.5605845612189,-0.323223493246679,-0.0153427088590945,,
14.6829424146745,-0.318191371812774,-0.0151222840823593,,
14.8053002681301,-0.313002275177599,-0.0149911266430443,,
14.9276581215857,-0.307649142666494,-0.0148392349910882,,
15.0500159750413,-0.302231180324424,-0.0146722323709287,,
15.172373828497,-0.297106699560377,-0.0144751225744519,,
15.2947316819526,-0.29163767213693,-0.014322104672305,,
15.4170895354082,-0.286277122351436,-0.0141146157597309,,
15.5394473888638,-0.280630080342632,-0.0139602287430152,,
15.6618052423195,-0.275129957422705,-0.0137715097773463,,
15.7841630957751,-0.26938691876651,-0.0135602871585703,,
15.9065209492307,-0.263686172838326,-0.0133887982195211,,
16.0288788026863,-0.257946058299919,-0.0131825503172291,,
16.1512366561419,-0.251944912758946,-0.0129558724499774,,
16.2735945095976,-0.245941770259483,-0.0127966761848151,,
16.3959523630532,-0.239976284691537,-0.0125874418513292,,
16.5183102165088,-0.233850186605073,-0.0123946235484715,,
16.6406680699644,-0.227810528293229,-0.0121802623746605,,
16.76302592342,-0.22167130733669,-0.0119638728829701,,
16.8853837768757,-0.215497353566422,-0.0117535283123287,,
17.0077416303313,-0.209186322859833,-0.0115263780605184,,
17.1300994837869,-0.202939551424641,-0.0113135701511888,,
17.2524573372425,-0.196568112723742,-0.0111015602248146,,
17.3748151906981,-0.190218925846013,-0.0108510309406014,,
17.4971730441538,-0.183662697164882,-0.0106084628040661,,
17.6195308976094,-0.177258665248636,-0.0103900263126206,,
17.741888751065,-0.170861551367157,-0.0101509196606773,,
17.8642466045206,-0.164202336683921,-0.00988217821697646,,
17.9866044579762,-0.157341785792967,-0.00968652026908723,,
18.1089623114319,-0.150837478032565,-0.0094183766453928,,
18.2313201648875,-0.144172201153914,-0.00917425257553672,,
18.3536780183431,-0.137425904816543,-0.00896531448321447,,
18.4760358717987,-0.130699578064067,-0.00872494813911429,,
18.5983937252543,-0.123945293892738,-0.00846007117474201,,
18.72075157871,-0.117072903890738,-0.00822337715354005,,
18.8431094321656,-0.110328889791641,-0.00793907103895153,,
18.9654672856212,-0.103458782027916,-0.00770709552565885,,
19.0878251390768,-0.096460583641073,-0.00743453230405811,,
19.2101829925325,-0.0895565275830248,-0.00717138474756185,,
19.3325408459881,-0.0826053290406333,-0.0069267482605575,,
19.4548986994437,-0.0756614051327396,-0.00665625872710462,,
19.5772565528993,-0.0686492280364699,-0.00638375421996873,,
19.6996144063549,-0.0616627261207805,-0.00613056143411894,,
19.8219722598106,-0.0547078902611401,-0.00588551928353853,,
19.9443301132662,-0.0476611943109791,-0.00563054371302574,,
20.0666879667218,-0.0405928170972169,-0.00534927206873892,,
20.1890458201774,-0.0335669465713043,-0.00509310619589209,,
20.311403673633,-0.0264851612076835,-0.00477416922234708,,
20.4337615270887,-0.0194458825319123,-0.00453275936207476,,
20.5561193805443,-0.0123857784318926,-0.00426318257166791,,
20.6784772339999,-0.00531540425964084,-0.00396339985788963,,
20.8008350874555,0.00181459338751415,-0.00369256337532597,,
20.9231929409111,0.00883304663903684,-0.00342544458592853,,
21.0455507943668,0.0159855813891457,-0.0031426757227857,,
21.1679086478224,0.0230368418158543,-0.00289549850075277,,
21.290266501278,0.0300960900765213,-0.00259772008530046,,
21.4126243547336,0.0370914356655217,-0.00233047319161583,,
21.5349822081892,0.044149828086836,-0.00205778186572791,,
21.6573400616449,0.0512338600287576,-0.00177537863357147,,
21.7796979151005,0.0582058126754515,-0.00148156878218098,,
21.9020557685561,0.0651610051348221,-0.0012205989985663,,
22.0244136220117,0.0721742876902558,-0.000937595277563652,,
22.1467714754674,0.0791020219703947,-0.000657174993018206,,
22.269129328923,0.0861358803302655,-0.000373808309868995,,
22.3914871823786,0.0930422186265875,-0.00011230475839108,,
22.5138450358342,0.0999568656966251,0.000174264531936696,,
22.6362028892898,0.106888843513554,0.000471210269522793,,
22.7585607427455,0.1137301023591,0.00074291946254279,,
22.8809185962011,0.120466164284212,0.00103997195370154,,
23.0032764496567,0.127309206128409,0.00132675475117461,,
23.1256343031123,0.134080000867251,0.00160916065217043,,
23.2479921565679,0.140763250372308,0.00186554003216255,,
23.3703500100236,0.147513540626658,0.00214900813120611,,
23.4927078634792,0.154162306937798,0.00240925732820552,,
23.6150657169348,0.160776483075099,0.00268694472129205,,
23.7374235703904,0.167501668708438,0.00296896630942634,,
23.859781423846,0.173935334062271,0.00325224225203913,,
23.9821392773017,0.180567482825979,0.00352644947865821,,
24.1044971307573,0.186985422131706,0.00378999202337305,,
24.2268549842129,0.193441054028924,0.00407561654458322,,
24.3492128376685,0.19991572835174,0.00437079017286379,,
24.4715706911241,0.205973929849558,0.00462763926857557,,
24.5939285445798,0.212368190933195,0.00490165433876388,,
24.7162863980354,0.218547885959121,0.00515017665581174,,
24.838644251491,0.224929345112441,0.00540269689415407,,
24.9610021049466,0.230992396366591,0.00567448615235344,,
25.0833599584022,0.236818950679618,0.00595996655624065,,
25.2057178118579,0.243155014687273,0.0062178351485711,,
25.3280756653135,0.248908287755727,0.00646913839618568,,
25.4504335187691,0.254931078900329,0.00673376448966234,,
25.5727913722247,0.260698009738453,0.00697775511755294,,
25.6951492256804,0.266617886200896,0.00722683255317813,,
25.817507079136,0.27215684283145,0.00748404461103691,,
25.9398649325916,0.277655325392618,0.00774371200106572,,
26.0622227860472,0.283558049408034,0.00799042484505774,,
26.1845806395028,0.288820605587647,0.00824432220448701,,
26.3069384929585,0.294363306515369,0.00850270855164448,,
26.4292963464141,0.299736836531046,0.00871036560109495,,
26.5516541998697,0.305042755237862,0.00898089516713751,,
26.6740120533253,0.31032927491935,0.00923819796553316,,
26.7963699067809,0.315564158959893,0.00946295693731702,,
26.9187277602366,0.32044358438929,0.00966647194815007,,
27.0410856136922,0.325352108356679,0.00992517855602548,,
27.1634434671478,0.330370465040995,0.0101720515303763,,
27.2858013206034,0.335340324161992,0.0104119534964355,,
27.408159174059,0.340198924167142,0.010645914626179,,
27.5305170275147,0.344599364838824,0.0108754988594448,,
27.6528748809703,0.349227744058103,0.0110767293438241,,
27.7752327344259,0.353749428638082,0.011273860491015,,
27.8975905878815,0.358486214175367,0.0115059000564512,,
28.0199484413371,0.362750861669758,0.0117392206647589,,
28.1423062947928,0.367269693451895,0.0119184118740718,,
28.2646641482484,0.371063058742745,0.012135126964159,,
28.387022001704,0.375064392996296,0.0123218443003412,,
28.5093798551596,0.379195244271885,0.0125163279589313,,
28.6317377086152,0.383207989716805,0.0127630301275663,,
28.7540955620709,0.386853009519858,0.0129521974582403,,
28.8764534155265,0.390754210569145,0.0131235743060376,,
28.9988112689821,0.394506495571067,0.0133391151068261,,
29.1211691224377,0.397869373667521,0.0135276686044574,,
29.2435269758933,0.401514678750358,0.01370374260945,,
29.365884829349,0.404833909039825,0.0138890027593663,,
29.4882426828046,0.408139160619864,0.014058399328392,,
29.6106005362602,0.411467234582642,0.0142109715343732,,
29.7329583897158,0.414249283038412,0.0144133709703729,,
29.8553162431715,0.417365679401295,0.0146021326374708,,
29.9776740966271,0.420290938308746,0.014700559431422,,
30.1000319500827,0.423138601114888,0.0148660808457617,,
30.2223898035383,0.425662471365933,0.015041114003421,,
30.3447476569939,0.428339536861108,0.0151882791409497,,
30.4671055104496,0.430569568934401,0.0153452922955517,,
30.5894633639052,0.433413237823563,0.0155062980337699,,
30.7118212173608,0.435210215184402,0.0156284454715561,,
30.8341790708164,0.437864743576623,0.0157867610197444,,
30.956536924272,0.439789811560578,0.0159053642389195,,
31.0788947777277,0.441557119823857,0.0160567568179237,,
31.2012526311833,0.443712408593683,0.0161418447529766,,
31.3236104846389,0.445813494204506,0.0162721268129959,,
31.4459683380945,0.447033635841639,0.016393164013627,,
31.5683261915501,0.448941301758757,0.016502287515554,,
31.6906840450058,0.450015094866583,0.0166580836794283,,
31.8130418984614,0.451080614860666,0.01675798901036,,
31.935399751917,0.452803990037174,0.01682184365982,,
32.0577576053726,0.453913728397812,0.0169476207190749,,
32.1801154588282,0.454976395594053,0.017048417442338,,
32.3024733122839,0.455637959413673,0.0171567509678279,,
32.4248311657395,0.456684936221782,0.0172199864465665,,
32.5471890191951,0.457319683741684,0.0172933101379171,,
32.6695468726507,0.458042867994696,0.0173957028270908,,
32.7919047261064,0.458223735377896,0.0174445319112051,,
32.914262579562,0.458382921497493,0.0175095288238918,,
33.0366204330176,0.459017669017396,0.0176028314463572,,
33.1589782864732,0.459504071049501,0.0176401151315928,,
33.2813361399288,0.459630449993913,0.0177270499034519,,
33.4036939933845,0.4594932304177,0.0177863621883971,,
33.5260518468401,0.459416204875959,0.0177950305784931,,
33.6484097002957,0.459049905633013,0.017890425570982,,
33.7707675537513,0.458692164783594,0.0179173274712809,,
33.8931254072069,0.458044009113833,0.0179471971208987,,
34.0154832606626,0.457795245141988,0.0179707896604469,,
34.1378411141182,0.45680161565353,0.018018038791686,,
34.2601989675738,0.455981721553665,0.0180235686267478,,
34.3825568210294,0.455463368185727,0.0180972285918521,,
34.504914674485,0.454427517289203,0.0180943942844989,,
34.6272725279407,0.45350378134788,0.0181083096126895,,
34.7496303813963,0.45147915071923,0.0181029505833443,,
34.8719882348519,0.450549709182222,0.0181210132878307,,
34.9943460883075,0.449085368049791,0.0180864891824468,,
35.1167039417631,0.447772795762568,0.0181089714848395,,
35.2390617952188,0.446062828735919,0.0180932360082364,,
35.3614196486744,0.444133196275416,0.0180753441094659,,
35.48377750213,0.442568721938721,0.0180553811913868,,
35.6061353555856,0.440556928900361,0.018027902821796,,
35.7284932090412,0.438489791583861,0.0180115268237566,,
35.8508510624969,0.436148215114936,0.0179687399918524,,
35.9732089159525,0.434211450659827,0.0179507840409388,,
36.0955667694081,0.431551501951706,0.0179051629016818,,
36.2179246228637,0.42939079286598,0.0178645751933733,,
36.3402824763194,0.426541988940701,0.0178036989685895,,
36.462640329775,0.42412509860874,0.017750599741571,,
36.5849981832306,0.421488257563142,0.0177123606118603,,
36.7073560366862,0.418485687834165,0.017635882352439,,
36.8297138901418,0.415550444134266,0.0175934584826813,,
36.9520717435975,0.412507935235498,0.0175248372862047,,
37.0744295970531,0.40951877365638,0.0174633845921286,,
37.1967874505087,0.405966184503417,0.0173775600574246,,
37.3191453039643,0.402509164078169,0.0173116504016924,,
37.4415031574199,0.39931403049484,0.0172399547023239,,
37.5638610108756,0.395695826991504,0.0171481679805896,,
37.6862188643312,0.391912161213318,0.0170447664701547,,
37.8085767177868,0.38821008545342,0.016937906143967,,
37.9309345712424,0.384467499964162,0.0168630505388494,,
38.053292424698,0.380748022137426,0.0167408817503487,,
38.1756502781537,0.376586931204709,0.0166471094121636,,
38.2980081316093,0.37277074353112,0.0165187916178802,,
38.4203659850649,0.368640177535315,0.0163857820040807,,
38.5427238385205,0.364564670537866,0.0162481713113012,,
38.6650816919761,0.359874670885194,0.016186809357762,,
38.7874395454318,0.355524439455535,0.0160185657273204,,
38.9097973988874,0.350911750624388,0.0158864421681737,,
39.032155252343,0.346627418824885,0.0157593894037258,,
39.1545131057986,0.341786220886574,0.0156249653050891,,
39.2768709592542,0.337045726712094,0.0154937865150595,,
39.3992288127099,0.332213372447094,0.0153672621807961,,
39.5215866661655,0.327451767568581,0.0151938730281547,,
39.6439445196211,0.32227508060402,0.0150283195877434,,
39.7663023730767,0.317247309686825,0.0148579889249572,,
39.8886602265324,0.312302555186839,0.0147510592089475,,
40.011018079988,0.306984654729087,0.0145578565932287,,
40.1333759334436,0.301838492701438,0.0143907018492282,,
40.2557337868992,0.296401060014094,0.0142361440267957,,
40.3780916403548,0.290906286090121,0.0140697152070892,,
40.5004494938105,0.285480835153716,0.0138528399866429,,
40.6228073472661,0.279893060020085,0.0136857706455005,,
40.7451652007217,0.274364016862032,0.0135220533665379,,
40.8675230541773,0.268596836404097,0.0133344980148107,,
40.9898809076329,0.262981389131397,0.0131301129623602,,
41.1122387610886,0.257147702823763,0.0129505748039365,,
41.2345966145442,0.251140851687105,0.0127478070681115,,
41.3569544679998,0.245250394702411,0.0125689948339809,,
41.4793123214554,0.239247002583137,0.0123715914651799,,
41.601670174911,0.233137129784401,0.0121533818250761,,
41.7240280283667,0.22698246805954,0.0119332132569148,,
41.8463858818223,0.220856120353265,0.0117152865137786,,
41.9687437352779,0.214542593448564,0.011481085188497,,
42.0911015887335,0.208346601814964,0.0112859449954352,,
42.2134594421891,0.202061602888686,0.01107982519743,,
42.3358172956448,0.195697296182393,0.0108801319644964,,
42.4581751491004,0.189362088014091,0.0106081505498663,,
42.580533002556,0.182768986920849,0.0104117826907193,,
