Time domain (s),Current (AC) (A),Potential (AC) (V),Frequency (Hz),Column 5
0,-0.131138552332045,-0.00627846317129865,0.079433,0.5
0.0307354153815165,-0.124353529263965,-0.00603414427617244,,
0.061470830763033,-0.117488770496194,-0.00581719966590422,,
0.0922062461445495,-0.110792398121062,-0.00558770083549653,,
0.122941661526066,-0.103860455964106,-0.00533285870694966,,
0.153677076907582,-0.0969092574217141,-0.00510310366796762,,
0.184412492289099,-0.0899082062370291,-0.00486681531034128,,
0.215147907670615,-0.0830006555016242,-0.00461735089301518,,
0.245883323052132,-0.0760894674489704,-0.00438621072642853,,
0.276618738433648,-0.0690185940370962,-0.00414031454726693,,
0.307354153815165,-0.0621268050097698,-0.00388909937134985,,
0.338089569196681,-0.0551015050434256,-0.00364529823105064,,
0.368824984578198,-0.0480668621641481,-0.00338776591247436,,
0.399560399959714,-0.0409991981498465,-0.00315143485341896,,
0.430295815341231,-0.0339800316988632,-0.00290490082166084,,
0.461031230722747,-0.0269195709991133,-0.00264031742961324,,
0.491766646104264,-0.0198794364839894,-0.00243573755189308,,
0.52250206148578,-0.0127517210751082,-0.00215568022949464,,
0.553237476867297,-0.00569989008883113,-0.00195515698753379,,
0.583972892248813,0.00136591960687305,-0.0016798795563493,,
0.61470830763033,0.00843943185675132,-0.00143769840151498,,
0.645443723011846,0.015557733032753,-0.00116581573393937,,
0.676179138393363,0.0226069608409991,-0.000929487343723778,,
0.706914553774879,0.0296511249330751,-0.000688010762468494,,
0.737649969156396,0.0367414686902227,-0.000403317666179071,,
0.768385384537912,0.0436837522393572,-0.000176981410359822,,
0.799120799919429,0.0507544116913932,4.29522999416676E-05,,
0.829856215300945,0.0577737207822685,0.000328833029726194,,
0.860591630682462,0.0647376855950041,0.000556714543508807,,
0.891327046063978,0.0717926546589077,0.000823918735764373,,
0.922062461445495,0.0787788712948129,0.00111552679471938,,
0.952797876827011,0.0855927789410457,0.00131586054908883,,
0.983533292208528,0.0925598818314078,0.00154444129877218,,
1.01426870759004,0.0994616556511821,0.00181123982745213,,
1.04500412297156,0.106355405977025,0.00206270854310375,,
1.07573953835308,0.113312845014697,0.0023017938443326,,
1.10647495373459,0.120135881614025,0.0025502734599514,,
1.13721036911611,0.126903859214997,0.00281574290665176,,
1.16794578449763,0.13360907526344,0.00303790242894264,,
1.19868119987914,0.140492305897239,0.0033147197804122,,
1.22941661526066,0.147161291413086,0.00354526479583139,,
1.26015203064218,0.153718126313758,0.00380902618537027,,
1.29088744602369,0.160495268527799,0.00401772941983269,,
1.32162286140521,0.167035307581175,0.004263775053996,,
1.35235827678673,0.173682076933824,0.004522182751868,,
1.38309369216824,0.180225468024665,0.00474154533055593,,
1.41382910754976,0.186754702106214,0.00497370766260063,,
1.44456452293128,0.193043694949471,0.00523135207242831,,
1.47529993831279,0.199471868667457,0.00546720807808532,,
1.50603535369431,0.205746347901692,0.00569566072348149,,
1.53677076907582,0.212119248661485,0.0059288692405377,,
1.56750618445734,0.218276941484053,0.00615248061141616,,
1.59824159983886,0.224536586169508,0.00639455501267783,,
1.62897701522037,0.230618180609633,0.00662237247431685,,
1.65971243060189,0.236703768966737,0.00684567425983484,,
1.69044784598341,0.242665831177272,0.00707410555451649,,
1.72118326136492,0.248535748017502,0.0073392547404989,,
1.75191867674644,0.254603649027984,0.00752458428023717,,
1.78265409212796,0.260311526950773,0.00773516637757776,,
1.81338950750947,0.266213109847052,0.00796024561007957,,
1.84412492289099,0.271935501378864,0.00815443035866625,,
1.87486033827251,0.277688774447319,0.00839012089628577,,
1.90559575365402,0.283186365509161,0.00860337183294169,,
1.93633116903554,0.288597588116328,0.00882863788419508,,
1.96706658441706,0.294092362040301,0.00902355389475451,,
1.99780199979857,0.299353206541209,0.00921705542047668,,
2.02853741518009,0.304537025500375,0.00944362920299469,,
2.05927283056161,0.309826397979706,0.00962551594001626,,
2.09000824594312,0.31545696508097,0.00983675457182853,,
2.12074366132464,0.320111304760614,0.0100252813810666,,
2.15147907670615,0.325339627366119,0.01020349579519,,
2.18221449208767,0.330259562524877,0.0104196557666998,,
2.21294990746919,0.334935012908554,0.0105909525493177,,
2.2436853228507,0.339786480919097,0.0108101389846111,,
2.27442073823222,0.344351242746494,0.0109696715235272,,
2.30515615361374,0.349056647507514,0.0111807019858725,,
2.33589156899525,0.353716692782842,0.0113620549550308,,
2.36662698437677,0.357925140159741,0.0115157587488821,,
2.39736239975829,0.362472214640516,0.011700997548084,,
2.4280978151398,0.366726306782891,0.0118503724845653,,
2.45883323052132,0.371003791867572,0.0120375915625393,,
2.48956864590284,0.375101550688191,0.0121962273714451,,
2.52030406128435,0.379003322297047,0.012365389082611,,
2.55103947666587,0.383049160196937,0.0125505211282397,,
2.58177489204739,0.386599752391411,0.0126722629024503,,
2.6125103074289,0.390786803784493,0.0128577792609406,,
2.64324572281042,0.394178209859369,0.0130023876504048,,
2.67398113819194,0.397570757053382,0.013141637010524,,
2.70471655357345,0.401332171008399,0.0132775129577487,,
2.73545196895497,0.404721580124786,0.0134521191011179,,
2.76618738433648,0.407949806163085,0.0135768072739322,,
2.796922799718,0.411202566262827,0.0136976950195615,,
2.82765821509952,0.414175466894244,0.0138446733383377,,
2.85839363048103,0.41718545389761,0.0139558251581446,,
2.88912904586255,0.420086464023402,0.0141035721026439,,
2.91986446124407,0.422931274031702,0.0142035521610766,,
2.95059987662558,0.425325341980924,0.0143608482126463,,
2.9813352920071,0.428196968288941,0.0144522666345552,,
3.01207070738862,0.430642957158893,0.0146007021395977,,
3.04280612277013,0.432866427797149,0.0146860622962608,,
3.07354153815165,0.435432234176475,0.0147982389503647,,
3.10427695353317,0.437698782062149,0.0149066578787123,,
3.13501236891468,0.439641822672511,0.0150020742219157,,
3.1657477842962,0.441504699663505,0.0150854274114134,,
3.19648319967772,0.443549585156836,0.0151499065692731,,
3.22721861505923,0.4453442802794,0.0152707943149024,,
3.25795403044075,0.446749283216712,0.0153356364349087,,
3.28868944582227,0.448682339034626,0.0154365132233512,,
3.31942486120378,0.450033138812935,0.0155028125296242,,
3.3501602765853,0.451397346741103,0.0156126406051302,,
3.38089569196681,0.452688808324293,0.0156672557328803,,
3.41163110734833,0.453727512018659,0.0157482977075309,,
3.44236652272985,0.454896303294632,0.0157874389049302,,
3.47310193811136,0.455751857367525,0.0158283255232416,,
3.50383735349288,0.45659942360646,0.0158962581591755,,
3.5345727688744,0.456973995963148,0.0159320045929654,,
3.56530818425591,0.457887176552455,0.0159978501965545,,
3.59604359963743,0.458293129685408,0.0160256968659711,,
3.62677901501895,0.458743586464701,0.0160892365923915,,
3.65751443040046,0.459057964786918,0.0161279401001431,,
3.68824984578198,0.459404294444968,0.0161535823082852,,
3.7189852611635,0.459169794462334,0.0162028597574047,,
3.74972067654501,0.459113309065058,0.0162292278898404,,
3.78045609192653,0.459460209282676,0.0162448405998354,,
3.81119150730805,0.45887852380264,0.0162728687503253,,
3.84192692268956,0.458558439884738,0.0162751105753505,,
3.87266233807108,0.458213536625609,0.0162667891343649,,
3.90339775345259,0.457757659530417,0.0162964666275518,,
3.93413316883411,0.456821656558372,0.0163189435922662,,
3.96486858421563,0.456238829959199,0.0162994770782996,,
3.99560399959714,0.45534847175263,0.0162808539175572,,
4.02633941497866,0.45447694201182,0.0162890098905049,,
4.05707483036018,0.453425686006948,0.0162416166419423,,
4.08781024574169,0.451843524323632,0.0162829302745444,,
4.11854566112321,0.450340385140546,0.0162346723220437,,
4.14928107650473,0.44903294788944,0.0162013011552444,,
4.18001649188624,0.448015925458675,0.0161659443719944,,
4.21075190726776,0.446115391536162,0.0161208089614924,,
4.24148732264928,0.444317273056187,0.0160878434582692,,
4.27222273803079,0.442491482437142,0.0160530257805607,,
4.30295815341231,0.440708769065515,0.0160544722914695,,
4.33369356879383,0.438863864700927,0.0160064385214715,,
4.36442898417534,0.436572212194242,0.0159177209649495,,
4.39516439955686,0.434279418568419,0.0158925217841337,,
4.42589981493837,0.431958096964174,0.0158214078917363,,
4.45663523031989,0.429334093508865,0.0157617700083947,,
4.48737064570141,0.427029318132105,0.0156967837710655,,
4.51810606108292,0.424177090849416,0.0156427024111787,,
4.54884147646444,0.42140274494782,0.0155595573911476,,
4.57957689184596,0.418476344921232,0.0155180729528293,,
4.61031230722747,0.415696578703736,0.0154130327750548,,
4.64104772260899,0.412791574660965,0.0153343126906083,,
4.67178313799051,0.409580750689503,0.0152411595231445,,
4.70251855337202,0.406169089749947,0.015171214582367,,
4.73325396875354,0.402794229902556,0.0150724515146621,,
4.76398938413506,0.399585688169369,0.0149567039535543,,
4.79472479951657,0.395928686615379,0.0148564463358327,,
4.82546021489809,0.392369250747594,0.0147333167651786,,
4.85619563027961,0.388351940826126,0.0146576231445161,,
4.88693104566112,0.384653858983207,0.014547223937396,,
4.91766646104264,0.380530995541576,0.0144216336968932,,
4.94840187642416,0.377037744583732,0.0143093502892166,,
4.97913729180567,0.373033557532338,0.0142035521610766,,
5.00987270718719,0.369029941040514,0.0140845486160037,,
5.04060812256871,0.364712231506257,0.0139104548897833,,
5.07134353795022,0.360275845581761,0.0138128821244132,,
5.10207895333174,0.355551041795414,0.0136839238086939,,
5.13281436871325,0.351387668624423,0.01353997729138,,
5.16354978409477,0.346839738304296,0.0134161484848252,,
5.19428519947629,0.342106661404206,0.0132514223846014,,
5.2250206148578,0.337345341805477,0.0131084580001555,,
5.25575603023932,0.332411713217077,0.0129513167412658,,
5.28649144562084,0.327556821849122,0.0128169993962017,,
5.31722686100235,0.322525057014948,0.0126282804305329,,
5.34796227638387,0.317428533669754,0.0124626629379776,,
5.37869769176539,0.312630412978861,0.0123403233437607,,
5.4094331071469,0.307403231492492,0.0121680444282748,,
5.44016852252842,0.302026563399189,0.0119914953698839,,
5.47090393790994,0.296700104547909,0.0118034649647583,,
5.50163935329145,0.291097494865499,0.0116649308535757,,
5.53237476867297,0.285811831023363,0.0114935967072074,,
5.56311018405449,0.280105950059064,0.0113013708866778,,
5.593845599436,0.274578368959905,0.0111207705302063,,
5.62458101481752,0.268648008465392,0.0109003030520416,,
5.65531643019903,0.263079596697116,0.0107490812787541,,
5.68605184558055,0.257185716355012,0.0105431269487863,,
5.71678726096207,0.251435046464588,0.0103678375825522,,
5.74752267634358,0.245456152746784,0.0101757612170248,,
5.7782580917251,0.239496658054308,0.00997265720744611,,
5.80899350710662,0.233417631132241,0.00978524063536312,,
5.83972892248813,0.227351976700059,0.00959641491612162,,
5.87046433786965,0.221308645410993,0.00939142670598603,,
5.90119975325117,0.215013661692267,0.00917087382496318,,
5.93193516863268,0.208675850345934,0.00898894972419129,,
5.9626705840142,0.202439990862489,0.00876580273135419,,
5.99340599939572,0.196066519543127,0.00852270883347384,,
6.02414141477723,0.189723287880894,0.00830100301386683,,
6.05487683015875,0.183075448729054,0.00812543608834382,,
6.08561224554027,0.176676908448654,0.00787424493198063,,
6.11634766092178,0.170161974016289,0.00768676430775406,,
6.1470830763033,0.163634201993635,0.00743655528425879,,
6.17781849168481,0.156941538255698,0.00722919714481129,,
6.20855390706633,0.150333032054108,0.00700053099226983,,
6.23928932244785,0.143657449443252,0.00675401564238731,,
6.27002473782937,0.136821931853364,0.00655827229164041,,
6.30076015321088,0.130101560316384,0.00636129059945123,,
6.3314955685924,0.123244825042544,0.00608663500782702,,
6.36223098397391,0.116477453661113,0.00588145464126066,,
6.39296639935543,0.109665257693586,0.00563557981281404,,
6.42370181473695,0.102776321464102,0.00536282443478253,,
6.45443723011846,0.0959022197833971,0.00515138830886119,,
6.48517264549998,0.0889393960897984,0.00491798229769547,,
6.5159080608815,0.0819620231272042,0.00466548874774642,,
6.54664347626301,0.0749809415274151,0.00443692401109885,,
6.57737889164453,0.0680072772020158,0.00419237826463092,,
6.60811430702605,0.0610544739608381,0.00398318396373432,,
6.63884972240756,0.054019153542073,0.00371824294721845,,
6.66958513778908,0.0470209551552304,0.00346359297510235,,
6.7003205531706,0.0399385992320411,0.00322847356909639,,
6.73105596855211,0.0329281338144767,0.00299199839271802,,
6.76179138393363,0.0259036896874853,0.0027209937732775,,
6.79252679931515,0.0189000709847423,0.00249074766786128,,
6.82326221469666,0.0118080155488894,0.00224327153582493,,
6.85399763007818,0.00465637229810625,0.00198706829922735,,
6.88473304545969,-0.00235213182094158,0.00174278943669126,,
6.91546846084121,-0.00941138008160856,0.00147714384659592,,
6.94620387622273,-0.0165930133697084,0.0012361796824889,,
6.97693929160424,-0.023582296763294,0.000973315022960275,,
7.00767470698576,-0.0307180713260796,0.000735083750312615,,
7.03841012236728,-0.0377105641172377,0.000500626216456634,,
7.06914553774879,-0.0448316467711356,0.000238647611580767,,
7.09988095313031,-0.0517894067485643,-2.12920000581818E-05,,
7.13061636851183,-0.0588261179062775,-0.000259331116275074,,
7.16135178389334,-0.065769827854333,-0.000488680491681492,,
7.19208719927486,-0.072800048896955,-0.000753664209626415,,
7.22282261465638,-0.0797727860630555,-0.0010276766109758,,
7.25355803003789,-0.0866931030688046,-0.00124094889834581,,
7.28429344541941,-0.0937412254178867,-0.00150307428938445,,
7.31502886080093,-0.100667747258943,-0.00175221577715323,,
7.34576427618244,-0.107591273662264,-0.00201611060865758,,
7.37649969156396,-0.114317885694524,-0.00226375754641017,,
7.40723510694547,-0.121154544403549,-0.00250021670975276,,
7.43797052232699,-0.128062380418738,-0.0027603751662153,,
7.46870593770851,-0.134760464472575,-0.00300114717389155,,
7.49944135309002,-0.141505904970594,-0.0032316281371676,,
7.53017676847154,-0.148234799241127,-0.00346994481267338,,
7.56091218385306,-0.15487725373704,-0.00373221698987392,,
7.59164759923457,-0.161582755065267,-0.00396502518103281,,
7.62238301461609,-0.168129926113249,-0.00421997406315233,,
7.65311842999761,-0.174696210906774,-0.00445611296577653,,
7.68385384537912,-0.181117573569912,-0.00466242225137314,,
7.71458926076064,-0.187679293886889,-0.00492190282264993,,
7.74532467614216,-0.194125761171039,-0.00517208515775192,,
7.77606009152367,-0.20043386775984,-0.0054051949277536,,
7.80679550690519,-0.206810726776639,-0.00561118662147164,,
7.83753092228671,-0.212919922035888,-0.00587962915516949,,
7.86826633766822,-0.2192757416686,-0.00610639509411826,,
7.89900175304974,-0.225408686469886,-0.00634893921109958,,
7.92973716843126,-0.231529934800019,-0.00655215264309073,,
7.96047258381277,-0.237751316334414,-0.00679657829178915,,
7.99120799919429,-0.243414120051296,-0.00703333636513515,,
8.02194341457581,-0.249544426014578,-0.00725551190046136,,
8.05267882995732,-0.255572744454999,-0.00749066867021808,,
8.08341424533884,-0.261231839534686,-0.00768671093096795,,
8.11414966072035,-0.267067451480862,-0.00791379713063511,,
8.14488507610187,-0.272664712167318,-0.0081240162658287,,
8.17562049148339,-0.27859824639943,-0.00834292514183277,,
8.2063559068649,-0.284037105485695,-0.00856996864007087,,
8.23709132224642,-0.289677015499893,-0.00876532767795624,,
8.26782673762794,-0.294988996402123,-0.00894407852878221,,
8.29856215300945,-0.300232724115977,-0.00919372976486033,,
8.32929756839097,-0.305803097182769,-0.00939916634000104,,
8.36003298377249,-0.31093585106056,-0.00960310836512468,,
8.390768399154,-0.316104906790893,-0.0098284438062004,,
8.42150381453552,-0.321402980303642,-0.00998505129722682,,
8.45223922991704,-0.32631785174623,-0.0102009710731981,,
8.48297464529855,-0.331104917845484,-0.010396394163227,,
8.51371006068007,-0.335767459318924,-0.0105881662810727,,
8.54444547606159,-0.340899927916931,-0.010756602067945,,
8.5751808914431,-0.345538006648873,-0.0109527724329825,,
8.60591630682462,-0.350103624315623,-0.0111256064670462,,
8.63665172220614,-0.354506917785148,-0.0113301676628912,,
8.66738713758765,-0.358946085187539,-0.0115186304199857,,
8.69812255296917,-0.363391100825507,-0.0116836260729802,,
8.72885796835068,-0.367826345630865,-0.0118868661933642,,
8.7595933837322,-0.371851643386291,-0.0120356806735895,,
8.79032879911372,-0.375979356584254,-0.0121829365516546,,
8.82106421449523,-0.379979478398722,-0.0123892058046615,,
8.85179962987675,-0.383903929750424,-0.0125243584964316,,
8.88253504525827,-0.3877854464946,-0.0126594844998085,,
8.91327046063978,-0.391331973452149,-0.0128380618760788,,
8.9440058760213,-0.395244870972589,-0.0129866628491593,,
8.97474129140282,-0.399026825072071,-0.0131201688670717,,
9.00547670678433,-0.402616215317199,-0.0132637550910779,,
9.03621212216585,-0.405411386643044,-0.0134291777583631,,
9.06694753754737,-0.408951708765286,-0.0135665696063185,,
9.09768295292888,-0.411856142248488,-0.0136880978733838,,
9.1284183683104,-0.415146844559533,-0.0138312730961356,,
9.15915378369191,-0.418070320468332,-0.0140078675247945,,
9.18988919907343,-0.421039084542878,-0.0140832995992044,,
9.22062461445495,-0.423656169963419,-0.0142194104042885,,
9.25136002983646,-0.426443638735089,-0.014365235784481,,
9.28209544521798,-0.429069639148888,-0.0144597954302639,,
9.3128308605995,-0.431993756937202,-0.0145926635955802,,
9.34356627598102,-0.43384807553467,-0.0146740124867519,,
9.37430169136253,-0.436160553465604,-0.0147869977991686,,
9.40503710674405,-0.438564606207274,-0.014887602366001,,
9.43577252212556,-0.440632314083343,-0.0150190587153189,,
9.46650793750708,-0.442613296905007,-0.015099484188088,,
9.4972433528886,-0.444258505420637,-0.0151935767869911,,
9.52797876827011,-0.446108259541557,-0.0152963190941149,,
9.55871418365163,-0.447604837289605,-0.0153403015660323,,
9.58944959903315,-0.449512788486507,-0.0154257497943928,,
9.62018501441466,-0.450946319402242,-0.0155108297229276,,
9.65092042979618,-0.452124524911094,-0.0156028726532362,,
9.6816558451777,-0.453504708507179,-0.0156579361459914,,
9.71239126055921,-0.454579000854627,-0.0157447268005271,,
9.74312667594073,-0.455608575595898,-0.015816401149181,,
9.77386209132225,-0.456445586482816,-0.0158796819981881,,
9.80459750670376,-0.457445563446474,-0.0159271686561264,,
9.83533292208528,-0.457938740873454,-0.0159569769224399,,
9.86606833746679,-0.458702791455557,-0.016024399810064,,
9.89680375284831,-0.459025799491246,-0.0160612297926166,,
9.92753916822983,-0.459289611971709,-0.0161076062133998,,
9.95827458361134,-0.459515553560816,-0.0160989138037495,,
9.98900999899286,-0.460111003790441,-0.0161602117051451,,
10.0197454143744,-0.459963728101835,-0.0162105353392756,,
10.0504808297559,-0.460129190376686,-0.0162126490600136,,
10.0812162451374,-0.459667607685808,-0.016242262501057,,
10.1119516605189,-0.459493087777808,-0.0162574855605118,,
10.1426870759004,-0.459208093273367,-0.0162650650641676,,
10.173422491282,-0.458756138775207,-0.0162876541201329,,
10.2041579066635,-0.458061767780401,-0.0162814197114924,,
10.234893322045,-0.457584138101661,-0.0163110758539649,,
10.2656287374265,-0.456465342107874,-0.0162961944059421,,
10.296364152808,-0.45542713765313,-0.0163150897882951,,
10.3270995681895,-0.454766144393079,-0.016291241040173,,
10.3578349835711,-0.453386032116941,-0.0162985856859685,,
10.3885703989526,-0.452454878901228,-0.0162780249478831,,
10.4193058143341,-0.450960512071507,-0.0162504398247192,,
10.4500412297156,-0.449356740444536,-0.0162275518587505,,
10.4807766450971,-0.44804331231796,-0.016217474321496,,
10.5115120604786,-0.445707726724504,-0.0161798543625062,,
10.5422474758602,-0.444618243228546,-0.0161051268616759,,
10.5729828912417,-0.442683475731926,-0.0160787400473645,,
10.6037183066232,-0.440594657151825,-0.0160558921139855,,
10.6344537220047,-0.438465614122148,-0.0159876338796554,,
