Time domain (s),Current (AC) (A),Potential (AC) (V),Frequency (Hz),Column 5
0,-0.447509339881836,-0.0183054674482737,0.0079433,0.5
0.307354153815165,-0.449002494272473,-0.0184596836592732,,
0.61470830763033,-0.450723016651139,-0.0186028375313105,,
0.922062461445495,-0.451979317500923,-0.018756052927567,,
1.22941661526066,-0.452926731664337,-0.0189119131435853,,
1.53677076907582,-0.45453428324845,-0.0190458675265024,,
1.84412492289099,-0.455585895853052,-0.0191859255449343,,
2.15147907670615,-0.456404006954265,-0.0192855506477381,,
2.45883323052132,-0.457173977091891,-0.0194439969690525,,
2.76618738433648,-0.458121747855035,-0.0195820720398729,,
3.07354153815165,-0.458314953588902,-0.0196798129421198,,
3.38089569196681,-0.458911402297772,-0.019778495944645,,
3.68824984578198,-0.459465130358954,-0.0199142010861535,,
3.99560399959714,-0.4595664760023,-0.0199756270918363,,
4.30295815341231,-0.459583806749192,-0.0200879745516565,,
4.61031230722747,-0.459867374854712,-0.0201941756745332,,
4.91766646104264,-0.460004095191303,-0.0202749641094488,,
5.2250206148578,-0.459850044107821,-0.0203404280690158,,
5.53237476867297,-0.459448370171631,-0.0204358844448089,,
5.83972892248813,-0.459378476624495,-0.0205078577034659,,
6.1470830763033,-0.458622699156135,-0.020608587705746,,
6.45443723011846,-0.457994584391216,-0.0206727039014587,,
6.76179138393363,-0.457183177364932,-0.0207266171244687,,
7.06914553774879,-0.456756113527946,-0.0207770048107427,,
7.37649969156396,-0.455492324083826,-0.0208184705671859,,
7.68385384537912,-0.454494344078658,-0.0208765631925636,,
7.99120799919429,-0.453698413480668,-0.0209341460696324,,
8.29856215300945,-0.452219594399188,-0.0209656383735539,,
8.60591630682462,-0.450933267852114,-0.0209832954144642,,
8.91327046063978,-0.449547949219913,-0.0209973868860494,,
9.22062461445495,-0.448079614170503,-0.0210490983166243,,
9.52797876827011,-0.446286630726644,-0.0211015997236363,,
9.83533292208528,-0.444519679063096,-0.0210672464239687,,
10.1426870759004,-0.442819910788732,-0.0210815727534137,,
10.4500412297156,-0.440928220539531,-0.0210798646962518,,
10.7573953835308,-0.438570383122905,-0.0210573183417155,,
11.0647495373459,-0.43634798228384,-0.0210679509975482,,
11.3721036911611,-0.433947424219526,-0.0210341528164579,,
11.6794578449763,-0.431653489474567,-0.0210413266565377,,
11.9868119987914,-0.429487074793156,-0.0210271284313799,,
12.2941661526066,-0.426870203332453,-0.0210248866063552,,
12.6015203064218,-0.424287066206235,-0.0209781925936934,,
12.9088744602369,-0.421409948262371,-0.0209109591936603,,
13.2162286140521,-0.418583396160262,-0.0208653754181536,,
13.5235827678673,-0.415637882388131,-0.0208276273548771,,
13.8309369216824,-0.412445316322861,-0.0207825986979477,,
14.1382910754976,-0.40911438956224,-0.0207015487167794,,
14.4456452293128,-0.406031442254058,-0.0206298343355358,,
14.7529993831279,-0.402737316585603,-0.0205863429300526,,
15.0603535369431,-0.39944568711526,-0.020526408805547,,
15.3677076907582,-0.395791823638896,-0.0204455990199168,,
15.6750618445734,-0.392012722337257,-0.0203585308060918,,
15.9824159983886,-0.388193396586043,-0.0202842303195516,,
16.2897701522037,-0.384360092125401,-0.0201783521262322,,
16.5971243060189,-0.380403475478027,-0.0200602399734908,,
16.9044784598341,-0.376724578700598,-0.0199878397005433,,
17.2118326136492,-0.372466492641244,-0.0198745314585698,,
17.5191867674644,-0.368391556203363,-0.0197741831003118,,
17.8265409212796,-0.363983056377775,-0.0196707175377329,,
18.1338950750947,-0.359551306249774,-0.0195543347928679,,
18.4412492289099,-0.355128043195353,-0.0194386993230116,,
18.7486033827251,-0.350679390240136,-0.0192720116258909,,
19.0559575365402,-0.346019630244592,-0.0191506141319526,,
19.3633116903554,-0.341405728974363,-0.0190105961461104,,
19.6706658441706,-0.336595697852478,-0.0188356483913088,,
19.9780199979857,-0.332036356340982,-0.0187367732323529,,
20.2853741518009,-0.326893902950528,-0.0186026453748802,,
20.5927283056161,-0.321737185570862,-0.0184279137960628,,
20.9000824594312,-0.316903975466509,-0.0182790139129794,,
21.2074366132464,-0.311629152256174,-0.018094138075925,,
21.5147907670615,-0.306349693249346,-0.0179441679882757,,
21.8221449208767,-0.301091416266496,-0.0177838694924763,,
22.1294990746919,-0.295767596253221,-0.0175901331088943,,
22.436853228507,-0.290287656878028,-0.017422401895602,,
22.7442073823222,-0.284834248522768,-0.0172064607689162,,
23.0515615361374,-0.279278995284539,-0.0170584549470032,,
23.3589156899525,-0.27360420981672,-0.0168380541898214,,
23.6662698437677,-0.267911737002279,-0.0166420332797856,,
23.9736239975829,-0.262318256272964,-0.0164528232476826,,
24.280978151398,-0.256446342474244,-0.0162473866725423,,
24.5883323052132,-0.250473154352125,-0.0160288407586848,,
24.8956864590284,-0.244512803820296,-0.0158054242130765,,
25.2030406128435,-0.238562438080914,-0.015615277418374,,
25.5103947666587,-0.232582973803542,-0.0153757010507114,,
25.8177489204739,-0.226512505275002,-0.0151754526992001,,
26.125103074289,-0.220280283108805,-0.0149445634035086,,
26.4324572281042,-0.213897361896591,-0.0147196362948483,,
26.7398113819194,-0.207613575409396,-0.0144638520660232,,
27.0471655357345,-0.201412734019465,-0.0141943419965993,,
27.3545196895497,-0.19509656827676,-0.0140001198842619,,
27.6618738433648,-0.188640758079676,-0.0137552672212728,,
27.96922799718,-0.182274739694678,-0.0135280102158899,,
28.2765821509952,-0.175496206741689,-0.0132568374595725,,
28.5839363048103,-0.169210351976058,-0.0130098257055771,,
28.8912904586255,-0.162528814149706,-0.0127708925281893,,
29.1986446124407,-0.155814754427952,-0.0124838321714273,,
29.5059987662558,-0.149225647251689,-0.0122340074607936,,
29.813352920071,-0.142503029136409,-0.0119617431491963,,
30.1207070738862,-0.135838037537542,-0.0117141602635873,,
30.4280612277013,-0.128992178555476,-0.0114342523961906,,
30.7354153815165,-0.122216213120545,-0.0111921593130533,,
31.0427695353317,-0.115365789661931,-0.010904026082887,,
31.3501236891468,-0.108737313875445,-0.010600912657643,,
31.657477842962,-0.101612665224245,-0.01032083398453,,
31.9648319967772,-0.094772583157809,-0.0100618071159371,,
32.2721861505923,-0.0878203148162267,-0.00977765312518919,,
32.5795403044075,-0.080810705238015,-0.00951004060051863,,
32.8868944582226,-0.0738781212015443,-0.00918992933767493,,
33.1942486120378,-0.0669147269483771,-0.00888141418165711,,
33.501602765853,-0.0599256575146297,-0.00860690270735587,,
33.8089569196681,-0.0528952225121695,-0.00829187558340827,,
34.1163110734833,-0.0459498008854086,-0.00799922133944131,,
34.4236652272985,-0.0388874145471151,-0.00771258799696994,,
34.7310193811136,-0.0318430008352279,-0.00738888981408659,,
35.0383735349288,-0.0247187087837574,-0.00711891002894305,,
35.345727688744,-0.0177153753607987,-0.00680277266783991,,
35.6530818425591,-0.0106025658206433,-0.00650548264998241,,
35.9604359963743,-0.00357348589715821,-0.0061957264836825,,
36.2677901501895,0.00354452999905929,-0.0058694235136274,,
36.5751443040046,0.010551572059213,-0.00559536574201003,,
36.8824984578198,0.0177229352750807,-0.00526342351448106,,
37.189852611635,0.024745988663124,-0.00497147651293295,,
37.4972067654501,0.0318246002891453,-0.00463340663033618,,
37.8045609192653,0.0387562928262904,-0.00436249008259315,,
38.1119150730805,0.0459020165215508,-0.00402130566451531,,
38.4192692268956,0.0528976830503085,-0.0037057421038651,,
38.7266233807108,0.059855336047818,-0.0033736317394597,,
39.033977534526,0.0668543546140403,-0.00306244507528675,,
39.3413316883411,0.0738494505832296,-0.00275789848333075,,
39.6486858421563,0.0808659068762627,-0.00243377328615679,,
39.9560399959714,0.0877708187736635,-0.00213424411211349,,
40.2633941497866,0.0946902799400599,-0.00179015332802113,,
40.5707483036018,0.101624575655236,-0.00148366648988274,,
40.8781024574169,0.108612503969846,-0.00114741408685992,,
41.1854566112321,0.115316008339584,-0.00083071893834008,,
41.4928107650473,0.122122783991211,-0.000524976706370417,,
41.8001649188624,0.128948138488786,-0.000208431012852284,,
42.1075190726776,0.135766004392025,0.000130084565910238,,
42.4148732264928,0.142480884293158,0.000460038508149019,,
42.7222273803079,0.149224934052229,0.000761147635066628,,
43.0295815341231,0.155775243177837,0.00109325799947246,,
43.3369356879383,0.162433637681694,0.00138727868916888,,
43.6442898417534,0.169101517738376,0.00172590102150361,,
43.9516439955686,0.175496349381581,0.00205109909208234,,
44.2589981493838,0.182078609843023,0.00236632104130008,,
44.5663523031989,0.188571863011786,0.00267301871774439,,
44.8737064570141,0.195071392335802,0.00297066369123122,,
45.1810606108292,0.201383492841581,0.00331571258863761,,
45.4884147646444,0.207601451018567,0.00362673378477307,,
45.7957689184596,0.213911269286072,0.00393907338753019,,
46.1031230722747,0.220093852769814,0.00423905092657861,,
46.4104772260899,0.226288703284276,0.00456944789614333,,
46.7178313799051,0.232475851244565,0.00489005556309952,,
47.0251855337202,0.238401968202287,0.00520250191942928,,
47.3325396875354,0.244310683093172,0.00550487073850414,,
47.6398938413506,0.250377157704733,0.00579899284409446,,
47.9472479951657,0.256196580023155,0.00611901870408005,,
48.2546021489809,0.262047668397626,0.00639953506684066,,
48.5619563027961,0.267896189254038,0.00670847456831014,,
48.8693104566112,0.273559848810273,0.00700621028233339,,
49.1766646104264,0.279162458492683,0.00730934772713132,,
49.4840187642416,0.284937377164765,0.00758912749024088,,
49.7913729180567,0.290258415700145,0.00789438399345466,,
50.0987270718719,0.295927780852064,0.00818867690476122,,
50.4060812256871,0.301101044459214,0.00848237733374013,,
50.7134353795022,0.306418659637183,0.00876610697903635,,
51.0207895333174,0.311454988947905,0.0090693351643707,,
51.3281436871325,0.316669332843983,0.00935122864821825,,
51.6354978409477,0.321804939519616,0.00960877697983031,,
51.9428519947629,0.326734003631469,0.00990316063167374,,
52.250206148578,0.33147792116336,0.0101719180884108,,
52.5575603023932,0.336259495626768,0.0104552100440594,,
52.8649144562084,0.341318932600012,0.0107288408013861,,
53.1722686100235,0.346007791133547,0.0109966161252553,,
53.4796227638387,0.350575405758786,0.011288394989927,,
53.7869769176539,0.355042601899978,0.0115163725819247,,
54.094331071469,0.359298976280626,0.0117794614239561,,
54.4016852252842,0.363961874353797,0.0120898848000848,,
54.7090393790994,0.368202558346313,0.0123429067802183,,
55.0163935329145,0.372248966805771,0.0125887602579509,,
55.3237476867297,0.376064013360223,0.0128295536163412,,
55.6311018405449,0.380151216828826,0.0130761330183677,,
55.93845599436,0.384057838194014,0.0132866777519576,,
56.2458101481752,0.387759913953912,0.0135592783373091,,
56.5531643019904,0.391766383243578,0.0137879017884215,,
56.8605184558055,0.395281886024593,0.0140395626605039,,
57.1678726096207,0.398610245267155,0.0142462962915517,,
57.4752267634358,0.402076679925282,0.0144943328798441,,
57.782580917251,0.405288359736096,0.0146897559698735,,
58.0899350710662,0.408806715314953,0.0149342643525907,,
58.3972892248813,0.411869193798617,0.0151349610691072,,
58.7046433786965,0.415064897941514,0.0153564320308544,,
59.0119975325117,0.418053203681279,0.0155879591791419,,
59.3193516863268,0.420798165765099,0.0157949116550133,,
59.626705840142,0.423693470295207,0.016007650174521,,
59.9340599939572,0.426609600249563,0.0161639213917932,,
60.2414141477723,0.428625101925118,0.0163761208057589,,
60.5487683015875,0.431327272041305,0.016592318141019,,
60.8561224554027,0.433947566859418,0.0167753791673393,,
61.1634766092178,0.435915426811008,0.0169407404513202,,
61.470830763033,0.437958315345849,0.0171056480326173,,
61.7781849168482,0.440333840109097,0.0172895043730534,,
62.0855390706633,0.441860942794057,0.0174592265404754,,
62.3928932244785,0.444252157945438,0.0176252230082135,,
62.7002473782937,0.44567199543153,0.0177737172277208,,
63.0076015321088,0.447581658307137,0.0179562017847492,,
63.314955685924,0.4490508491959,0.0180914959250029,,
63.6223098397391,0.450442443983353,0.0182183458576626,,
63.9296639935543,0.451669717615092,0.0184143187285906,,
64.2370181473695,0.452744651842055,0.0185453267129039,,
64.5443723011846,0.453884344580037,0.0186468280097465,,
64.8517264549998,0.455103915657602,0.0188030778763042,,
65.159080608815,0.455940355984952,0.018956440058723,,
65.4664347626301,0.456744274416901,0.0190927430202379,,
65.7737889164453,0.457384727532487,0.0191771850961766,,
66.0811430702605,0.457833757912859,0.0193043286011609,,
66.3884972240756,0.458448535847865,0.0194014103000972,,
66.6958513778908,0.458996273033579,0.0195376705601831,,
67.003205531706,0.459186269369873,0.019629243774772,,
67.3105596855211,0.459346311328824,0.0197314229568009,,
67.6179138393363,0.459624459118444,0.0198166603468555,,
67.9252679931515,0.459138057086339,0.0199013746444039,,
68.2326221469666,0.459286687853921,0.0199766412507763,,
68.5399763007818,0.458813979251459,0.0200409015638119,,
68.8473304545969,0.458271662381645,0.020114027761053,,
69.1546846084121,0.457770996360329,0.0201917283488808,,
69.4620387622273,0.457701102813194,0.0202626340718117,,
69.7693929160424,0.456552566401901,0.0203247860017886,,
70.0767470698576,0.455750644928442,0.0203925531696845,,
70.3841012236728,0.454787540376896,0.0204101675091661,,
70.6914553774879,0.453754542278214,0.0204720418798536,,
70.9988095313031,0.453176280155589,0.0204758209563241,,
71.3061636851183,0.451344213381291,0.0205114980002921,,
71.6135178389334,0.450205661762446,0.0205526194764634,,
71.9208719927486,0.448827189845067,0.0205948725405047,,
72.2282261465638,0.447320342024786,0.0205903461890258,,
72.5355803003789,0.445747879854134,0.0206097753392416,,
72.8429344541941,0.444053317935832,0.0206556153233226,,
73.1502886080093,0.441872068705642,0.0206495303696834,,
73.4576427618244,0.439794090757342,0.0206432105581844,,
73.7649969156396,0.437927790408936,0.0206405844202981,,
74.0723510694548,0.435669515637005,0.0206560209868982,,
74.3797052232699,0.433220103409643,0.0206254040622724,,
74.6870593770851,0.431045415614489,0.0205935274454894,,
74.9944135309002,0.428730084885713,0.020560433837979,,
75.3017676847154,0.425799690942146,0.0205298169133528,,
75.6091218385306,0.423279814608079,0.0205271907754665,,
75.9164759923457,0.420486354960941,0.0204620070440278,,
76.2238301461609,0.417774770611875,0.0204240668243205,,
76.5311842999761,0.414732546992891,0.0203670230527937,,
76.8385384537912,0.411683476659086,0.0203350610331525,,
77.1458926076064,0.408695170919321,0.0202906942483736,,
77.4532467614216,0.405236438815367,0.020216521866121,,
77.7606009152367,0.401938889789501,0.0201161254687552,,
78.0679550690519,0.398708381512929,0.0200925275915287,,
78.3753092228671,0.394773802728887,0.0199795662986659,,
78.6826633766822,0.391163301779725,0.0199086819264496,,
78.9900175304974,0.387296904864113,0.0198238341869348,,
79.2973716843126,0.383667004889624,0.0197086470820835,,
79.6047258381277,0.379627157865203,0.019636908681286,,
79.9120799919429,0.375628676409494,0.0195198427135566,,
80.2194341457581,0.371582267950036,0.0194386886476545,,
80.5267882995732,0.367377529210332,0.0193370165450957,,
80.8341424533884,0.363181063584371,0.0192022294843119,,
81.1414966072036,0.358629995186617,0.0190959242767019,,
81.4488507610187,0.354294313025953,0.018967286221701,,
81.7562049148339,0.349739821270789,0.0188639327503735,,
82.063559068649,0.345044116022432,0.0187323856605186,,
82.3709132224642,0.34053498375296,0.0185906382668004,,
82.6782673762794,0.335702914767743,0.0184515810631121,,
82.9856215300945,0.330777559293085,0.0183025103743124,,
83.2929756839097,0.325993417311619,0.0181466715090086,,
83.6003298377249,0.321071770474156,0.0179813529264572,,
83.90768399154,0.315860279375919,0.0178525227150255,,
84.2150381453552,0.31089840808888,0.0176920774330633,,
84.5223922991704,0.305672653001432,0.0175224460061782,,
84.8297464529855,0.300156483093642,0.017315589608522,,
85.1371006068007,0.294933295524253,0.0171681415740261,,
85.4444547606159,0.289587437647646,0.0169980884705287,,
85.751808914431,0.284084961169499,0.016810180832012,,
86.0591630682462,0.278579917173294,0.0166475737902045,,
86.3665172220613,0.272763347652714,0.016399462474411,,
86.6738713758765,0.267035214865245,0.0162591188901731,,
86.9812255296917,0.261453430607083,0.0160380589296802,,
87.2885796835069,0.255536442602456,0.0158517686077881,,
87.595933837322,0.249648018236225,0.0156577973663468,,
87.9032879911372,0.243562679498932,0.0154094672057297,,
88.2106421449523,0.237602008027345,0.0152398144281296,,
88.5179962987675,0.231479975177806,0.0149887300253391,,
88.8253504525827,0.225435146169873,0.0147588895834989,,
89.1327046063978,0.219430862551273,0.0145695941485378,,
89.440058760213,0.213138731630389,0.0143254273772526,,
89.7474129140282,0.206848027108426,0.0141076500891182,,
90.0547670678433,0.200382446078733,0.0138779164008502,,
90.3621212216585,0.19407890396648,0.0136461970961319,,
90.6694753754737,0.187622451889882,0.0133982565860551,,
90.9768295292888,0.181238175598694,0.0131493232677524,,
91.284183683104,0.174720958928056,0.0129199311909174,,
91.5915378369192,0.168145259901651,0.0126579792744344,,
91.8988919907343,0.161540997236851,0.0123935506750672,,
92.2062461445495,0.154882032173426,0.012163966441801,,
92.5136002983647,0.148183662839805,0.0119192659026526,,
92.8209544521798,0.141517244842017,0.0116210124338023,,
93.128308605995,0.134844265409191,0.0114108840391451,,
93.4356627598101,0.128040057275622,0.0110969858342278,,
93.7430169136253,0.121236419701622,0.0108336034198722,,
94.0503710674405,0.114373729212286,0.0105547630882015,,
94.3577252212556,0.107453982766106,0.0102746844150889,,
94.6650793750708,0.100650059912321,0.0100267332296542,,
94.972433528886,0.0937328809841981,0.00973767124340608,,
95.2797876827011,0.0867369291756562,0.00941822185271279,,
95.5871418365163,0.0798537342018296,0.00912937337360953,,
95.8944959903315,0.0729094536942056,0.00887036251805196,,
96.2018501441466,0.0658553404696547,0.00858417220290697,,
96.5092042979618,0.0588833878229608,0.00831998379907795,,
96.816558451777,0.0519291581828619,0.00799302429455118,,
97.1239126055921,0.0448955494428022,0.00772331673101778,,
97.4312667594073,0.0378012117686755,0.00739630918738321,,
97.7386209132225,0.0308326468194192,0.00711514162782967,,
98.0459750670376,0.0237329244893652,0.00683188703593185,,
98.3533292208528,0.0167410022577755,0.00653132768991238,,
98.660683374668,0.00958532943004023,0.00623242302426918,,
98.9680375284831,0.00250725270361435,0.00593025703698213,,
99.2753916822983,-0.00450856170990427,0.0056336155470782,,
99.5827458361134,-0.0115907749932014,0.0052949718640285,,
99.8900999899286,-0.0187378181074639,0.00500311293417743,,
100.197454143744,-0.0257673259506253,0.00468521680796563,,
100.504808297559,-0.0329011035549213,0.00436092080507589,,
100.812162451374,-0.0398433871040557,0.00404292326297018,,
101.119516605189,-0.04696489767763,0.00372879020019301,,
101.426870759004,-0.0539847773280738,0.00340035215868539,,
101.73422491282,-0.0609665721273235,0.00311828253144331,,
102.041579066635,-0.0679232623055613,0.0028105813714161,,
102.34893322045,-0.0749581904646231,0.0024774248219992,,
102.656287374265,-0.0818547579283353,0.00215018775818354,,
102.96364152808,-0.0888404753246181,0.00186168622819149,,
103.270995681895,-0.0957548014548984,0.0015230905842496,,
103.578349835711,-0.102697726883547,0.00121233093436723,,
103.885703989526,-0.109614263932155,0.000926530269762083,,
104.193058143341,-0.116362771187854,0.000583920691489936,,
104.500412297156,-0.123247000300899,0.000241599347863719,,
104.807766450971,-0.130039440643369,-6.23067226568352E-05,,
105.115120604786,-0.136865330040539,-0.000369223243925187,,
105.422474758602,-0.143545156188186,-0.000675864874744025,,
105.729828912417,-0.150221558978422,-0.00105957724731187,,
106.037183066232,-0.15689646404979,-0.00135302146771643,,
106.344537220047,-0.16364261774727,-0.00166659941191583,,
106.651891373862,-0.170109482535992,-0.00198097000139219,,
106.959245527677,-0.176591110553548,-0.00227846818871624,,
