Time domain (s),Current (AC) (A),Potential (AC) (V),Frequency (Hz),Column 5
0,-0.0151129741546044,0.000764491212134288,2.5119,0.3
0.000971936084239022,-0.0195470455585552,0.000646501827395785,,
0.00194387216847804,-0.0238651150136015,0.000513275309817374,,
0.00291580825271707,-0.0282403786289269,0.000385289819744727,,
0.00388774433695609,-0.0326066776423276,0.000227420432608039,,
0.00485968042119511,-0.0368476515208223,9.75433532977021E-05,,
0.00583161650543413,-0.0411945421710563,-1.84419910382871E-05,,
0.00680355258967316,-0.0455436739717714,-0.000127439298700516,,
0.00777548867391218,-0.0497900266114208,-0.000287664136129795,,
0.0087474247581512,-0.0541143712878144,-0.000414432743954141,,
0.00971936084239022,-0.0584568244600956,-0.000544600991459365,,
0.0106912969266292,-0.0627497930297531,-0.000650706697738812,,
0.0116632330108683,-0.0670346934576783,-0.000760537348854839,,
0.0126351690951073,-0.0712139908749317,-0.000898468742849268,,
0.0136071051793463,-0.0754886716566629,-0.00103422942774989,,
0.0145790412635853,-0.0796459609761914,-0.00115705822869083,,
0.0155509773478244,-0.0837932995875835,-0.00127037486591775,,
0.0165229134320634,-0.0880736728915368,-0.00139852300856846,,
0.0174948495163024,-0.0922080128301383,-0.00150202627360407,,
0.0184667856005414,-0.096252661926484,-0.00165759442797375,,
0.0194387216847804,-0.100426221998506,-0.00175760969884209,,
0.0204106577690195,-0.104464595873504,-0.00191025613098184,,
0.0213825938532585,-0.108421033286912,-0.00203327770534845,,
0.0223545299374975,-0.112447215303293,-0.00211331080583088,,
0.0233264660217365,-0.116433773779167,-0.0022439288579954,,
0.0242984021059756,-0.120587791018993,-0.00238104096493119,,
0.0252703381902146,-0.124462157501781,-0.00249571103224966,,
0.0262422742744536,-0.128244457522803,-0.00262745359606287,,
0.0272142103586926,-0.132173463254321,-0.00272910944910398,,
0.0281861464429316,-0.136113943676303,-0.00286170543693665,,
0.0291580825271707,-0.139831922678515,-0.00296453399498287,,
0.0301300186114097,-0.143568323937683,-0.00308291294268548,,
0.0311019546956487,-0.14743448780971,-0.00322951713277009,,
0.0320738907798877,-0.151050942695127,-0.00334767117814305,,
0.0330458268641268,-0.154804780105038,-0.00343253767065832,,
0.0340177629483658,-0.158434726716352,-0.00354054099034506,,
0.0349896990326048,-0.162075072265897,-0.00369156290476358,,
0.0359616351168438,-0.165549393387799,-0.00377247955011306,,
0.0369335712010829,-0.169150832564992,-0.00392250546850015,,
0.0379055072853219,-0.172692029617252,-0.0040101049259329,,
0.0388774433695609,-0.176163661358576,-0.00411812431007164,,
0.0398493794537999,-0.179397372564822,-0.00422213962951901,,
0.0408213155380389,-0.182858246783837,-0.00434374753209843,,
0.041793251622278,-0.186092854450275,-0.00448238174587301,,
0.042765187706517,-0.189330330789329,-0.00457166797077857,,
0.043737123790756,-0.192699183369588,-0.00464198408578254,,
0.044709059874995,-0.196155082234535,-0.00476601772063256,,
0.045680995959234,-0.199216673083828,-0.00485469349635759,,
0.0466529320434731,-0.202103095611514,-0.00495962649763237,,
0.0476248681277121,-0.205049536149085,-0.00504806130657576,,
0.0485968042119511,-0.208141516998902,-0.00517000656264965,,
0.0495687402961901,-0.211167204617487,-0.0052453809720161,,
0.0505406763804292,-0.21421696219224,-0.00537441065147704,,
0.0515126124646682,-0.216997423125177,-0.00546403222182068,,
0.0524845485489072,-0.219842653307019,-0.00557658178145903,,
0.0534564846331462,-0.222495772069617,-0.00565828558496229,,
0.0544284207173852,-0.225207205567735,-0.00574045726563366,,
0.0554003568016243,-0.22799143163348,-0.00582302654149469,,
0.0563722928858633,-0.230447418799756,-0.00590074636087135,,
0.0573442289701023,-0.232928462028412,-0.00601335817026127,,
0.0583161650543413,-0.235335233530121,-0.00610739947299566,,
0.0592881011385804,-0.237702247022295,-0.00616126157291141,,
0.0602600372228194,-0.240158144542552,-0.00624777065565629,,
0.0612319733070584,-0.242593333832363,-0.00636610141000249,,
0.0622039093912974,-0.244909249093567,-0.00642542743169683,,
0.0631758454755365,-0.24694941319957,-0.00649954881379733,,
0.0641477815597755,-0.249407462224288,-0.00659980705950414,,
0.0651197176440145,-0.251082229155844,-0.00666907496900659,,
0.0660916537282535,-0.253374567513986,-0.00673696535173951,,
0.0670635898124925,-0.25525283090923,-0.00676806613105185,,
0.0680355258967316,-0.257094160144545,-0.00687012359539629,,
0.0690074619809706,-0.25902939358502,-0.00693208418723934,,
0.0699793980652096,-0.2607084635255,-0.00702050293173029,,
0.0709513341494486,-0.262561222628269,-0.00706472836842797,,
0.0719232702336877,-0.264237065312056,-0.00712800624534493,,
0.0728952063179267,-0.265678259540466,-0.00720384451576628,,
0.0738671424021657,-0.267360556737638,-0.00725011214594007,,
0.0748390784864047,-0.26879202437296,-0.00733976785324497,,
0.0758110145706437,-0.270202514839778,-0.00738058762609217,,
0.0767829506548828,-0.271507178180876,-0.00742746369739011,,
0.0777548867391218,-0.272846713823461,-0.00751008317466439,,
0.0787268228233608,-0.274102968314166,-0.00752500705068782,,
0.0796987589075998,-0.275050392268569,-0.00757120841499681,,
0.0806706949918388,-0.276430089327776,-0.00763059869449956,,
0.0816426310760779,-0.27729996947553,-0.0076796253943261,,
0.0826145671603169,-0.278087285639559,-0.00773736103526002,,
0.0835865032445559,-0.279520142788179,-0.00776779112369619,,
0.0845584393287949,-0.279999211115031,-0.00782965532882596,,
0.085530375413034,-0.28077810055325,-0.00787479643929467,,
0.086502311497273,-0.281634175214041,-0.00788976650061768,,
0.087474247581512,-0.282045650442381,-0.00795924525605463,,
0.088446183665751,-0.282584064433973,-0.00796833773595695,,
0.08941811974999,-0.282993926033966,-0.00801042660052209,,
0.0903900558342291,-0.283626423522757,-0.00804623426430684,,
0.0913619919184681,-0.283935388528089,-0.00804387278984464,,
0.0923339280027071,-0.284389893845666,-0.00807765633266166,,
0.0933058640869461,-0.284544936635952,-0.00813391404399999,,
0.0942778001711852,-0.284609885176896,-0.00815362311869983,,
0.0952497362554242,-0.284558786945926,-0.00817802702953285,,
0.0962216723396632,-0.284766227834461,-0.00817701496904899,,
0.0971936084239022,-0.284589759645575,-0.00817762541822997,,
0.0981655445081412,-0.284747760754497,-0.00819055730218965,,
0.0991374805923803,-0.284271023224146,-0.00823532893025947,,
0.100109416676619,-0.284170261098513,-0.00823680685985506,,
0.101081352760858,-0.28387460852704,-0.00825316047211722,,
0.102053288845097,-0.283559950999486,-0.00823990729911506,,
0.103025224929336,-0.283019385503432,-0.00824615436293463,,
0.103997161013575,-0.282589084611051,-0.00826157623697377,,
0.104969097097814,-0.282058380177114,-0.00826776105104177,,
0.105941033182053,-0.28134533574003,-0.00826305617462575,,
0.106912969266292,-0.280594684797873,-0.00825969669607529,,
0.107884905350531,-0.280074872355274,-0.00827123298075705,,
0.10885684143477,-0.279079308488537,-0.00826660641854504,,
0.10982877751901,-0.278316241572714,-0.00825825290344051,,
0.110800713603249,-0.277240489341761,-0.00824323063264831,,
0.111772649687488,-0.275980559364266,-0.00820901535768037,,
0.112744585771727,-0.275261777581951,-0.00820045300469818,,
0.113716521855966,-0.273810946406472,-0.00817132614494076,,
0.114688457940205,-0.272819820017687,-0.00815497454073499,,
0.115660394024444,-0.271219817866183,-0.00813791409257902,,
0.116632330108683,-0.269857019081603,-0.00815273957383322,,
0.117604266192922,-0.268386824365967,-0.00810043572577346,,
0.118576202277161,-0.267016495315771,-0.00809921281935555,,
0.1195481383614,-0.265567994936793,-0.00805041102185911,,
0.120520074445639,-0.263679332603316,-0.00804184866887692,,
0.121492010529878,-0.262315099482429,-0.0080017839252795,,
0.122463946614117,-0.260483093433115,-0.00797502054804067,,
0.123435882698356,-0.258706309331658,-0.0079164816845001,,
0.124407818782595,-0.257011461691791,-0.00789778266222774,,
0.125379754866834,-0.25504718294108,-0.0078587781724706,,
0.126351690951073,-0.253026382375234,-0.00783309111352404,,
0.127323627035312,-0.251117594510436,-0.00777291568392346,,
0.128295563119551,-0.248696031415551,-0.00773210795941548,,
0.12926749920379,-0.246815840630893,-0.00767824585949972,,
0.130239435288029,-0.244584416742828,-0.00763671925075915,,
0.131211371372268,-0.242167873825021,-0.00759901598162349,,
0.132183307456507,-0.239943576795487,-0.00752455724602852,,
0.133155243540746,-0.237406908211889,-0.00748857287327054,,
0.134127179624985,-0.234766339891986,-0.00743578508359066,,
0.135099115709224,-0.232544015074875,-0.0073778887981355,,
0.136071051793463,-0.229801071000992,-0.00729936575615264,,
0.137042987877702,-0.227410704720804,-0.00724506790797319,,
0.138014923961941,-0.224508280378683,-0.00717886630076947,,
0.13898686004618,-0.221919348165865,-0.00710850400046592,,
0.139958796130419,-0.219089447453313,-0.00706997943621612,,
0.140930732214658,-0.21647743139054,-0.00700821362585513,,
0.141902668298897,-0.213566669968628,-0.00695553828734052,,
0.142874604383136,-0.210629687086088,-0.00684689439762476,,
0.143846540467375,-0.207701355044404,-0.00678585148761002,,
0.144818476551614,-0.204706371187411,-0.00668298879260254,,
0.145790412635853,-0.201430750467168,-0.0066287552022315,,
0.146762348720092,-0.198492871124435,-0.00657317219788212,,
0.147734284804331,-0.195308868635861,-0.00649970945831857,,
0.14870622088857,-0.19222441805166,-0.00639243104703402,,
0.149678156972809,-0.188824906532819,-0.00634091435712847,,
0.150650093057048,-0.185506210900328,-0.00623858178904113,,
0.151622029141287,-0.182337761996094,-0.00614696421052097,,
0.152593965225527,-0.178797461404027,-0.0060710134889348,,
0.153565901309766,-0.175449899753339,-0.00598352648266687,,
0.154537837394005,-0.171965538277281,-0.0059145939186025,,
0.155509773478244,-0.168677456760363,-0.0058128416788481,,
0.156481709562483,-0.165000042581859,-0.00572941897896762,,
0.157453645646722,-0.161250328888833,-0.00561208221259646,,
0.158425581730961,-0.157645124578832,-0.00553062138393168,,
0.1593975178152,-0.154117553721498,-0.00541776659970328,,
0.160369453899439,-0.150423106799337,-0.00533686802686306,,
0.161341389983678,-0.146680878548918,-0.00527350982768526,,
0.162313326067917,-0.142948376891587,-0.00515530959701271,,
0.163285262152156,-0.13925585735884,-0.00503670373892406,,
0.164257198236395,-0.1352117013156,-0.00495308625756152,,
0.165229134320634,-0.131450916339197,-0.00483903065553681,,
0.166201070404873,-0.127526930784757,-0.00472635458833848,,
0.167173006489112,-0.123651354080709,-0.00463692378336322,,
0.168144942573351,-0.119765692199496,-0.0045336755415053,,
0.16911687865759,-0.115813423325984,-0.00444622066414135,,
0.170088814741829,-0.111771822194293,-0.00433365905616423,,
0.171060750826068,-0.107696290044317,-0.00422157737369444,,
0.172032686910307,-0.103715334444645,-0.00410522254695955,,
0.173004622994546,-0.0996532940205657,-0.0039858937885251,,
0.173976559078785,-0.0954729208510814,-0.00386330595436624,,
0.174948495163024,-0.0913244616644487,-0.00377482496012282,,
0.175920431247263,-0.0872093059739659,-0.00365209254589471,,
0.176892367331502,-0.0829604880687872,-0.00353177180754161,,
0.177864303415741,-0.0788037814483838,-0.00341154343978856,,
0.17883623949998,-0.0745635247380431,-0.0032899194727567,,
0.179808175584219,-0.0704344290915676,-0.00319669745708051,,
0.180780111668458,-0.0662253691959245,-0.003064615531716,,
0.181752047752697,-0.0619252289447274,-0.00293357779573977,,
0.182723983836936,-0.0576057251533731,-0.00281849206072282,,
0.183695919921175,-0.0533104257872153,-0.00270859715179839,,
0.184667856005414,-0.0490769821743373,-0.00258517396612845,,
0.185639792089653,-0.0447195132938323,-0.00248711655036304,,
0.186611728173892,-0.0403366745898807,-0.00236345038985508,,
0.187583664258131,-0.0361222359330828,-0.00221249273324498,,
0.18855560034237,-0.0316982048832876,-0.00208216183316212,,
0.189527536426609,-0.0274016056498507,-0.00200944006645276,,
0.190499472510848,-0.0230089955298012,-0.00188678596642866,,
0.191471408595087,-0.0186714280655689,-0.00172075985372588,,
0.192443344679326,-0.014290875335108,-0.00162843744736874,,
0.193415280763565,-0.00992103530394707,-0.00149139160629774,,
0.194387216847804,-0.00552600474137796,-0.00136636197541584,,
0.195359152932043,-0.00116799798475749,-0.00122380602726668,,
0.196331089016282,0.0032293185513024,-0.00109185261751898,,
0.197303025100522,0.00756601196684711,-0.000979754870597205,,
0.198274961184761,0.0119441666662931,-0.000850644868875872,,
0.199246897269,0.0163074177150395,-0.000716715531516865,,
0.200218833353239,0.020697047104949,-0.000597645812372871,,
0.201190769437478,0.0250106118475283,-0.000446706228271587,,
0.202162705521717,0.0293971708612786,-0.000324708762728054,,
0.203134641605956,0.0337500229717924,-0.000210042711522362,,
0.204106577690195,0.0380586123603035,-0.000134475528730693,,
0.205078513774434,0.0423275333852981,1.73817371984519E-05,,
0.206050449858673,0.046805352046641,0.000168062282009718,,
0.207022385942912,0.0510219422079008,0.000286987421084461,,
0.207994322027151,0.0553434182116785,0.000404852306318926,,
0.20896625811139,0.0596069828870232,0.000519158915408102,,
0.209938194195629,0.0639094539347207,0.000673233075730195,,
0.210910130279868,0.0680487692273903,0.000789391112926641,,
0.211882066364107,0.072369528063014,0.000916332413611443,,
0.212854002448346,0.0765674718522705,0.00103043821704896,,
0.213825938532585,0.0807016100873287,0.00116404626536504,,
0.214797874616824,0.0849642334794713,0.00131512842147963,,
0.215769810701063,0.0891876591496985,0.00141714170858043,,
0.216741746785302,0.0932873509018614,0.00153833595151776,,
0.217713682869541,0.0973386562151361,0.00165771089525224,,
0.21868561895378,0.101482072813186,0.00180490545395218,,
0.219657555038019,0.105464866156252,0.00192969813416566,,
0.220629491122258,0.109565275076569,0.00204286818326693,,
0.221601427206497,0.113544280875322,0.00217001832182895,,
0.222573363290736,0.117598634153251,0.00230495971967182,,
0.223545299374975,0.121512220769459,0.00242381658482493,,
0.224517235459214,0.125443714178011,0.00252181375889515,,
0.225489171543453,0.129252258071167,0.00264882333350114,,
0.226461107627692,0.13319148344888,0.00278288118647696,,
0.227433043711931,0.137206885531446,0.00289306324748306,,
0.22840497979617,0.140842771191535,0.00299661470587509,,
0.229376915880409,0.144645376035916,0.00311055986479136,,
0.230348851964648,0.148441324663368,0.00328208002012076,,
0.231320788048887,0.152009079348829,0.00337830608834411,,
0.232292724133126,0.155751621360316,0.00348012258590646,,
0.233264660217365,0.159474799831645,0.00357450124213576,,
0.234236596301604,0.163033926087754,0.00374533464213656,,
0.235208532385843,0.166626378251517,0.00382088174436301,,
0.236180468470082,0.170087992050191,0.00395701592777575,,
0.237152404554321,0.173698933705424,0.00406003725924764,,
0.23812434063856,0.177081098719541,0.00413672493757522,,
0.239096276722799,0.180448561786502,0.00427478283913008,,
0.240068212807038,0.18370934609056,0.00437436637784705,,
0.241040148891278,0.187054935528824,0.00449630761780817,,
0.242012084975517,0.190300121425533,0.00456383052619902,,
0.242984021059756,0.193463012276574,0.00470807324182143,,
0.243955957143995,0.196749076758059,0.00477653993677452,,
0.244927893228234,0.199766382473845,0.00490576238966067,,
0.245899829312473,0.20286454889899,0.00502529797791595,,
0.246871765396712,0.205888129836123,0.00508918630401389,,
0.247843701480951,0.208771504399154,0.00519966154127127,,
0.24881563756519,0.21179472675221,0.00530187965013695,,
0.249787573649429,0.214743005033176,0.00541065205546909,,
0.250759509733668,0.217506971098572,0.00549379764355074,,
0.251731445817907,0.220221273269305,0.00558796746190238,,
0.252703381902146,0.223019125529976,0.00570903720533567,,
0.253675317986385,0.225694342036318,0.00575133089166524,,
0.254647254070624,0.22834105110854,0.00584457298790664,,
0.255619190154863,0.230652125484705,0.0059478152055954,,
0.256591126239102,0.233460376683608,0.00603255519054979,,
0.257563062323341,0.235825059379282,0.00609305391724924,,
0.25853499840758,0.238067106320627,0.00618927998547258,,
0.259506934491819,0.240458144945959,0.00628683940322228,,
0.260478870576058,0.242891317200337,0.00635419765097867,,
0.261450806660297,0.244923951040723,0.00645207835777128,,
0.262422742744536,0.247213510372268,0.0065336857745617,,
0.263394678828775,0.249282540496469,0.00660763044768897,,
0.264366614913014,0.251582857350324,0.00668851094802081,,
0.265338550997253,0.25344068145318,0.00676807014716552,,
0.266310487081492,0.2553574926367,0.00685139244421995,,
0.267282423165731,0.257165832136933,0.00693344966567011,,
0.26825435924997,0.25911868102019,0.00695753027940382,,
0.269226295334209,0.260684079808265,0.00704492089895936,,
0.270198231418448,0.262560908867202,0.00709827094446336,,
0.271170167502687,0.264083277566039,0.00715284188832888,,
0.272142103586926,0.265719855293396,0.00723232879743918,,
0.273114039671165,0.26741739231384,0.0072940484224997,,
0.274085975755404,0.268819097470772,0.00734095662270207,,
0.275057911839643,0.270096015368914,0.00742029895174312,,
0.276029847923882,0.271391221054981,0.00747623537403941,,
0.277001784008121,0.27272676744971,0.0074930387909613,,
0.27797372009236,0.274067513313554,0.00755211982976078,,
0.278945656176599,0.274797949078372,0.00763098424135089,,
0.279917592260838,0.275969981133995,0.00767283213913439,,
0.280889528345077,0.277014895134328,0.00770961973449857,,
0.281861464429316,0.278088495860819,0.00773745541391646,,
0.282833400513555,0.278936726494926,0.0078171551770172,,
0.283805336597795,0.279598672701039,0.00782123554785663,,
0.284777272682034,0.280694326348265,0.00786205933681705,,
0.285749208766273,0.280813017677747,0.00790774262254512,,
0.286721144850512,0.281669854329701,0.00795726932844376,,
0.287693080934751,0.282381464430477,0.00797679165388754,,
0.28866501701899,0.28266761452391,0.00799069945331388,,
0.289636953103229,0.283077655415942,0.00804772825835443,,
0.290608889187468,0.283585948345067,0.0080444511101212,,
0.291580825271707,0.284035792069644,0.00809073279669104,,
0.292552761355946,0.283975908528788,0.0081274882631508,,
0.293524697440185,0.28423964711741,0.00814311897506759,,
0.294496633524424,0.284280346410148,0.00815748059526644,,
0.295468569608663,0.284155559151357,0.00822467819850159,,
0.296440505692902,0.284276043401224,0.00822426052274627,,
0.297412441777141,0.284066451008226,0.00821203547467997,,
0.29838437786138,0.283827992597032,0.00822046931204534,,
0.299356313945619,0.283538973830982,0.00824801984743795,,
0.300328250029858,0.283323106216638,0.00823727272896679,,
0.301300186114097,0.282760846383926,0.00825518459308539,,
0.302272122198336,0.28253924142435,0.00825985934865336,,
0.303244058282575,0.282066089734769,0.00827311252165597,,
0.304215994366814,0.281338701934606,0.00826413249291846,,
0.305187930451053,0.280773932013355,0.00826307223907818,,
0.306159866535292,0.280233725101378,0.00826970685780548,,
0.307131802619531,0.279083745966489,0.00827725715030381,,
0.30810373870377,0.278317631086012,0.00823058991688352,,
0.309075674788009,0.27742726682286,0.00823190720195743,,
0.310047610872248,0.276345597954636,0.00821407566009968,,
0.311019546956487,0.275571235640389,0.00820978645138259,,
0.311991483040726,0.274209871192117,0.00820287873696923,,
0.312963419124965,0.273120672058277,0.00819849314153931,,
0.313935355209204,0.271948460710615,0.0081807138091512,,
0.314907291293443,0.270733398565753,0.00815015520509776,,
0.315879227377682,0.269329541904359,0.00812993005987384,,
0.316851163461921,0.267881758693535,0.00809065247443019,,
0.31782309954616,0.266267413178951,0.0080941424766543,,
0.318795035630399,0.264861225721057,0.00807611414525811,,
0.319766971714638,0.26329242038425,0.00804288080992599,,
0.320738907798877,0.261639885665467,0.00797233778453599,,
0.321710843883116,0.259676817136016,0.0079656871013567,,
0.322682779967355,0.257963323124146,0.00791656200676139,,
0.323654716051594,0.256215225748847,0.00787461772226505,,
