Time domain (s),Current (AC) (A),Potential (AC) (V),Frequency (Hz),Column 5
0,0.458518286755109,0.0121820336049865,5.0119,0.5
0.00048712189987829,0.459007541585056,0.0122368353624176,,
0.000974243799756579,0.459312790954177,0.0122622187656729,,
0.00146136569963487,0.459383540340665,0.012292536370849,,
0.00194848759951316,0.459509634005293,0.012325726907795,,
0.00243560949939145,0.459465415638738,0.0123655683985726,,
0.00292273139926974,0.459474544591833,0.0123948641276117,,
0.00340985329914803,0.459145902280405,0.0124272838779853,,
0.00389697519902632,0.458629831150741,0.0124718960705019,,
0.00438409709890461,0.45859873565426,0.0124718727133333,,
0.0048712189987829,0.457713227204023,0.0125056004651629,,
0.00535834089866119,0.45700687445828,0.0125115331860526,,
0.00584546279853948,0.456433462091987,0.0125508841762842,,
0.00633258469841777,0.455495747441236,0.012539701931694,,
0.00681970659829606,0.45486613495745,0.0125458915814409,,
0.00730682849817434,0.453558982986128,0.0125509776049597,,
0.00779395039805263,0.452278362034738,0.0125482681733722,,
0.00828107229793092,0.45091415410657,0.0125440463651012,,
0.00876819419780921,0.449608143254385,0.0125337692108043,,
0.0092553160976875,0.448254775958018,0.0125272000070633,,
0.00974243799756579,0.446464930591785,0.0125172323352536,,
0.0102295598974441,0.444765518917152,0.012508823754465,,
0.0107166817973224,0.442677556176404,0.0124811688665383,,
0.0112038036972007,0.441288528907008,0.0124798375079136,,
0.011690925597079,0.438870497455911,0.0124665005644959,,
0.0121780474969572,0.43669124518421,0.0124219818006548,,
0.0126651693968355,0.43488200079265,0.0123876467624351,,
0.0131522912967138,0.432312485776128,0.0123495979343669,,
0.0136394131965921,0.429950083882955,0.0123121096783514,,
0.0141265350964704,0.427432204507378,0.0122809512150961,,
0.0146136569963487,0.424477561782151,0.0122351711641362,,
0.015100778896227,0.42178452061906,0.012216929215259,,
0.0155879007961053,0.419029288463007,0.0121623902259778,,
0.0160750226959836,0.41604012688389,0.012112055527091,,
0.0165621445958618,0.412866674564162,0.0120727921262422,,
0.0170492664957401,0.410052389492775,0.0120311229370014,,
0.0175363883956184,0.406657845340272,0.0119387453341719,,
0.0180235102954967,0.403507500683067,0.0118599440857405,,
0.018510632195375,0.399995706539247,0.0118520201662058,,
0.0189977540952533,0.396674479291291,0.0117764188499079,,
0.0194848759951316,0.392861714975113,0.0117240228808697,,
0.0199719978950099,0.389052659296131,0.0116400772159975,,
0.0204591197948882,0.385396798861277,0.0115484295246948,,
0.0209462416947665,0.381606286368269,0.0114811959141399,,
0.0214333635946447,0.377561304307732,0.0114131623205518,,
0.021920485494523,0.373664382455208,0.0113379697547087,,
0.0224076073944013,0.369277920492952,0.0112636530826977,,
0.0228947292942796,0.3651590509683,0.0111507912427808,,
0.0233818511941579,0.360801116984467,0.0110708396537835,,
0.0238689730940362,0.356609215835054,0.0109622054614293,,
0.0243560949939145,0.352072126146727,0.0108633579228266,,
0.0248432168937928,0.347450308362485,0.0107905069131613,,
0.0253303387936711,0.342608539864605,0.0107024971009082,,
0.0258174606935494,0.338082005528294,0.0105670021643687,,
0.0263045825934276,0.333438791760235,0.0104729253275049,,
0.0267917044933059,0.328314025716404,0.0103522329967287,,
0.0272788263931842,0.323626878861574,0.0102417827844961,,
0.0277659482930625,0.318435357348233,0.0101383747586739,,
0.0282530701929408,0.313372497017578,0.0100059629684233,,
0.0287401920928191,0.308182401903158,0.00990253158543242,,
0.0292273139926974,0.302750389531715,0.00977881450128892,,
0.0297144358925757,0.297383420951076,0.00967756117429408,,
0.030201557792454,0.2922201064764,0.00950445535660238,,
0.0306886796923322,0.286720518456069,0.00942090676360108,,
0.0311758015922105,0.281159274342371,0.0093200329905998,,
0.0316629234920888,0.275696130814474,0.00916921575129015,,
0.0321500453919671,0.269833381628823,0.00902629323505399,,
0.0326371672918454,0.264215937397634,0.00892583405180014,,
0.0331242891917237,0.258125249664386,0.00877401829352165,,
0.033611411091602,0.252333178545277,0.00862805934533428,,
0.0340985329914803,0.246508050631171,0.00850209413368841,,
0.0345856548913586,0.240374249990532,0.00832597524121415,,
0.0350727767912369,0.234412152120025,0.00818510815583773,,
0.0355598986911151,0.228226715838441,0.00803492156008723,,
0.0360470205909934,0.222402479423661,0.00789382090302171,,
0.0365341424908717,0.215859587572442,0.00775148231600742,,
0.03702126439075,0.209594843510844,0.00760339786545394,,
0.0375083862906283,0.203436508808762,0.00746082570675055,,
0.0379955081905066,0.197132396136941,0.00728069522052532,,
0.0384826300903849,0.190574348797186,0.00713296696679722,,
0.0389697519902632,0.1841732766587,0.00699989533652623,,
0.0394568738901415,0.177786432849454,0.00681280441398169,,
0.0399439957900198,0.171286618245653,0.0066431379394043,,
0.040431117689898,0.164691234914138,0.00649283455780969,,
0.0409182395897763,0.158029096113113,0.00628972061742905,,
0.0414053614896546,0.151361251716404,0.00615462275276002,,
0.0418924833895329,0.144645444655971,0.00598796935296519,,
0.0423796052894112,0.138017289809243,0.00581057165549659,,
0.0428667271892895,0.131199352586058,0.00561245614925143,,
0.0433538490891678,0.12442966330638,0.00546584320033583,,
0.0438409709890461,0.117620355796668,0.00527977999322093,,
0.0443280928889244,0.110753100830785,0.00510349760056483,,
0.0448152147888026,0.103934058148436,0.00494002661502702,,
0.0453023366886809,0.0969213104925976,0.00473228795521274,,
0.0457894585885592,0.0900700311946312,0.00458418014749018,,
0.0462765804884375,0.0830935140713897,0.00442196460977851,,
0.0467637023883158,0.0761840376974413,0.00422142579726437,,
0.0472508242881941,0.0691207955197951,0.00401989430507399,,
0.0477379461880724,0.0620464274305641,0.00385998528778675,,
0.0482250680879507,0.0552122649196513,0.0036883392931486,,
0.048712189987829,0.048195523346834,0.00348877564243422,,
0.0491993118877073,0.0410909156004751,0.00331144801647199,,
0.0496864337875855,0.034080771122668,0.00315716807687938,,
0.0501735556874638,0.0270599999728984,0.00293742967156474,,
0.0506606775873421,0.0200184390588534,0.00276682891023317,,
0.0511477994872204,0.01288787085213,0.00255626403298725,,
0.0516349213870987,0.0058392136034524,0.00238671434425397,,
0.052122043286977,-0.00123376374683045,0.00220894293208351,,
0.0526091651868553,-0.00827988913742305,0.0019954584087305,,
0.0530962870867336,-0.0154612371457387,0.00181710306733818,,
0.0535834089866119,-0.0224717025633031,0.00161833356036523,,
0.0540705308864902,-0.0295871509414625,0.00143761914491858,,
0.0545576527863684,-0.0366232915396072,0.0012365139210595,,
0.0550447746862467,-0.043691098193801,0.00104634569151818,,
0.055531896586125,-0.0507158276005766,0.000872311426364458,,
0.0560190184860033,-0.0577408422871365,0.000654289772961114,,
0.0565061403858816,-0.0647966671903928,0.000483922583317753,,
0.0569932622857599,-0.0717326745842743,0.000270321274120633,,
0.0574803841856382,-0.0787054830703208,6.35869725673643E-05,,
0.0579675060855165,-0.0856791473957201,-0.000144034901402801,,
0.0584546279853948,-0.0926881864143633,-0.000302837372815556,,
0.058941749885273,-0.0995517327430514,-0.000488786713732203,,
0.0594288717851513,-0.106614760960859,-0.000689331365538504,,
0.0599159936850296,-0.11332019096914,-0.000881957937102218,,
0.0604031155849079,-0.120114414310262,-0.00107325023039495,,
0.0608902374847862,-0.126951786218747,-0.0012543646373584,,
0.0613773593846645,-0.133795576922377,-0.00144495913523146,,
0.0618644812845428,-0.140459498722054,-0.00161740511290276,,
0.0623516031844211,-0.147302433586331,-0.00183350271952198,,
0.0628387250842994,-0.153796542594447,-0.00203113064486704,,
0.0633258469841776,-0.160544051370901,-0.00221763763819016,,
0.0638129688840559,-0.167187575666005,-0.00240570956182706,,
0.0643000907839342,-0.173716774087581,-0.00259326470810262,,
0.0647872126838125,-0.180046347980144,-0.00280677550827058,,
0.0652743345836908,-0.186623972645092,-0.00294133615805592,,
0.0657614564835691,-0.193125142327867,-0.00314430995542336,,
0.0662485783834474,-0.199489805633891,-0.00333936275290192,,
0.0667357002833257,-0.205704911013034,-0.00352073700836897,,
0.067222822183204,-0.211982492664922,-0.00369203556512021,,
0.0677099440830823,-0.218251230643499,-0.00387186240814996,,
0.0681970659829605,-0.224578736257627,-0.00404720467475972,,
0.0686841878828388,-0.230627166922836,-0.00423838602150051,,
0.0691713097827171,-0.23681295980415,-0.00441839680223532,,
0.0696584316825954,-0.242632382122571,-0.0045863348463171,,
0.0701455535824737,-0.248747568257289,-0.00477398342126811,,
0.070632675482352,-0.254508864819675,-0.00494617538972841,,
0.0711197973822303,-0.260420717788186,-0.0051225920861051,,
0.0716069192821086,-0.266225020278044,-0.00530031678393827,,
0.0720940411819869,-0.272149996116629,-0.00547205912689774,,
0.0725811630818652,-0.277619451459752,-0.00565118817450827,,
0.0730682849817434,-0.283152381554865,-0.0058225363652431,,
0.0735554068816217,-0.288628255693133,-0.00598096804160031,,
0.0740425287815,-0.294196774441328,-0.00620131957259717,,
0.0745296506813783,-0.299711731910034,-0.00633470944429382,,
0.0750167725812566,-0.305217631745592,-0.00648324060070138,,
0.0755038944811349,-0.31032963151908,-0.00666428201651215,,
0.0759910163810132,-0.315300845719052,-0.00679601644886585,,
0.0764781382808915,-0.320447293026485,-0.00697974393909506,,
0.0769652601807698,-0.325493036570087,-0.00713093489310612,,
0.0774523820806481,-0.330468886566553,-0.00729193585803767,,
0.0779395039805263,-0.335666398955362,-0.00744289324036052,,
0.0784266258804046,-0.340195215529947,-0.00760384749095433,,
0.0789137477802829,-0.344758550958422,-0.00773359656395467,,
0.0794008696801612,-0.349536416784636,-0.0079017681797251,,
0.0798879915800395,-0.354040414017992,-0.00805506127893363,,
0.0803751134799178,-0.358578359545672,-0.00819548749774812,,
0.0808622353797961,-0.362758849503717,-0.00835842418804855,,
0.0813493572796744,-0.367121419284043,-0.00849980513114001,,
0.0818364791795527,-0.371490978419084,-0.00862653820971193,,
0.0823236010794309,-0.375398455623624,-0.00876603306141854,,
0.0828107229793092,-0.379499637801654,-0.00888940270767513,,
0.0832978448791875,-0.383151789599312,-0.00903732365804633,,
0.0837849667790658,-0.387234499911314,-0.00915742622030935,,
0.0842720886789441,-0.390926234279033,-0.00928334471761749,,
0.0847592105788224,-0.394822300292205,-0.00942453588371173,,
0.0852463324787007,-0.39840741134057,-0.00954240199705669,,
0.085733454378579,-0.401755383568298,-0.00966455999017857,,
0.0862205762784573,-0.404950374511735,-0.0097994009259903,,
0.0867076981783356,-0.408451827263376,-0.00989310696779855,,
0.0871948200782138,-0.411674062426206,-0.0100266632593229,,
0.0876819419780921,-0.414826118762117,-0.0101293180164492,,
0.0881690638779704,-0.417853721792159,-0.0102521533674684,,
0.0886561857778487,-0.420694323923641,-0.0103588722719761,,
0.089143307677727,-0.423694040854775,-0.0104521841615597,,
0.0896304295776053,-0.425638793143842,-0.0105531572025286,,
0.0901175514774836,-0.428643645111093,-0.0106570966039423,,
0.0906046733773619,-0.431550931392138,-0.0107687438710786,,
0.0910917952772402,-0.433735603979739,-0.010889126719368,,
0.0915789171771185,-0.435993236872155,-0.0109644506692854,,
0.0920660390769967,-0.438228403981564,-0.0110384286623479,,
0.092553160976875,-0.440003842718694,-0.0111315274177657,,
0.0930402828767533,-0.442470870972732,-0.0112196102211719,,
0.0935274047766316,-0.444315276097698,-0.0113016639553662,,
0.0940145266765099,-0.446075095766641,-0.0114151301620278,,
0.0945016485763882,-0.447605051249443,-0.0114615642137155,,
0.0949887704762665,-0.449245695288526,-0.0115507185272428,,
0.0954758923761448,-0.450870078379908,-0.0116374436952085,,
0.0959630142760231,-0.452018614791201,-0.0116716385904154,,
0.0964501361759014,-0.453671739820843,-0.0117534791904443,,
0.0969372580757796,-0.45479324597258,-0.0118110137366312,,
0.0974243799756579,-0.455471070739901,-0.0118851698281062,,
0.0979115018755362,-0.456322060336246,-0.0119378168867099,,
0.0983986237754145,-0.457359266311745,-0.0120119992549999,,
0.0988857456752928,-0.457743609501044,-0.0120471517941296,,
0.0993728675751711,-0.458457950080745,-0.0120877699107718,,
0.0998599894750494,-0.459030292647848,-0.0121253983098004,,
0.100347111374928,-0.45948980706029,-0.0121947924584744,,
0.100834233274806,-0.459983341087,-0.0122579736002328,,
0.101321355174684,-0.460030126971613,-0.0122949246413646,,
0.101808477074563,-0.460149944480988,-0.0123057156533766,,
0.102295598974441,-0.459690644028385,-0.0123795476641337,,
0.102782720874319,-0.460015649022564,-0.0123758572314543,,
0.103269842774197,-0.45992057953447,-0.012405801121929,,
0.103756964674076,-0.459345740769256,-0.0124430324490867,,
0.104244086573954,-0.458829384359807,-0.0124487753929796,,
0.104731208473832,-0.458216104143667,-0.0124739544210075,,
0.105218330373711,-0.457546409850197,-0.0124835337798848,,
0.105705452273589,-0.456652129046596,-0.0124981524479435,,
0.106192574173467,-0.455810268403345,-0.0125338889162947,,
0.106679696073345,-0.455064190447649,-0.0125138513850613,,
0.107166817973224,-0.453725158460439,-0.0125518038648078,,
0.107653939873102,-0.452919528349786,-0.0125342159166584,,
0.10814106177298,-0.451256275887803,-0.0125215358936153,,
0.108628183672859,-0.450091549848755,-0.0125155097440501,,
0.109115305572737,-0.448037250122546,-0.012534685979682,,
0.109602427472615,-0.446669048277399,-0.0125044384460118,,
0.110089549372493,-0.444939396945638,-0.0124988093683176,,
0.110576671272372,-0.443017752319093,-0.0124725763480451,,
0.11106379317225,-0.440999397845695,-0.0124392485877323,,
0.111550915072128,-0.438921348577449,-0.0124336165903913,,
0.112038036972007,-0.436643175540568,-0.0124100988409985,,
0.112525158871885,-0.434324421454381,-0.0123695245190478,,
0.113012280771763,-0.43220051346082,-0.0123582926404735,,
0.113499402671641,-0.430109697922229,-0.0123211313848222,,
0.11398652457152,-0.427206120278379,-0.0122922152097771,,
0.114473646471398,-0.424405885236365,-0.0122657982518,,
0.114960768371276,-0.421987497185537,-0.0121835343030856,,
0.115447890271155,-0.418955543638785,-0.0121377308949571,,
0.115935012171033,-0.415975225732978,-0.0120941026231782,,
0.116422134070911,-0.413197741753756,-0.012057031876556,,
0.11690925597079,-0.409534178764729,-0.0120045483181341,,
0.117396377870668,-0.406393818899971,-0.0119354373751324,,
0.117883499770546,-0.403187060165435,-0.0118879026168623,,
0.118370621670424,-0.399709713555561,-0.011830984116004,,
0.118857743570303,-0.396239570260239,-0.0117661650527796,,
0.119344865470181,-0.392285307171085,-0.0116774749629833,,
0.119831987370059,-0.388701408561803,-0.0116024517366147,,
0.120319109269938,-0.384771322934362,-0.0115476353809534,,
0.120806231169816,-0.38113172344721,-0.0114999166849787,,
0.121293353069694,-0.377062777884797,-0.0113788564787929,,
0.121780474969572,-0.3728868524033,-0.0113096024731316,,
0.122267596869451,-0.368792802219876,-0.0112142351526887,,
0.122754718769329,-0.36431954388327,-0.011137693710344,,
0.123241840669207,-0.360056964667314,-0.0110679725613059,,
0.123728962569086,-0.355503614031287,-0.010972418383512,,
0.124216084468964,-0.351114299271189,-0.0109070416678811,,
0.124703206368842,-0.346414100866231,-0.0107531646394512,,
0.12519032826872,-0.341910888152281,-0.0106682613306561,,
0.125677450168599,-0.336923626964446,-0.0105573410554003,,
0.126164572068477,-0.332276704559192,-0.0104565753093047,,
0.126651693968355,-0.327372745068351,-0.0103596226210256,,
0.127138815868234,-0.322234856154444,-0.0102472717191771,,
0.127625937768112,-0.317271558468484,-0.0101444768190375,,
0.12811305966799,-0.312222106287688,-0.0100300266916382,,
0.128600181567868,-0.306965826263328,-0.00992828286409697,,
0.129087303467747,-0.301537237249295,-0.00978015169920576,,
0.129574425367625,-0.2960139353469,-0.00965285804858151,,
0.130061547267503,-0.290782759943552,-0.00954763108323453,,
0.130548669167382,-0.285179294421789,-0.00943472252897948,,
0.13103579106726,-0.27974756733013,-0.00931034560481603,,
0.131522912967138,-0.274029419335108,-0.00918856132639556,,
0.132010034867016,-0.268245870949553,-0.00904008272361789,,
0.132497156766895,-0.26262450412133,-0.00888930927899967,,
0.132984278666773,-0.256744031929084,-0.00873333010537269,,
0.133471400566651,-0.250828684283216,-0.00862443898416121,,
0.13395852246653,-0.244910341199614,-0.00849676869918881,,
0.134445644366408,-0.238918324611736,-0.00832081914618898,,
0.134932766266286,-0.23288665413385,-0.00817247776677821,,
0.135419888166165,-0.226774820036597,-0.00802904431247331,,
0.135907010066043,-0.220784515127424,-0.00789303259857288,,
0.136394131965921,-0.214375419495008,-0.00773448413637157,,
0.136881253865799,-0.208003980794109,-0.0075762159601962,,
0.137368375765678,-0.20181376607614,-0.00743462772223102,,
0.137855497665556,-0.195502949329389,-0.00728201198091938,,
0.138342619565434,-0.189156401289664,-0.0071290896767664,,
0.138829741465313,-0.18250510312044,-0.00698376137213819,,
0.139316863365191,-0.17612104078909,-0.00680940010662079,,
0.139803985265069,-0.169424169174335,-0.0066420489114063,,
0.140291107164947,-0.16304417207991,-0.00648426831613103,,
0.140778229064826,-0.156356286778359,-0.00632819571382859,,
0.141265350964704,-0.149641157257414,-0.00615500230675403,,
0.141752472864582,-0.142922818338897,-0.00599201890211587,,
0.142239594764461,-0.136213893653259,-0.00579826826680074,,
0.142726716664339,-0.129496981133663,-0.00567501540638871,,
0.143213838564217,-0.122554982864313,-0.0054636534657555,,
0.143700960464095,-0.115812395164137,-0.00530589914729518,,
0.144188082363974,-0.108997631678551,-0.00511000549173746,,
0.144675204263852,-0.102070967197603,-0.00492188393411697,,
0.14516232616373,-0.0951860962050443,-0.00475719253650642,,
0.145649448063609,-0.0882951630170705,-0.0045767817642548,,
0.146136569963487,-0.0812362000361877,-0.00440080885408589,,
0.146623691863365,-0.0743526841226038,-0.00422376151415005,,
0.147110813763243,-0.0672763190748833,-0.00403744137817741,,
0.147597935663122,-0.06031520705999,-0.00385948310865603,,
0.148085057563,-0.0533632239981919,-0.00370196528153022,,
0.148572179462878,-0.0463208072447942,-0.00346603159925962,,
0.149059301362757,-0.0392375954822523,-0.00328393619120426,,
0.149546423262635,-0.0322174305520242,-0.00312275128856809,,
0.150033545162513,-0.0251413507840879,-0.0029240752102706,,
0.150520667062392,-0.0180447308716874,-0.00273682078754378,,
0.15100778896227,-0.0110359771328283,-0.00258794219324932,,
0.151494910862148,-0.00392908714819564,-0.00237086066589232,,
0.151982032762026,0.00315498045369898,-0.00218222817020308,,
0.152469154661905,0.0102019616836443,-0.00198878701737559,,
0.152956276561783,0.0173807421739018,-0.00177235365145423,,
0.153443398461661,0.0244146005337727,-0.00162132619762456,,
0.15393052036154,0.0314752395333878,-0.00142505882736543,,
0.154417642261418,0.0385071365947422,-0.00123357967672177,,
0.154904764161296,0.045527016245186,-0.00101892145563376,,
0.155391886061174,0.052530634947929,-0.000829194092654362,,
0.155879007961053,0.0595254099773609,-0.000667655912839127,,
0.156366129860931,0.0665221819652825,-0.000449059089152382,,
0.156853251760809,0.0735098250001088,-0.000256196026254152,,
0.157340373660688,0.0804489704716167,-8.40536917778856E-05,,
0.157827495560566,0.0875492633612392,0.000118990177095935,,
0.158314617460444,0.0944045722361577,0.000278823283584639,,
0.158801739360322,0.10129407902521,0.000525778629909546,,
0.159288861260201,0.10815905175282,0.000677063012596513,,
0.159775983160079,0.115043673125567,0.000890530018073044,,
0.160263105059957,0.121854763633931,0.00108430109091051,,
0.160750226959836,0.128696949638775,0.00127724882354618,,
0.161237348859714,0.135507683547409,0.00144798972789095,,
0.161724470759592,0.142165828431454,0.00166803761569279,,
0.16221159265947,0.148889302386087,0.00185017681843958,,
0.162698714559349,0.155560284860423,0.00204230705016517,,
