Time domain (s),Current (AC) (A),Potential (AC) (V),Frequency (Hz),Column 5
0,0.236771161054901,0.00759271504692816,1.9953,0.3
0.00122357853455621,0.234347132694486,0.00751771122343392,,
0.00244715706911241,0.231957349113423,0.00744520948214111,,
0.00367073560366862,0.229398134555986,0.00739245073321992,,
0.00489431413822483,0.226771506192075,0.00732108274792465,,
0.00611789267278103,0.224167647917052,0.00727225304996004,,
0.00734147120733724,0.221481315304324,0.00719564633005554,,
0.00856504974189345,0.218647425343916,0.00712170295936909,,
0.00978862827644966,0.215819989896894,0.00706386185597596,,
0.0110122068110059,0.213082917637272,0.00699352988909219,,
0.0122357853455621,0.210146293338808,0.00691860425566659,,
0.0134593638801183,0.207196401429495,0.00683849853018303,,
0.0146829424146745,0.204176406333133,0.00677742719957264,,
0.0159065209492307,0.201115532651994,0.00670164147539065,,
0.0171300994837869,0.198044260032622,0.00660865393607279,,
0.0183536780183431,0.194931570952359,0.00652088558384678,,
0.0195772565528993,0.191606600098521,0.00644771922696918,,
0.0208008350874555,0.188438330486325,0.00635205367779523,,
0.0220244136220117,0.18508807945506,0.00627110252219287,,
0.0232479921565679,0.181859029841815,0.00618478557311919,,
0.0244715706911241,0.178522561886009,0.00610819840073162,,
0.0256951492256803,0.17499967503318,0.0059951355612502,,
0.0269187277602366,0.17154059373455,0.00593422549765643,,
0.0281423062947928,0.168048343408799,0.00584411144336672,,
0.029365884829349,0.164564519808857,0.00573974724903881,,
0.0305894633639052,0.1609795530877,0.00563659500077751,,
0.0318130418984614,0.157335644108889,0.00554137904449892,,
0.0330366204330176,0.153779745109473,0.0054371565696707,,
0.0342601989675738,0.150099776019421,0.00537113483032936,,
0.03548377750213,0.146418193301022,0.00524224338879531,,
0.0367073560366862,0.142575964916134,0.00514512643646903,,
0.0379309345712424,0.138670446441658,0.00504265835130946,,
0.0391545131057986,0.1348651522167,0.00495718194547523,,
0.0403780916403548,0.131083883124899,0.00483416941973935,,
0.041601670174911,0.127196831730388,0.0047154964428211,,
0.0428252487094672,0.123292568300182,0.00458888717392014,,
0.0440488272440235,0.119259214602261,0.00450692932118191,,
0.0452724057785797,0.115300267100314,0.00442385237308418,,
0.0464959843131359,0.111291834995744,0.00427761251003567,,
0.0477195628476921,0.107289476408978,0.00418161953994867,,
0.0489431413822483,0.103262778927986,0.00406776502602035,,
0.0501667199168045,0.0992054000969074,0.0039434867985455,,
0.0513902984513607,0.0949432697578706,0.00384410233422372,,
0.0526138769859169,0.090860790041403,0.00372056691240275,,
0.0538374555204731,0.0868023354580934,0.00360367275954987,,
0.0550610340550293,0.0826201693682242,0.00347116014045445,,
0.0562846125895855,0.0783831175030715,0.00334210743190377,,
0.0575081911241417,0.0741970293998602,0.00324558667885189,,
0.0587317696586979,0.069946732335364,0.003121161844998,,
0.0599553481932541,0.0657783717324586,0.00300866588351489,,
0.0611789267278103,0.0614389441133269,0.00291795074307144,,
0.0624025052623666,0.0572121567173779,0.00277476029270618,,
0.0636260837969228,0.0528718550495586,0.00263702848651892,,
0.064849662331479,0.0485871339136718,0.00252206953786871,,
0.0660732408660352,0.0442882711182489,0.0023890291358093,,
0.0672968194005914,0.0398984624363009,0.00230814150963754,,
0.0685203979351476,0.0356160496854097,0.00215999576366244,,
0.0697439764697038,0.0312976440577912,0.00203758432407986,,
0.07096755500426,0.0269259886947405,0.0019012208440965,,
0.0721911335388162,0.0226116619609977,0.00180311185527238,,
0.0734147120733724,0.0182408806466347,0.00164729859567503,,
0.0746382906079286,0.0138840616997692,0.00152727195319136,,
0.0758618691424848,0.00956478202346305,0.00138352439858558,,
0.077085447677041,0.00513842017716743,0.00129455876093143,,
0.0783090262115972,0.000746997866872972,0.00114823093405558,,
0.0795326047461535,-0.00360961937644918,0.00100879849387159,,
0.0807561832807097,-0.00796574356666549,0.000893194477153969,,
0.0819797618152659,-0.0124331184667662,0.000736423389214202,,
0.0832033403498221,-0.016751367213851,0.000623521816749406,,
0.0844269188843783,-0.0211488630419494,0.000499487933239617,,
0.0856504974189345,-0.0254531270100318,0.000356380559822345,,
0.0868740759534907,-0.0298445269088215,0.00024967066343029,,
0.0880976544880469,-0.0342144117629921,9.966301644182E-05,,
0.0893212330226031,-0.0384881960845308,-1.50027194503188E-05,,
0.0905448115571593,-0.0428202503185795,-0.000149025384249324,,
0.0917683900917155,-0.0471454914551656,-0.000274417820204764,,
0.0929919686262717,-0.0514456317063627,-0.000413127002251823,,
0.0942155471608279,-0.0557223295235269,-0.000527089027524852,,
0.0954391256953841,-0.0600584626514514,-0.00064435213976477,,
0.0966627042299403,-0.0643516105131473,-0.000795965126603626,,
0.0978862827644966,-0.0686023109847301,-0.000912800636904798,,
0.0991098612990528,-0.0727953690659378,-0.00103411252864483,,
0.100333439833609,-0.0769994536075127,-0.00118466506267545,,
0.101557018368165,-0.0812009832375391,-0.00129419224498362,,
0.102780596902721,-0.0854435259213706,-0.00144064224384222,,
0.104004175437278,-0.0894903265221782,-0.00155079250326118,,
0.105227753971834,-0.0937594492507162,-0.00172018884387226,,
0.10645133250639,-0.0978288406483738,-0.00181366751455947,,
0.107674911040946,-0.101864704434833,-0.00193767696367297,,
0.108898489575502,-0.105996668753925,-0.0020667296722241,,
0.110122068110059,-0.109965073910902,-0.00217551160543916,,
0.111345646644615,-0.11392980358109,-0.0022933049440832,,
0.112569225179171,-0.118006187368248,-0.00241217339617306,,
0.113792803713727,-0.122007223676231,-0.00257162249396892,,
0.115016382248283,-0.125953172505387,-0.00267925356710919,,
0.11623996078284,-0.129703917127634,-0.00278621513778488,,
0.117463539317396,-0.133663402505696,-0.00290084177864269,,
0.118687117851952,-0.137511547527854,-0.00307991414026709,,
0.119910696386508,-0.141293533787809,-0.00317481977971035,,
0.121134274921064,-0.145101338101306,-0.00326767048640786,,
0.122357853455621,-0.14877646630632,-0.0033862677166967,,
0.123581431990177,-0.152536041061463,-0.00351158440602273,,
0.124805010524733,-0.156194315814858,-0.00362650425963862,,
0.126028589059289,-0.159741967380503,-0.0037560065610851,,
0.127252167593846,-0.163312433858046,-0.00386075926231699,,
0.128475746128402,-0.166997736886244,-0.00398455613218118,,
0.129699324662958,-0.170411591768165,-0.00410590711895553,,
0.130922903197514,-0.173849920013339,-0.00420427022550296,,
0.13214648173207,-0.177300395294122,-0.00432247406200847,,
0.133370060266627,-0.180989463455128,-0.0044153052211886,,
0.134593638801183,-0.184123577933991,-0.00453994019085258,,
0.135817217335739,-0.18740565316762,-0.0046346894501581,,
0.137040795870295,-0.190710543313147,-0.00475449373963377,,
0.138264374404851,-0.19411458195596,-0.00485485069293601,,
0.139487952939408,-0.197110193335087,-0.00498310195328155,,
0.140711531473964,-0.200371336223222,-0.00506873962613241,,
0.14193511000852,-0.203484921763678,-0.00516573440647639,,
0.143158688543076,-0.206419932433795,-0.00526468393853996,,
0.144382267077632,-0.209315857439521,-0.00537373953699571,,
0.145605845612189,-0.212138631293543,-0.00549962554776018,,
0.146829424146745,-0.215099101433126,-0.00557986810586408,,
0.148053002681301,-0.217846751923019,-0.00566667862974723,,
0.149276581215857,-0.22074446984913,-0.00575194489977093,,
0.150500159750413,-0.22343546405486,-0.00585243868569352,,
0.15172373828497,-0.226188672597946,-0.00596663528117292,,
0.152947316819526,-0.228886614370167,-0.0060352666140604,,
0.154170895354082,-0.231311628836794,-0.00613660094322244,,
0.155394473888638,-0.233987696980319,-0.00624518495782578,,
0.156618052423194,-0.236635481804772,-0.00628766171270012,,
0.157841630957751,-0.238791289275602,-0.00638917196951683,,
0.159065209492307,-0.24122683714949,-0.00646644819188591,,
0.160288788026863,-0.243438001037204,-0.00654099997904511,,
0.161512366561419,-0.245770814573036,-0.00663795566435432,,
0.162735945095976,-0.247729893854631,-0.0067120603020574,,
0.163959523630532,-0.250054056549605,-0.00679116910416377,,
0.165183102165088,-0.252059438000141,-0.00688071383701505,,
0.166406680699644,-0.253968718918044,-0.00693492154564845,,
0.1676302592342,-0.255942186385728,-0.00699233016022394,,
0.168853837768757,-0.257998666067234,-0.00708151082056707,,
0.170077416303313,-0.259564916492492,-0.00716034351399308,,
0.171300994837869,-0.261269670017485,-0.00722387294489124,,
0.172524573372425,-0.263056628942128,-0.00725812019502481,,
0.173748151906981,-0.264715483705267,-0.00736795769416831,,
0.174971730441538,-0.266342558954584,-0.00740801055691032,,
0.176195308976094,-0.268022166771179,-0.00747326016932215,,
0.17741888751065,-0.269468694937734,-0.00752961566140797,,
0.178642466045206,-0.270622439205431,-0.00756376273051584,,
0.179866044579762,-0.271988106662627,-0.00765540149114718,,
0.181089623114319,-0.273244719737409,-0.00768994439747805,,
0.182313201648875,-0.274404604757425,-0.00771838847844286,,
0.183536780183431,-0.275584660131771,-0.00777827962770239,,
0.184760358717987,-0.276532084086173,-0.00784511503244723,,
0.185983937252543,-0.277705371186066,-0.00792883704861236,,
0.1872075157871,-0.27877986837275,-0.00793293958378483,,
0.188431094321656,-0.279433611968102,-0.00798616747311875,,
0.189654672856212,-0.280300623443241,-0.00805055699477375,,
0.190878251390768,-0.281121780979535,-0.00805618667972752,,
0.192101829925324,-0.281968577277334,-0.00810593511100022,,
0.193325408459881,-0.282344194097975,-0.00811899285248918,,
0.194548986994437,-0.2828976686208,-0.00813705475838145,,
0.195772565528993,-0.283427476594545,-0.00820746491533386,,
0.196996144063549,-0.283909234301974,-0.00819534545467038,,
0.198219722598106,-0.283919633240206,-0.00823928582989497,,
0.199443301132662,-0.284166652846239,-0.00827408285395004,,
0.200666879667218,-0.284719768784987,-0.00827478656456915,,
0.201890458201774,-0.284759616440542,-0.00832801445390308,,
0.20311403673633,-0.284563291658393,-0.00833350486279638,,
0.204337615270887,-0.284710490421995,-0.00834146314573658,,
0.205561193805443,-0.284551996259968,-0.0083775698534434,,
0.206784772339999,-0.284578890065742,-0.00836521582257355,,
0.208008350874555,-0.28435674723005,-0.00840624361773568,,
0.209231929409111,-0.284117930234778,-0.00840511230517738,,
0.210455507943668,-0.283606051464883,-0.00838970641818459,,
0.211679086478224,-0.283622725624463,-0.00840718189856116,,
0.21290266501278,-0.282855534991755,-0.00840775121999959,,
0.214126243547336,-0.282142849138748,-0.00841447312247645,,
0.215349822081892,-0.281771356034992,-0.00842894072864375,,
0.216573400616449,-0.281334600629225,-0.00842282235576031,,
0.217796979151005,-0.280293989637817,-0.00840937122048757,,
0.219020557685561,-0.279566063961538,-0.00843019176974469,,
0.220244136220117,-0.278759787664439,-0.00841042922985569,,
0.221467714754673,-0.277815097913623,-0.00839218895286908,,
0.22269129328923,-0.276755661258173,-0.00839668732526455,,
0.223914871823786,-0.275675023319171,-0.00836185120617561,,
0.225138450358342,-0.274696850780167,-0.00834883255972052,,
0.226362028892898,-0.273424235890949,-0.00834369156269732,,
0.227585607427454,-0.271867936173827,-0.00829859544051814,,
0.228809185962011,-0.270872193015051,-0.00827537299008485,,
0.230032764496567,-0.269253365199505,-0.0082560600430921,,
0.231256343031123,-0.267949374203551,-0.00824170972202776,,
0.232479921565679,-0.266734670642766,-0.00822184944455318,,
0.233703500100236,-0.264757796626351,-0.00816054843061576,,
0.234927078634792,-0.263211761378433,-0.00814444371988277,,
0.236150657169348,-0.261440176746092,-0.0081228999124896,,
0.237374235703904,-0.259896293002635,-0.00806484622984671,,
0.23859781423846,-0.258071100050784,-0.00802434377420935,,
0.239821392773017,-0.256106776477064,-0.00800725924417689,,
0.241044971307573,-0.254173829010079,-0.00798001000520099,,
0.242268549842129,-0.252226493357006,-0.00791941270188268,,
0.243492128376685,-0.250079516019071,-0.00787748572092939,,
0.244715706911241,-0.24801299598341,-0.00782707023063223,,
0.245939285445798,-0.245677941297097,-0.00775652324105947,,
0.247162863980354,-0.243539883738078,-0.00772780793829364,,
0.24838644251491,-0.241245304229454,-0.00768941661451361,,
0.249610021049466,-0.239008904987322,-0.00762258120976922,,
0.250833599584022,-0.236587610830494,-0.00756194725485582,,
0.252057178118579,-0.233970305652585,-0.00749837872892334,,
0.253280756653135,-0.231693476055772,-0.00745760260804529,,
0.254504335187691,-0.228938295300263,-0.00737522937056667,,
0.255727913722247,-0.226378184282632,-0.00732233378902469,,
0.256951492256803,-0.223503774321525,-0.00723841629768751,,
0.25817507079136,-0.220794671619908,-0.00719445637494553,,
0.259398649325916,-0.218206815159321,-0.0071253754491627,,
0.260622227860472,-0.215347734667505,-0.00704747370624359,,
0.261845806395028,-0.212486816432295,-0.00697376246232384,,
0.263069384929584,-0.209658663817119,-0.00692391629346512,,
0.264292963464141,-0.206641044340266,-0.00681157671212018,,
0.265516541998697,-0.203580125836117,-0.00673186193698072,,
0.266740120533253,-0.200539646624357,-0.00670390898738527,,
0.267963699067809,-0.197339687144357,-0.00661737212874325,,
0.269187277602366,-0.194178992620788,-0.00652416956673596,,
0.270410856136922,-0.191012291813929,-0.00642818881384732,,
0.271634434671478,-0.1874675089209,-0.00634935612042131,,
0.272858013206034,-0.18435195116802,-0.00628017501361278,,
0.27408159174059,-0.181063511067025,-0.00618859733897281,,
0.275305170275147,-0.17749438927977,-0.00608421359712752,,
0.276528748809703,-0.174265877542641,-0.00599351556076178,,
0.277752327344259,-0.170852515713827,-0.00591012340894936,,
0.278975905878815,-0.167258965386327,-0.00581131070950569,,
0.280199484413371,-0.16363063240336,-0.00570997393690442,,
0.281423062947928,-0.159945105260115,-0.00562144567494727,,
0.282646641482484,-0.156368408384234,-0.00552192926488493,,
0.28387022001704,-0.152784539826813,-0.00542501267461004,,
0.285093798551596,-0.148998250557934,-0.00534432052361078,,
0.286317377086152,-0.145267003944873,-0.00523983904417946,,
0.287540955620709,-0.141633830076867,-0.0051232161131276,,
0.288764534155265,-0.137733152487431,-0.00501785499542251,,
0.289988112689821,-0.133934850651973,-0.00493474139573014,,
0.291211691224377,-0.12997428952168,-0.00481886371377183,,
0.292435269758933,-0.126097099189286,-0.00471559418040668,,
0.29365884829349,-0.122246623370628,-0.00457198101498202,,
0.294882426828046,-0.118207353035437,-0.00449214651129992,,
0.296106005362602,-0.114209857745214,-0.00438399009863488,,
0.297329583897158,-0.110207521569953,-0.004276205088797,,
0.298553162431714,-0.106131317074832,-0.00413387961606793,,
0.299776740966271,-0.102189581608581,-0.00407504158929761,,
0.301000319500827,-0.098028347864206,-0.00393457313070211,,
0.302223898035383,-0.093938786112218,-0.00381433390896868,,
0.303447476569939,-0.0898478796699413,-0.00371106681904321,,
0.304671055104496,-0.0856167220305541,-0.00359071275564604,,
0.305894633639052,-0.08146485629519,-0.00348572304076766,,
0.307118212173608,-0.0771984229472294,-0.00335372110055943,,
0.308341790708164,-0.0731047823013657,-0.00323197916344098,,
0.30956536924272,-0.0688111413865639,-0.0031077302572422,,
0.310788947777277,-0.0645604857379907,-0.00299482624133773,,
0.312012526311833,-0.0603022998238008,-0.00285496375577532,,
0.313236104846389,-0.0560817652376942,-0.00271158271711736,,
0.314459683380945,-0.0517280166669879,-0.00262967862005148,,
0.315683261915501,-0.0474147880969809,-0.00250015677108761,,
0.316906840450058,-0.0430698248361607,-0.00236647130096079,,
0.318130418984614,-0.0387746599390317,-0.00224936212541849,,
0.31935399751917,-0.0344546630945716,-0.00211082887102609,,
0.320577576053726,-0.0300862573997186,-0.00199661272802931,,
0.321801154588282,-0.0257330018821182,-0.00187741196814706,,
0.323024733122839,-0.0213806876477198,-0.00175891247544424,,
0.324248311657395,-0.0170552672190953,-0.00159590817295774,,
0.325471890191951,-0.0126536476741116,-0.00149238452186928,,
0.326695468726507,-0.00829008286429789,-0.00138153055183077,,
0.327919047261063,-0.00392427690400301,-0.00121228570447851,,
0.32914262579562,0.000451703879476306,-0.00111128612654809,,
0.330366204330176,0.00482788636649892,-0.000974805361461772,,
0.331589782864732,0.00925117783663537,-0.000837190840377477,,
0.332813361399288,0.0136285929564226,-0.000716093971326437,,
0.334036939933844,0.0179787556863591,-0.000587178095396101,,
0.335260518468401,0.0223373451421046,-0.00046598348875948,,
0.336484097002957,0.0266724697523125,-0.000343518293504541,,
0.337707675537513,0.0310738651822481,-0.000212432643165172,,
0.338931254072069,0.0353817374026052,-7.81998425565256E-05,,
0.340154832606626,0.0396680721668384,2.87397371625531E-05,,
0.341378411141182,0.0440464061583229,0.000170542313806976,,
0.342601989675738,0.0483908091315228,0.000316503624735454,,
0.343825568210294,0.0526520430103671,0.000439437960402689,,
0.34504914674485,0.0569753119345297,0.000557055371392057,,
0.346272725279407,0.0612060437553255,0.000692461023032553,,
0.347496303813963,0.0654719616386755,0.000787950644552282,,
0.348719882348519,0.0696754634811253,0.000966986354582033,,
0.349943460883075,0.0739350837316231,0.0010617087360516,,
0.351167039417631,0.0781479087600745,0.00121236633798727,,
0.352390617952188,0.0823456732572926,0.00132380673354104,,
0.353614196486744,0.0865434377545106,0.00145527844734561,,
0.3548377750213,0.09075769711927,0.00159821477998756,,
0.356061353555856,0.0947774246222653,0.00171604721366592,,
0.357284932090412,0.0989115404458186,0.00184207494393007,,
0.358508510624969,0.102912464696277,0.0019773046679159,,
0.359732089159525,0.107046894280898,0.00213651430862649,,
0.360955667694081,0.111039234925013,0.00222956049049605,,
0.362179246228637,0.114994955170267,0.00235499690836471,,
0.363402824763193,0.118955852473132,0.00249472256130678,,
0.36462640329775,0.122987771834745,0.00259910630315163,,
0.365849981832306,0.126919130774268,0.0027214102313895,,
0.367073560366862,0.130814227899007,0.00286074982086681,,
0.368297138901418,0.13472835239133,0.00294717428128477,,
0.369520717435974,0.138576519824993,0.00308400201480197,,
0.370744295970531,0.142294476415701,0.00319962557903652,,
0.371967874505087,0.145990066324607,0.00333776788308526,,
0.373191453039643,0.149799125682374,0.00347309534465712,,
0.374415031574199,0.153663743160569,0.00356126930786482,,
0.375638610108756,0.157057562157188,0.00368018174186835,,
0.376862188643312,0.160914133905155,0.00376321959493175,,
0.378085767177868,0.164435608833181,0.00394589114316091,,
0.379309345712424,0.167873197498697,0.00403526239179675,,
0.38053292424698,0.171243686118807,0.00414391237927081,,
0.381756502781537,0.174815564521154,0.00425869540026591,,
0.382980081316093,0.178290221815628,0.00437162140712744,,
0.384203659850649,0.181665596143787,0.00445768423847737,,
0.385427238385205,0.184986600161273,0.00457643540546426,,
0.386650816919761,0.188236985527098,0.00468074095724047,,
0.387874395454318,0.191634390364487,0.00477871311344424,,
0.389097973988874,0.194752278913867,0.00490250265298897,,
0.39032155252343,0.197944215075144,0.00500090974145051,,
0.391545131057986,0.201018535659169,0.00512429367001355,,
0.392768709592542,0.203881291637774,0.00522111252270285,,
0.393992288127099,0.206989319125037,0.00531259490319602,,
0.395215866661655,0.210059874576254,0.00541621140499116,,
0.396439445196211,0.212932312324938,0.00550440002883645,,
0.397663023730767,0.215897264765484,0.00560022195814858,,
0.398886602265323,0.218547559678476,0.00572491557036381,,
0.40011018079988,0.221066433527253,0.00580593514227656,,
0.401333759334436,0.224200458360096,0.00588584539258763,,
0.402557337868992,0.226808081767927,0.00597879383687117,,
0.403780916403548,0.229322294023703,0.00607514354914729,,
0.405004494938104,0.231824852296978,0.00614969777974617,,
0.406228073472661,0.234049507910589,0.0062374465844548,,
0.407451652007217,0.236857041941338,0.00635682327199172,,
