Time domain (s),Current (AC) (A),Potential (AC) (V),Frequency (Hz),Column 5
0,0.0146432673194068,-0.00072238770260924,398.11,0.5
7.84958930948733E-05,0.104211304496142,0.0008112844299073,,
0.000156991786189747,0.189413692716768,0.00231679097472703,,
0.00023548767928462,0.267282624332998,0.00371578431609798,,
0.000313983572379493,0.334534906658384,0.00499749098169389,,
0.000392479465474366,0.388625872749895,0.00606004286720196,,
0.00047097535856924,0.427987224970968,0.00688972903599483,,
0.000549471251664113,0.451317800327293,0.00747473730842607,,
0.000627967144758986,0.456602727613698,0.00775680451348748,,
0.000706463037853859,0.44517711197202,0.00774660856243203,,
0.000784958930948733,0.416348050733711,0.00741076955681486,,
0.000863454824043606,0.371587695786899,0.00683121657522978,,
0.000941950717138479,0.312807458694608,0.00598023690637151,,
0.00102044661023335,0.241698801643368,0.00487577525790561,,
0.00109894250332823,0.161451150361867,0.00362432405913404,,
0.0011774383964231,0.0748318550036903,0.00219396175669129,,
0.00125593428951797,-0.0140945477691701,0.000713629322484977,,
0.00133443018261285,-0.103863290970977,-0.000818073420951748,,
0.00141292607570772,-0.189367750102856,-0.00231533886189306,,
0.00149142196880259,-0.267269097180061,-0.00373257190380771,,
0.00156991786189747,-0.334428180617102,-0.004987027044149,,
0.00164841375499234,-0.389266264501925,-0.00606568097053595,,
0.00172690964808721,-0.428674375936693,-0.00690362486252472,,
0.00180540554118209,-0.451707531450098,-0.00744453585438176,,
0.00188390143427696,-0.457539900130557,-0.00774597495096607,,
0.00196239732737183,-0.445617046229347,-0.00775842074207755,,
0.00204089322046671,-0.416839004725343,-0.00739978834302457,,
0.00211938911356158,-0.372047583482416,-0.00681473021264178,,
0.00219788500665645,-0.312606362121813,-0.00596870933253069,,
0.00227638089975132,-0.241436424582465,-0.00488133026465398,,
0.0023548767928462,-0.160926715779108,-0.00360807244440098,,
0.00243337268594107,-0.0741559589132434,-0.0022047206871143,,
0.00251186857903594,0.0147091278671706,-0.000718232873328173,,
0.00259036447213082,0.104020539685826,0.000825014063266405,,
0.00266886036522569,0.189518359506422,0.00230556462600973,,
0.00274735625832056,0.267308578004381,0.00373871066407094,,
0.00282585215141544,0.334535190693092,0.00495593022439556,,
0.00290434804451031,0.388875361735952,0.00604570870618248,,
0.00298284393760518,0.428487090551543,0.00690213951105711,,
0.00306133983070006,0.450967905072192,0.00745396316202074,,
0.00313983572379493,0.456678316350188,0.00774295646749401,,
0.0032183316168898,0.44491761076253,0.00775131598400725,,
0.00329682750998468,0.416546484481125,0.0074366458335775,,
0.00337532340307955,0.371710576302161,0.00683038145454429,,
0.00345381929617442,0.312776072859447,0.0059841756845298,,
0.0035323151892693,0.241806308780095,0.0049058894605345,,
0.00361081108236417,0.161389266300006,0.00361134437246013,,
0.00368930697545904,0.0748164461208173,0.00218342926446358,,
0.00376780286855392,-0.0139830641465403,0.000721186956947228,,
0.00384629876164879,-0.103954253086002,-0.000829418182303865,,
0.00392479465474366,-0.189393952304608,-0.00233103996174622,,
0.00400329054783854,-0.267151080759162,-0.00372522824305355,,
0.00408178644093341,-0.334417671332931,-0.00498525916429005,,
0.00416028233402828,-0.389430791606149,-0.00602865520939799,,
0.00423877822712316,-0.428781599038713,-0.00686317967688854,,
0.00431727412021803,-0.452003211580436,-0.00742748443501196,,
0.0043957700133129,-0.457403918514419,-0.00773456371234582,,
0.00447426590640778,-0.445787254027719,-0.00771063812793082,,
0.00455276179950265,-0.416829631580001,-0.00740118852049232,,
0.00463125769259752,-0.371772424859683,-0.00682277188471536,,
0.0047097535856924,-0.312760024898482,-0.00596602323540063,,
0.00478824947878727,-0.241363995732094,-0.00488184754089938,,
0.00486674537188214,-0.160853434824615,-0.00361155834616778,,
0.00494524126497702,-0.074233287362316,-0.00219998210431926,,
0.00502373715807189,0.0147322056871417,-0.000724606381445447,,
0.00510223305116676,0.104051037912527,0.000821544780816641,,
0.00518072894426164,0.189602185249424,0.00232898955349636,,
0.00525922483735651,0.267167412754834,0.00372826542325821,,
0.00533772073045138,0.334508704456632,0.00500140898570578,,
0.00541621662354626,0.388731959713085,0.0060392521014796,,
0.00549471251664113,0.428115537650008,0.0068648540730889,,
0.005573208409736,0.451280130224233,0.00745685076837121,,
0.00565170430283088,0.45683371883944,0.00774063807275516,,
0.00573020019592575,0.44489652118551,0.00771948168205583,,
0.00580869608902062,0.416482044106898,0.00741333724131055,,
0.00588719198211549,0.371887103872771,0.00682919732819887,,
0.00596568787521037,0.312644067729212,0.00595048832871914,,
0.00604418376830524,0.241585897847202,0.00485959219785581,,
0.00612267966140012,0.161317689553757,0.00359661134782963,,
0.00620117555449499,0.0748213102151804,0.00218883469735864,,
0.00627967144758986,-0.0140689136368329,0.000727928167455705,,
0.00635816734068474,-0.103871598986167,-0.000833973952610645,,
0.00643666323377961,-0.189318115037749,-0.00233375929751078,,
0.00651515912687448,-0.267070627928309,-0.00370442293542839,,
0.00659365501996935,-0.334722440573903,-0.00498065561344685,,
0.00667215091306423,-0.389002822310869,-0.00605063217888002,,
0.0067506468061591,-0.428683749082035,-0.00687346080194429,,
0.00682914269925397,-0.451972961884104,-0.00745351236304348,,
0.00690763859234885,-0.457462926724868,-0.00776539462302583,,
0.00698613448544372,-0.445817219689343,-0.00772053077644896,,
0.00706463037853859,-0.416650476688348,-0.00738809249859829,,
0.00714312627163347,-0.371545978189259,-0.00681709846533218,,
0.00722162216472834,-0.312513979833252,-0.00595526222756249,,
0.00730011805782321,-0.241326077098665,-0.00486391322030766,,
0.00737861395091809,-0.160913011104479,-0.00362884451339163,,
0.00745710984401296,-0.0741371416138824,-0.00219716305265205,,
0.00753560573710783,0.0146535280732094,-0.000737939228608209,,
0.00761410163020271,0.104110081627314,0.000809398137413542,,
0.00769259752329758,0.189473872570385,0.00230808245255387,,
0.00777109341639245,0.267173981057441,0.0037174213188349,,
0.00784958930948733,0.334395197086713,0.00492714972196584,,
0.0079280852025822,0.388660667001544,0.00604570870618248,,
0.00800658109567707,0.428220204439661,0.00687437694180115,,
0.00808507698877195,0.451079388694822,0.00746309132195133,,
0.00816357288186682,0.45693465767356,0.00773905092796978,,
0.00824206877496169,0.445138625269176,0.00773369535302626,,
0.00832056466805657,0.416297563564482,0.00741038315769194,,
0.00839906056115144,0.371888524046307,0.00683303639045452,,
0.00847755645424631,0.31285563808184,0.0059582994077676,,
0.00855605234734119,0.241768106111958,0.00486334400869648,,
0.00863454824043606,0.16131740551905,0.00358159579480777,,
0.00871304413353093,0.0748061853670147,0.00219738118118951,,
0.00879154002662581,-0.0140295748298668,0.000710326233206882,,
0.00887003591972068,-0.103909801654303,-0.000821694354670388,,
0.00894853181281555,-0.189332955851207,-0.002319377355954,,
0.00902702770591043,-0.267055006019406,-0.00370799401119548,,
0.0091055235990053,-0.334277074152799,-0.00499728947247347,,
0.00918401949210017,-0.389207540326183,-0.00604130250972945,,
0.00926251538519504,-0.428542015763074,-0.00687916538254729,,
0.00934101127828992,-0.451728621027118,-0.00744750655731741,,
0.00941950717138479,-0.457534503471117,-0.00771732740307307,,
0.00949800306447967,-0.445710848691445,-0.00768199058003782,,
0.00957649895757454,-0.416753652295789,-0.00741715760683404,,
0.00965499485066941,-0.371746719718669,-0.00684291034224094,,
0.00973349074376429,-0.312709821763961,-0.00595437724892589,,
0.00981198663685916,-0.241233694810104,-0.00489140780307507,,
0.00989048252995403,-0.160993179900625,-0.00360333386160594,,
0.0099689784230489,-0.0741913212343069,-0.00218216411894723,,
0.0100474743161438,0.0147068555895119,-0.000710941147939792,,
0.0101259702092387,0.104162805569864,0.000805710726426767,,
0.0102044661023335,0.18954686949017,0.00234407158378636,,
0.0102829619954284,0.267301157597652,0.00372763388920738,,
0.0103614578885233,0.334541758995699,0.00498857887288606,,
0.0104399537816181,0.38876728652981,0.00603625231473881,,
0.010518449674713,0.428192795090403,0.0068586966160944,,
0.0105969455678079,0.45117521490421,0.00744243351076568,,
0.0106754414609028,0.456952622868799,0.00775695408734167,,
0.0107539373539976,0.445175691798484,0.00772258533952908,,
0.0108324332470925,0.416420444079744,0.00740730027436509,,
0.0109109291401874,0.371588831925728,0.00682754786097428,,
0.0109894250332823,0.313038130381304,0.00597688395914187,,
0.0110679209263771,0.241840250927622,0.00488374837529593,,
0.011146416819472,0.161380993789155,0.00361346333539325,,
0.0112249127125669,0.0748520924765881,0.00218873498145555,,
0.0113034086056618,-0.0140164382246524,0.000724440188274667,,
0.0113819044987566,-0.103892120493772,-0.000816588069484148,,
0.0114604003918515,-0.189371726588759,-0.00232278016113519,,
0.0115388962849464,-0.267009063405494,-0.00371973971357331,,
0.0116173921780412,-0.334706818665,-0.0049821056488657,,
0.0116958880711361,-0.389061546486611,-0.00603828194884226,,
0.011774383964231,-0.428743609396607,-0.00686573489689613,,
0.0118528798573259,-0.45195961225286,-0.00743911380216966,,
0.0119313757504207,-0.457671124165346,-0.0077391838825065,,
0.0120098716435156,-0.44571454114264,-0.00773643130810742,,
0.0120883675366105,-0.416585432740368,-0.00742551712334771,,
0.0121668634297054,-0.371820852777284,-0.00682187028676129,,
0.0122453593228002,-0.312556158987291,-0.0059663743184748,,
0.0123238552158951,-0.241408163129085,-0.00489878262504906,,
0.01240235110899,-0.160970670150068,-0.00359886118788477,,
0.0124808470020848,-0.0741585862342863,-0.00217931182864595,,
0.0125593428951797,0.0146828901610803,-0.000701698730204203,,
0.0126378387882746,0.104069855211888,0.000812803020009412,,
0.0127163346813695,0.189525460374105,0.00232033088927475,,
0.0127948305744643,0.267402948535893,0.00373390352659264,,
0.0128733264675592,0.334224101679881,0.00497490117489274,,
0.0129518223606541,0.388964371112364,0.00603878676059999,,
0.013030318253749,0.428236997991733,0.00687574803546376,,
0.0131088141468438,0.450935702637248,0.00744967537820251,,
0.0131873100399387,0.45684426362795,0.00771964787522705,,
0.0132658059330336,0.445039106608593,0.00772118516206133,,
0.0133443018261285,0.416322913662112,0.00741253535925912,,
0.0134227977192233,0.371687214447482,0.00682582776165219,,
0.0135012936123182,0.312924338976677,0.00595110739828186,,
0.0135797895054131,0.241881577977539,0.00488638669188912,,
0.0136582853985079,0.161408367634075,0.00358626582291954,,
0.0137367812916028,0.0748024929158193,0.00218299716221848,,
0.0138152771846977,-0.0140632329426862,0.000694826642573698,,
0.0138937730777926,-0.103857326242123,-0.000846035422013447,,
0.0139722689708874,-0.189310375091974,-0.00233512623634402,,
0.0140507648639823,-0.267148524446796,-0.00374359882071973,,
0.0141292607570772,-0.334426476408858,-0.00497359655849827,,
0.0142077566501721,-0.389152224566929,-0.00605962322944409,,
0.0142862525432669,-0.428727135383581,-0.00687801449483638,,
0.0143647484363618,-0.451631694183239,-0.00743666245289409,,
0.0144432443294567,-0.457330069490511,-0.00773237619472944,,
0.0145217402225516,-0.445755655166527,-0.00771279032949845,,
0.0146002361156464,-0.416896592762256,-0.00741924333113309,,
0.0146787320087413,-0.371632395748966,-0.0068280609823903,,
0.0147572279018362,-0.312429266481788,-0.0059609024083116,,
0.014835723794931,-0.24123085446303,-0.00487739356390993,,
0.0149142196880259,-0.160860606700975,-0.00362750873577777,,
0.0149927155811208,-0.0742555130781651,-0.00219684520821195,,
0.0150712114742157,0.0146783456057629,-0.000726158210181627,,
0.0151497073673105,0.104145124409332,0.000826233505660134,,
0.0152282032604054,0.189633251545539,0.00230217844014557,,
0.0153066991535003,0.267263238964222,0.00370534323011462,,
0.0153851950465952,0.334575097569472,0.00497451477576982,,
0.01546369093969,0.388654098698936,0.00606740106985892,,
0.0155421868327849,0.428068778436312,0.00687828248132538,,
0.0156206827258798,0.451230530663464,0.00746013723833228,,
0.0156991786189747,0.456918964755979,0.00772301744177417,,
0.0157776745120695,0.445183964309335,0.00773714801615899,,
0.0158561704051644,0.416257372653394,0.00743023908682572,,
0.0159346662982593,0.371686930412775,0.00683939327925476,,
0.0160131621913541,0.312871579529789,0.00597009496809653,,
0.016091658084449,0.241711370179168,0.00487232259477288,,
0.0161701539775439,0.161395834602613,0.0036096242731376,,
0.0162486498706388,0.0748866026935295,0.00219131097560998,,
0.0163271457637336,-0.0140224029535065,0.000722071935584268,,
0.0164056416568285,-0.103806271003479,-0.000824297355214831,,
0.0164841375499234,-0.189361714365325,-0.00233057254345193,,
0.0165626334430183,-0.267156193383894,-0.0037164033856607,,
0.0166411293361131,-0.33424654042176,-0.00495868072137906,,
0.016719625229208,-0.389130566920494,-0.00603034207008601,,
0.0167981211223029,-0.428612172335786,-0.0068735438985299,,
0.0168766170153978,-0.451740337458795,-0.0074365772788938,,
0.0169551129084926,-0.457638602191356,-0.00773609684435028,,
0.0170336088015875,-0.445961225285963,-0.00770654977591834,,
0.0171121046946824,-0.416844117350075,-0.00739853566199633,,
0.0171906005877772,-0.37160874985958,-0.00682625778648216,,
0.0172690964808721,-0.312645132859365,-0.00597051252843883,,
0.017347592373967,-0.241379972684382,-0.00487003536125341,,
0.0174260882670619,-0.160981747503654,-0.00359650955451185,,
0.0175045841601567,-0.0741394849002179,-0.00221022583591157,,
0.0175830800532516,0.014665493035256,-0.000735201196111923,,
0.0176615759463465,0.104140579854015,0.000814003765671423,,
0.0177400718394414,0.189628991024929,0.00231008508026731,,
0.0178185677325362,0.267351928801588,0.00371957352040253,,
0.0178970636256311,0.334380391777593,0.00497016051468302,,
0.017975559518726,0.388773322267341,0.00604904918892446,,
0.0180540554118209,0.428053937622854,0.00686520307874883,,
0.0181325513049157,0.450863557821584,0.00745935197559833,,
0.0182110471980106,0.456936645916511,0.00771902880566433,,
0.0182895430911055,0.445197384949257,0.00772106467201183,,
0.0183680389842003,0.416354299497273,0.00739578724242751,,
0.0184465348772952,0.371634739035302,0.00682405780437856,,
0.0185250307703901,0.312703359974369,0.00595753076435068,,
0.018603526663485,0.241872169327859,0.00487106783632996,,
0.0186820225565798,0.161386425952933,0.00359951557349714,,
0.0187605184496747,0.0748133217390366,0.00219184279375773,,
0.0188390143427696,-0.0139993251335354,0.000715280867124246,,
0.0189175102358645,-0.103854485895049,-0.000826264666879517,,
0.0189960061289593,-0.189404248562749,-0.00229002971932735,,
0.0190745020220542,-0.267072971214645,-0.00371349915999319,,
0.0191529979151491,-0.334473555161599,-0.00497790096163353,,
0.019231493808244,-0.389224085347885,-0.00605591919914028,,
0.0193099897013388,-0.428550323778264,-0.00685677293013676,,
0.0193884855944337,-0.451803606189855,-0.00746517496883525,,
0.0194669814875286,-0.457647123232576,-0.00771752891229349,,
0.0195454773806234,-0.445823184418197,-0.0077183619555643,,
0.0196239732737183,-0.417181479573715,-0.00739755096745665,,
0.0197024691668132,-0.371869635738269,-0.00682530840799167,,
0.0197809650599081,-0.312628303802955,-0.005955895839028,,
0.0198594609530029,-0.241283258866534,-0.00486775020514862,,
0.0199379568460978,-0.160886808902727,-0.00359849556290825,,
0.0200164527391927,-0.074228103728907,-0.00219614511947785,,
0.0200949486322876,0.0146657770699633,-0.000722703469634656,,
0.0201734445253824,0.104129182961383,0.000817323474266995,,
0.0202519404184773,0.189573391230968,0.0023185276933666,,
0.0203304363115722,0.267352496871003,0.00372154290948146,,
0.0204089322046671,0.334603927092267,0.00499236807719061,,
0.0204874280977619,0.388926701009303,0.00604903256960743,,
0.0205659239908568,0.428214204206469,0.00687349611799348,,
0.0206444198839517,0.451066855663361,0.0074600209031126,,
0.0207229157770465,0.456678884419603,0.00775023157356491,,
0.0208014116701414,0.445137205095639,0.00771555952321457,,
0.0208799075632363,0.416424172035278,0.00739130002680399,,
0.0209584034563312,0.371648159675223,0.00681619686737855,,
0.021036899349426,0.31305637961125,0.00595421105575511,,
0.0211153952425209,0.241756105645573,0.00485890665102451,,
0.0211938911356158,0.161341086912774,0.00363309905857578,,
0.0212723870287107,0.0748580927097806,0.0021992840930003,,
0.0213508829218055,-0.0140198466411405,0.000711360785697668,,
0.0214293788149004,-0.103909517619596,-0.000819508914468692,,
0.0215078747079953,-0.189320955384822,-0.00231680759404407,,
0.0215863706010902,-0.267042437483606,-0.0037100631161775,,
0.021664866494185,-0.334545415942556,-0.00495404185448711,,
0.0217433623872799,-0.389242618612539,-0.00604786090774967,,
0.0218218582803748,-0.428488759255448,-0.00688373777217111,,
0.0219003541734696,-0.451894284270172,-0.00743991568422109,,
0.0219788500665645,-0.45737743227796,-0.00773207704702106,,
0.0220573459596594,-0.445798686424689,-0.00771292328403517,,
0.0221358418527543,-0.416615398401992,-0.00739244675968509,,
0.0222143377458491,-0.372060933113661,-0.00682021874212202,,
0.022292833638944,-0.312704141069814,-0.00594893857739676,,
0.0223713295320389,-0.241310384181085,-0.00484632790537542,,
0.0224498254251338,-0.160868275638073,-0.0036153454730572,,
0.0225283213182286,-0.0741842203666235,-0.00218922109648112,,
0.0226068172113235,0.014679197709885,-0.000688785520798874,,
0.0226853131044184,0.104143420201088,0.000806144906086548,,
0.0227638089975132,0.189390614896797,0.00231060027909846,,
0.0228423048906081,0.267387255618313,0.00371697259727233,,
0.022920800783703,0.33456572442413,0.00497907262349084,,
0.0229992966767979,0.388782695412683,0.00605919112719944,,
0.0230777925698927,0.428016587058839,0.00687674934932048,,
0.0231562884629876,0.451340878147264,0.00744595680599591,,
0.0232347843560825,0.457025619788584,0.00773591403186247,,
0.0233132802491774,0.445124672064178,0.00773313029624401,,
0.0233917761422722,0.416533099345541,0.00741867619693659,,
0.0234702720353671,0.371587411752192,0.00681277744288034,,
0.023548767928462,0.312773800581788,0.00596640547969507,,
0.0236272638215569,0.241846499691183,0.00487656052063956,,
0.0237057597146517,0.161374709521255,0.00362151954936962,,
0.0237842556077466,0.0747563017715387,0.00221323185489686,,
0.0238627515008415,-0.0140055738970968,0.000707773090613539,,
0.0239412473939363,-0.103939128237836,-0.000812601510788991,,
0.0240197432870312,-0.189436131458647,-0.00230793287869968,,
0.0240982391801261,-0.267159317765675,-0.00374526906209072,,
0.024176735073221,-0.33442306799237,-0.0049713944989791,,
0.0242552309663158,-0.388880190325977,-0.00606100886500949,,
0.0243337268594107,-0.428684601186157,-0.00690010572212385,,
0.0244122227525056,-0.451850400907889,-0.00742675110764424,,
0.0244907186456005,-0.457281570564233,-0.00773336088926868,,
0.0245692145386953,-0.445814095307562,-0.00772622081514918,,
0.0246477104317902,-0.416670430126539,-0.00740400757215953,,
0.0247262063248851,-0.371846841953006,-0.00682664210819084,,
0.02480470221798,-0.312572419974286,-0.00595741442913011,,
0.0248831981110748,-0.241186332022655,-0.00489145766102617,,
0.0249616940041697,-0.160893625735703,-0.00361486143544631,,
0.0250401898972646,-0.074176267394818,-0.00220947588922638,,
0.0251186857903594,0.0146994351827827,-0.000705336283239877,,
0.0251971816834543,0.104163089604571,0.000807729973457239,,
0.0252756775765492,0.189536040666953,0.00232011068332261,,
0.0253541734696441,0.267163152234224,0.00374246247491161,,
0.0254326693627389,0.334424275139876,0.00498577851795057,,
0.0255111652558338,0.388823205862817,0.00603955540401735,,
0.0255896611489287,0.428395524862765,0.00686820702031898,,
0.0256681570420236,0.451248495858703,0.00744567012277564,,
0.0257466529351184,0.45676015385024,0.0077444563608644,,
0.0258251488282133,0.445387262151111,0.00773464680893188,,
