Time domain (s),Current (AC) (A),Potential (AC) (V),Frequency (Hz),Column 5
0,0.258230367530697,0.00491940621374365,50.119,0.3
0.000224076073944013,0.265213944350275,0.00512703018620186,,
0.000448152147888027,0.27114039305199,0.00529925199543779,,
0.00067222822183204,0.275488893763476,0.00546853350648302,,
0.000896304295776053,0.278396789166947,0.00557592584547306,,
0.00112038036972007,0.280267523391409,0.00566500745467469,,
0.00134445644366408,0.280338434015378,0.00573192280347135,,
0.00156853251760809,0.279176806030613,0.00577599991058086,,
0.00179260859155211,0.276831157232459,0.00574673679807969,,
0.00201668466549612,0.272990040696167,0.00572606045092527,,
0.00224076073944013,0.267784081255364,0.00567359117938304,,
0.00246483681338415,0.261348195702499,0.0056046051552312,,
0.00268891288732816,0.253354515705164,0.00552227680588668,,
0.00291298896127217,0.244248845159841,0.00535600248709711,,
0.00313706503521619,0.233935268117268,0.00520519894100158,,
0.0033611411091602,0.222352204298733,0.00502532384267917,,
0.00358521718310421,0.209994535216782,0.00477455015809403,,
0.00380929325704823,0.196295908914184,0.0045638460180375,,
0.00403336933099224,0.181881621804345,0.00433168408652973,,
0.00425744540493625,0.166058499212099,0.00402163617967677,,
0.00448152147888027,0.149875948394607,0.00371759353541634,,
0.00470559755282428,0.132843753011952,0.00340550535960116,,
0.00492967362676829,0.115016099044227,0.003078356897396,,
0.00515374970071231,0.0966459321514087,0.00271005034179739,,
0.00537782577465632,0.0777671214867868,0.00236776253658011,,
0.00560190184860033,0.0585913959101551,0.00196702756298173,,
0.00582597792254435,0.0390267815431215,0.00157969876800124,,
0.00605005399648836,0.0193727824685052,0.00119749953149828,,
0.00627413007043237,-0.000469666254483114,0.000792100217233305,,
0.00649820614437638,-0.0202882759453343,0.000414914994915083,,
0.0067222822183204,-0.0398918911555511,5.23141989416942E-06,,
0.00694635829226441,-0.0594481082118515,-0.000408415628438075,,
0.00717043436620842,-0.0788141728317701,-0.000826067198711922,,
0.00739451044015244,-0.0976611436931951,-0.00120079406416584,,
0.00761858651409645,-0.116054706426751,-0.00162310389382814,,
0.00784266258804046,-0.13386171700559,-0.00198866019119137,,
0.00806673866198448,-0.150890716744993,-0.0023625387182844,,
0.00829081473592849,-0.167255395901944,-0.00274419976163331,,
0.0085148908098725,-0.182743395818345,-0.00310494120668503,,
0.00873896688381652,-0.19717743993427,-0.00345544177861701,,
0.00896304295776053,-0.211044199058438,-0.00372879525055048,,
0.00918711903170454,-0.2233626806903,-0.00402709412719737,,
0.00941119510564856,-0.234815119675207,-0.00429014591322519,,
0.00963527117959257,-0.24522353967734,-0.00453394437128507,,
0.00985934725353658,-0.254231008338809,-0.00480424352105446,,
0.0100834233274806,-0.262247267771672,-0.00499388515276733,,
0.0103074994014246,-0.268708718470547,-0.0052057416951139,,
0.0105315754753686,-0.273589795289426,-0.00534422609113694,,
0.0107556515493126,-0.27743781628121,-0.00547606821063651,,
0.0109797276232566,-0.279990598744117,-0.00556832120661488,,
0.0112038036972007,-0.281012644763806,-0.00566531759988154,,
0.0114278797711447,-0.28039572233527,-0.00571715441845244,,
0.0116519558450887,-0.278569587161146,-0.0057369185738203,,
0.0118760319190327,-0.275701065814669,-0.00572330867237003,,
0.0121001079929767,-0.271008648576931,-0.00565490645096167,,
0.0123241840669207,-0.265276037797975,-0.0056090520901888,,
0.0125482601408647,-0.257739264807981,-0.00553700262195544,,
0.0127723362148088,-0.24921128258938,-0.00541073095362998,,
0.0129964122887528,-0.239765427655908,-0.0052719926642264,,
0.0132204883626968,-0.228622942740511,-0.00510946441303872,,
0.0134445644366408,-0.216733610338844,-0.00490833220545861,,
0.0136686405105848,-0.203427838223383,-0.00467794752761463,,
0.0138927165845288,-0.189385995170427,-0.00444163056252123,,
0.0141167926584728,-0.174219938817194,-0.00415932544852593,,
0.0143408687324168,-0.15827871737983,-0.00386935792352627,,
0.0145649448063609,-0.141405114540718,-0.00354900833076766,,
0.0147890208803049,-0.123995623321646,-0.00324324316435076,,
0.0150130969542489,-0.106047164708678,-0.00289412760361429,,
0.0152371730281929,-0.0873835351315957,-0.00253859173302207,,
0.0154612491021369,-0.0682934621244431,-0.00216945812353719,,
0.0156853251760809,-0.0489843126106054,-0.00180115156793814,,
0.0159094012500249,-0.0293696875929827,-0.00138632323124277,,
0.016133477323969,-0.00956080478706426,-0.00100306889290769,,
0.016357553397913,0.0102783083374939,-0.00059681515900234,,
0.016581629471857,0.0299519244630176,-0.0002031861594185,,
0.016805705545801,0.049595823438891,0.000202398633843526,,
0.017029781619745,0.0691557726332949,0.000618224300224846,,
0.017253857693689,0.0880866699503262,0.00101053974363685,,
0.017477933767633,0.106671038244432,0.00139305520662525,,
0.017702009841577,0.124784410709855,0.00181149278215509,,
0.0179260859155211,0.142270970580768,0.0021770870875093,,
0.0181501619894651,0.158881597638751,0.00252947285579985,,
0.0183742380634091,0.174735906910026,0.002893510353839,,
0.0185983141373531,0.18991434929659,0.0032651007998683,,
0.0188223902112971,0.20404588029335,0.00355559131482508,,
0.0190464662852411,0.216969901332532,0.00389349147755036,,
0.0192705423591851,0.228867397786301,0.00417123563261468,,
0.0194946184331292,0.239756283917554,0.00443517528531423,,
0.0197186945070732,0.249502575968371,0.00467733179815921,,
0.0199427705810172,0.257718318182874,0.00489163605513232,,
0.0201668466549612,0.26493328756488,0.00513531288762081,,
0.0203909227289052,0.270929527249133,0.00528665158623109,,
0.0206149988028492,0.275292023478508,0.00543974169307093,,
0.0208390748767932,0.278538423807981,0.0055504331256877,,
0.0210631509507372,0.280280959088582,0.00567208302229627,,
0.0212872270246813,0.280362879519957,0.00569262558132166,,
0.0215113030986253,0.279480042251535,0.00573430666467267,,
0.0217353791725693,0.276902627677144,0.00571823992667841,,
0.0219594552465133,0.273404867846389,0.00572693615504027,,
0.0221835313204573,0.268199654833207,0.00568346717578816,,
0.0224076073944013,0.261636316764102,0.00562107325761163,,
0.0226316834683453,0.253743031281755,0.00550213561124746,,
0.0228557595422894,0.24465994017196,0.00536741400634266,,
0.0230798356162334,0.234292060519978,0.00519585809711076,,
0.0233039116901774,0.222967260658217,0.00501667930518535,,
0.0235279877641214,0.210825682372468,0.0048073981843153,,
0.0237520638380654,0.196881108168839,0.00458938738805115,,
0.0239761399120094,0.182325582957639,0.004319339091023,,
0.0242002159859534,0.166990600703489,0.00402052938697617,,
0.0244242920598974,0.150582628744536,0.00373877158805236,,
0.0246483681338415,0.133609774357729,0.00339976463262648,,
0.0248724442077855,0.115947827321807,0.00308676426502563,,
0.0250965202817295,0.0974955767165713,0.00274024693055974,,
0.0253205963556735,0.0786484425741042,0.00237548576036994,,
0.0255446724296175,0.0594441894668426,0.00198557546263478,,
0.0257687485035615,0.0398685652924032,0.00158813958266268,,
0.0259928245775055,0.0201966519548893,0.00121335038410342,,
0.0262169006514496,0.000374333451797618,0.000807304933989617,,
0.0264409767253936,-0.0194110368840678,0.000424730178534727,,
0.0266650527993376,-0.0390062547835514,1.46695642420092E-05,,
0.0268891288732816,-0.0586357617018624,-0.000389613835404923,,
0.0271132049472256,-0.0779798533586957,-0.000784069888875027,,
0.0273372810211696,-0.0968201063715342,-0.00118551941270617,,
0.0275613570951136,-0.115158480112882,-0.00159059337856737,,
0.0277854331690576,-0.132890288108932,-0.0019593377862237,,
0.0280095092430017,-0.150093718652956,-0.002339405534586,,
0.0282335853169457,-0.166553520679824,-0.00272100424482957,,
0.0284576613908897,-0.182209373507436,-0.00307990914375189,,
0.0286817374648337,-0.196601197811064,-0.00338673549327995,,
0.0289058135387777,-0.210181142121965,-0.00371828680117359,,
0.0291298896127217,-0.22290941251761,-0.00403231338453391,,
0.0293539656866657,-0.234443585326987,-0.00429092431688272,,
0.0295780417606098,-0.244790005184873,-0.00455013425517059,,
0.0298021178345538,-0.253899361216573,-0.00482012934101128,,
0.0300261939084978,-0.261717304160951,-0.0050154600088308,,
0.0302502699824418,-0.268271358536524,-0.00519340886216435,,
0.0304743460563858,-0.273476151684169,-0.00532993508648616,,
0.0306984221303298,-0.277274535239175,-0.00546585166263114,,
0.0309224982042738,-0.279755100829776,-0.00559426242069527,,
0.0311465742782178,-0.281077630618536,-0.0056534347815469,,
0.0313706503521619,-0.28064017738106,-0.00573437659937603,,
0.0315947264261059,-0.278934730222864,-0.00574236739942346,,
0.0318188025000499,-0.275532746386194,-0.00572867388039278,,
0.0320428785739939,-0.271280348230878,-0.00570022413890037,,
0.0322669546479379,-0.265608571303012,-0.00562962201496786,,
0.0324910307218819,-0.258145881254375,-0.00556417377462726,,
0.0327151067958259,-0.249870751392297,-0.00542455978110867,,
0.0329391828697699,-0.240118068054979,-0.00528129702044566,,
0.033163258943714,-0.229036603597576,-0.00510002626869088,,
0.033387335017658,-0.217093201845132,-0.00490096169582621,,
0.033611411091602,-0.204152386184483,-0.0046737529657177,,
0.033835487165546,-0.190062305246537,-0.00446331640191833,,
0.03405956323949,-0.17488761832394,-0.00417955178106544,,
0.034283639313434,-0.158897086011881,-0.00386609835821039,,
0.034507715387378,-0.142210090077952,-0.00357706735011165,,
0.0347317914613221,-0.124855321333825,-0.00324667148514735,,
0.0349558675352661,-0.106839311021181,-0.00292327061086395,,
0.0351799436092101,-0.0881783405924975,-0.00256401147746432,,
0.0354040196831541,-0.0692180526878999,-0.00218152490054901,,
0.0356280957570981,-0.0499050310807796,-0.00181012753511478,,
0.0358521718310421,-0.030238529343516,-0.00140984561677016,,
0.0360762479049861,-0.0104274539064616,-0.00105115964387625,,
0.0363003239789301,0.00941562461483168,-0.000612675133525364,,
0.0365244000528742,0.0291237396919512,-0.000225322013430507,,
0.0367484761268182,0.0487523602274626,0.000169182690268332,,
0.0369725522007622,0.0682315086319223,0.000586419213279399,,
0.0371966282747062,0.0873540512405767,0.00100072456001721,,
0.0374207043486502,0.105913227602483,0.00139002672989541,,
0.0376447804225942,0.123927325194349,0.0017841148660116,,
0.0378688564965382,0.141553653637244,0.00217272377013211,,
0.0380929325704823,0.158146926253044,0.00254374257597512,,
0.0383170086444263,0.174115042410618,0.00290101465160042,,
0.0385410847183703,0.189171653813961,0.0032291847686059,,
0.0387651607923143,0.203398727546174,0.00356059924773122,,
0.0389892368662583,0.216559366141129,0.0038768530993698,,
0.0392133129402023,0.228502581286668,0.00416903420977066,,
0.0394373890141463,0.239218669423722,0.0044069824778421,,
0.0396614650880903,0.249095213094356,0.00468056703836117,,
0.0398855411620344,0.25739306234714,0.00488090867972613,,
0.0401096172359784,0.264477593502422,0.00509449534582718,,
0.0403336933099224,0.270371572602635,0.00526904020347851,,
0.0405577693838664,0.275102430862841,0.00543138905694862,,
0.0407818454578104,0.278422167706052,0.005540776055311,,
0.0410059215317544,0.280212101140569,0.00563688458190592,,
0.0412299976056984,0.280536983762493,0.00570877745721621,,
0.0414540736796425,0.279404839668747,0.00573639862450248,,
0.0416781497535865,0.277080837271594,0.0057595561333148,,
0.0419022258275305,0.273346086671257,0.00570574898048593,,
0.0421263019014745,0.268413319739642,0.00569656624983805,,
0.0423503779754185,0.262228420474248,0.00560287807211601,,
0.0425744540493625,0.25435379568242,0.00550416675829135,,
0.0427985301233065,0.245225732308476,0.00539466725627502,,
0.0430226061972505,0.234970376620319,0.00519990518800206,,
0.0432466822711946,0.223481735895807,0.00502081457461623,,
0.0434707583451386,0.211120148068847,0.00482807453146927,,
0.0436948344190826,0.197594319760449,0.00458134793777543,,
0.0439189104930266,0.18283501980879,0.0043273542161848,,
0.0441429865669706,0.167422409082083,0.00405201824743617,,
0.0443670626409146,0.151216719008349,0.0037706131626698,,
0.0445911387148586,0.134230265643327,0.00342703308575576,,
0.0448152147888027,0.116607132843683,0.00308536557095351,,
0.0450392908627467,0.0982140133015268,0.00274113783787122,,
0.0452633669366907,0.0794633782549026,0.00237173665212875,,
0.0454874430106347,0.0602435901227845,0.00200649506093153,,
0.0457115190845787,0.0407616426147472,0.00162829122445229,,
0.0459355951585227,0.0210641874570862,0.00123045093945562,,
0.0461596712324667,0.00123962967113239,0.000839899066830352,,
0.0463837473064107,-0.018532818136549,0.000424632878077702,,
0.0466078233803548,-0.0381683897792785,2.88389433209524E-05,,
0.0468318994542988,-0.0578095129774373,-0.000375746999934812,,
0.0470559755282428,-0.0771541178032598,-0.000779920936567535,,
0.0472800516021868,-0.0960501196290217,-0.00120405362948217,,
0.0475041276761308,-0.114422689085745,-0.00159268533839718,,
0.0477282037500748,-0.132373526936753,-0.0019684825088806,,
0.0479522798240188,-0.149382746344207,-0.00232232930434817,,
0.0481763558979629,-0.165945975248273,-0.00271311226555948,,
0.0484004319719069,-0.181356206736938,-0.0030340699861755,,
0.0486245080458509,-0.195961695947001,-0.00339032344763934,,
0.0488485841197949,-0.209708326875957,-0.00372895488411329,,
0.0490726601937389,-0.222517538016725,-0.00399444982380803,,
0.0492967362676829,-0.234059734923025,-0.00428171574080061,,
0.0495208123416269,-0.244438857641044,-0.00453494170097146,,
0.0497448884155709,-0.253477629610858,-0.00478062535538992,,
0.049968964489515,-0.26137954566257,-0.00499641344433499,,
0.050193040563459,-0.267982677654206,-0.0051755055780407,,
0.050417116637403,-0.273208743989042,-0.00532719851112784,,
0.050641192711347,-0.277278267377278,-0.00546238533384358,,
0.050865268785291,-0.279639264593383,-0.00560045316228441,,
0.051089344859235,-0.280654919326569,-0.00567000018438435,,
0.051313420933179,-0.280734413868177,-0.00570545403847467,,
0.0515374970071231,-0.279066568001376,-0.00575423805520137,,
0.0517615730810671,-0.276178779491938,-0.0057450690074301,,
0.0519856491550111,-0.271477638381383,-0.00570280260101619,,
0.0522097252289551,-0.265615149196419,-0.00564633184817165,,
0.0524338013028991,-0.258636050942565,-0.00556107232255387,,
0.0526578773768431,-0.250440275666917,-0.00543073836014063,,
0.0528819534507871,-0.240664686331987,-0.00527886450901605,,
0.0531060295247311,-0.229655951915879,-0.00512514194920444,,
0.0533301055986752,-0.217927567969932,-0.00491443932946734,,
0.0535541816726192,-0.204739311553011,-0.00468726404639108,,
0.0537782577465632,-0.190711137455859,-0.00444858754521071,,
0.0540023338205072,-0.17554969962353,-0.00419595907065995,,
0.0542264098944512,-0.159602833327284,-0.00391157415939203,,
0.0544504859683952,-0.142975924816824,-0.00359625986529322,,
0.0546745620423392,-0.125574690953307,-0.00327001143231698,,
0.0548986381162833,-0.107518606807774,-0.00292194337181506,,
0.0551227141902273,-0.0890960267004624,-0.00257386466907539,,
0.0553467902641713,-0.0700111320349287,-0.00220021875088783,,
0.0555708663381153,-0.0506960577518514,-0.0018508112887794,,
0.0557949424120593,-0.0310741084132003,-0.00147603425277731,,
0.0560190184860033,-0.0113440203729955,-0.00104149041094237,,
0.0562430945599473,0.0085471560781088,-0.000657883358449851,,
0.0564671706338913,0.0282597263950896,-0.000232850636305848,,
0.0566912467078354,0.0478266033708485,0.00015144968194436,,
0.0569153227817794,0.0673320866748021,0.000546611163729338,,
0.0571393988557234,0.0865150665948728,0.000943061876571782,,
0.0573634749296674,0.105082453660607,0.00135928890733927,,
0.0575875510036114,0.123197878801987,0.00175851268321203,,
0.0578116270775554,0.14070666822048,0.00213246266532829,,
0.0580357031514994,0.157563569741578,0.00249370277522321,,
0.0582597792254434,0.173487133500539,0.00285683720339414,,
0.0584838552993875,0.188415102768621,0.00321643840871344,,
0.0587079313733315,0.202768742634276,0.0035580968015978,,
0.0589320074472755,0.215940204429731,0.00386270804540523,,
0.0591560835212195,0.228001914960061,0.00412882479583443,,
0.0593801595951635,0.238816158329241,0.00443089102455829,,
0.0596042356691075,0.248640078852614,0.00467615507075525,,
0.0598283117430515,0.257058662773051,0.00491723823793144,,
0.0600523878169956,0.264493455089363,0.00509421560701284,,
0.0602764638909396,0.270248785259025,0.00525851959154444,,
0.0605005399648836,0.274842487443921,0.00541388713721069,,
0.0607246160388276,0.278088327952679,0.00554857225444394,,
0.0609486921127716,0.280095658431735,0.00563160603210289,,
0.0611727681867156,0.28040654553577,0.00570088699826554,,
0.0613968442606596,0.279697252689169,0.00573166738977138,,
0.0616209203346036,0.277424007370226,0.00573501209298755,,
0.0618449964085477,0.273341234891722,0.00573563238340213,,
0.0620690724824917,0.268407161711771,0.00568416044154585,,
0.0622931485564357,0.262071297460084,0.00559973101045363,,
0.0625172246303797,0.25448124819866,0.00550510327519183,,
0.0627413007043237,0.245463096291869,0.00536929920270079,,
0.0629653767782677,0.235329781519702,0.00523508234391734,,
0.0631894528522117,0.22394302816542,0.00502471875546107,,
0.0634135289261558,0.211564272503183,0.00481884315059267,,
0.0636376050000998,0.19824240554215,0.0046199640567246,,
0.0638616810740438,0.183904463982395,0.00430514538682969,,
0.0640857571479878,0.168278748169969,0.00408350710789573,,
0.0643098332219318,0.152112268872186,0.00375537347856136,,
0.0645339092958758,0.135108461064982,0.00343523064927442,,
0.0647579853698198,0.117387686202201,0.00312519490497865,,
0.0649820614437639,0.0990905059351726,0.00277780794767679,,
0.0652061375177079,0.0803040656886163,0.00241587761266349,,
0.0654302135916519,0.0611393265935273,0.00200678392166376,,
0.0656542896655959,0.0415612765293206,0.001638516894376,,
0.0658783657395399,0.0218716355358142,0.0012520364377564,,
0.0661024418134839,0.00207693485468967,0.000860149724484227,,
0.0663265178874279,-0.0176733533830013,0.000448070125704358,,
0.0665505939613719,-0.0372719302067782,1.9669895550134E-05,,
0.066774670035316,-0.0569337667714122,-0.000359461335911693,,
0.06699874610926,-0.0763414447311867,-0.000779971107115696,,
0.067222822183204,-0.0952663706272521,-0.00118131116793219,,
0.067446898257148,-0.11366394540927,-0.00156215579963259,,
0.067670974331092,-0.131562300068196,-0.00199301590697054,,
0.067895050405036,-0.148729995389876,-0.00231877783766077,,
0.06811912647898,-0.165074147787257,-0.00269984291570946,,
0.068343202552924,-0.180728601063081,-0.00305681396804491,,
0.0685672786268681,-0.195446147719706,-0.00336573075708291,,
0.0687913547008121,-0.209196977304028,-0.00370696346046717,,
0.0690154307747561,-0.221765698795742,-0.0040109407309834,,
0.0692395068487001,-0.233451069850044,-0.00428927020911019,,
0.0694635829226441,-0.243853238520853,-0.004528957722854,,
0.0696876589965881,-0.25317723914524,-0.00476644381375335,,
0.0699117350705321,-0.261079108545225,-0.00498372789722801,,
0.0701358111444761,-0.267840669799361,-0.0051692053734369,,
0.0703598872184202,-0.273073267375879,-0.00532934064150581,,
0.0705839632923642,-0.277067028360611,-0.00547367218687844,,
0.0708080393663082,-0.279615005695709,-0.00557897560667797,,
0.0710321154402522,-0.280989692114468,-0.00566491775581524,,
0.0712561915141962,-0.280521681996268,-0.0057274561043581,,
0.0714802675881402,-0.279047347490142,-0.00574289038938058,,
0.0717043436620843,-0.2759982839629,-0.00576033149633304,,
0.0719284197360283,-0.271627250467614,-0.00571745848238114,,
0.0721524958099723,-0.265931074686895,-0.00566617049920159,,
0.0723765718839163,-0.258807729295334,-0.00554164871878626,,
0.0726006479578603,-0.250559144265518,-0.00543948323873122,,
0.0728247240318043,-0.24104032603212,-0.00531555894393554,,
0.0730488001057483,-0.23013389885178,-0.00513350978852323,,
0.0732728761796923,-0.218282167741507,-0.00493965079011849,,
0.0734969522536364,-0.205174432204172,-0.00469442931287167,,
0.0737210283275804,-0.191268718888547,-0.00445954600920206,,
0.0739451044015244,-0.17627802637446,-0.00418936696468508,,
