Time domain (s),Current (AC) (A),Potential (AC) (V),Frequency (Hz),Column 5
0,-0.13598391024707,-0.0045705168097343,3.1623,0.4
0.000772034990355121,-0.130346657045656,-0.00444112957028509,,
0.00154406998071024,-0.124992599222456,-0.00434351596472249,,
0.00231610497106536,-0.119570835848441,-0.004212533674957,,
0.00308813996142048,-0.11402395307907,-0.00406693250298229,,
0.00386017495177561,-0.108560791605668,-0.00391385398986976,,
0.00463220994213073,-0.102993787972349,-0.00378715315095324,,
0.00540424493248585,-0.0974883033023657,-0.00365920174627155,,
0.00617627992284097,-0.0918712866020486,-0.00348819845719062,,
0.00694831491319609,-0.0863771921912546,-0.00338189747231921,,
0.00772034990355121,-0.080661710458455,-0.00319785877203316,,
0.00849238489390633,-0.0751243099353126,-0.00308662789480474,,
0.00926441988426145,-0.0694037401679514,-0.00293679158923199,,
0.0100364548746166,-0.0637430704438385,-0.00278677290948481,,
0.0108084898649717,-0.0580097805900732,-0.00263392308779675,,
0.0115805248553268,-0.0522748139976456,-0.0024885795555285,,
0.0123525598456819,-0.0466525936256178,-0.0023413138573618,,
0.0131245948360371,-0.040965789905802,-0.00219907358088101,,
0.0138966298263922,-0.0351617301167704,-0.00203434627925203,,
0.0146686648167473,-0.0294645190535331,-0.00189004777994928,,
0.0154406998071024,-0.0236970006036259,-0.00175264186649615,,
0.0162127347974575,-0.0179389643999473,-0.00157395280865025,,
0.0169847697878127,-0.0121709834014436,-0.00143085566303425,,
0.0177568047781678,-0.00636137302925389,-0.00128752693116541,,
0.0185288397685229,-0.000570033326626378,-0.00115763309678796,,
0.019300874758878,0.00514776114915573,-0.00101504254609974,,
0.0200729097492332,0.0109476580008187,-0.000829240895464434,,
0.0208449447395883,0.0166934077574025,-0.000688598564128284,,
0.0216169797299434,0.0224674307969481,-0.000521789881051671,,
0.0223890147202985,0.0282083527025558,-0.000395830118144147,,
0.0231610497106536,0.0339485807852688,-0.000206297034009761,,
0.0239330847010088,0.0396564304662259,-7.45476147820945E-05,,
0.0247051196913639,0.0454308871450807,5.10416101211497E-05,,
0.025477154681719,0.0510152652600564,0.000203610633477513,,
0.0262491896720741,0.0567609861073529,0.000380797275508105,,
0.0270212246624292,0.0625664624514613,0.000537760648011698,,
0.0277932596527844,0.0681436421539038,0.000681002535035891,,
0.0285652946431395,0.0738117126555609,0.000818425817457946,,
0.0293373296334946,0.0793729344314237,0.000980657777212901,,
0.0301093646238497,0.0850930416501884,0.00112891929626668,,
0.0308813996142048,0.0907130070978082,0.00130860128017174,,
0.03165343460456,0.0962330909578688,0.00144537612108575,,
0.0324254695949151,0.101683474526292,0.00161985320395885,,
0.0331975045852702,0.10731133220934,0.00174521084260926,,
0.0339695395756253,0.112815197959236,0.00188712689833581,,
0.0347415745659805,0.118297786473691,0.00204640613336737,,
0.0355136095563356,0.123717005830425,0.00218351098469194,,
0.0362856445466907,0.129129980781106,0.00236014181971589,,
0.0370576795370458,0.134604474695123,0.00247795553618069,,
0.0378297145274009,0.139827544537648,0.00261539618757167,,
0.0386017495177561,0.145244219877101,0.00278593630414647,,
0.0393737845081112,0.150437542063013,0.00292660179410786,,
0.0401458194984663,0.155757978385104,0.00306400191790468,,
0.0409178544888214,0.161017387201743,0.00322115634906694,,
0.0416898894791765,0.166185934128454,0.00336140498377313,,
0.0424619244695317,0.171246678322891,0.00349046800246855,,
0.0432339594598868,0.17626507041146,0.00364115538752063,,
0.0440059944502419,0.181453940567131,0.00377383115176011,,
0.044778029440597,0.186484850377093,0.00394181224024148,,
0.0455500644309522,0.191264827573447,0.00406570509584236,,
0.0463220994213073,0.196391716217185,0.00422459642390072,,
0.0470941344116624,0.201213554061524,0.00434342333022153,,
0.0478661694020175,0.205949820415507,0.00446931361725333,,
0.0486382043923726,0.210761713465021,0.00460840432069531,,
0.0494102393827278,0.215448689484189,0.00474170536781759,,
0.0501822743730829,0.22016116349474,0.00490099039250547,,
0.050954309363438,0.224762134384244,0.00500800639993271,,
0.0517263443537931,0.229500482206912,0.00515207620781055,,
0.0524983793441482,0.23387942977009,0.00527822123971999,,
0.0532704143345034,0.238377454687583,0.00540048141223881,,
0.0540424493248585,0.242725902952679,0.00553785258775408,,
0.0548144843152136,0.247342600494464,0.00562565272585358,,
0.0555865193055687,0.251503456394387,0.00577659485578375,,
0.0563585542959238,0.255751733979051,0.00592374476082425,,
0.057130589286279,0.25986147825906,0.0060071389704639,,
0.0579026242766341,0.263850959903975,0.00612904597394737,,
0.0586746592669892,0.267993545134336,0.00626665452537134,,
0.0594466942573443,0.272013092438024,0.00638934892211429,,
0.0602187292476995,0.275960944709254,0.00647932018133401,,
0.0609907642380546,0.279631499096874,0.00660226353329874,,
0.0617627992284097,0.283426016508359,0.00671651082146996,,
0.0625348342187648,0.287162946619579,0.00682297102189011,,
0.0633068692091199,0.290826331503954,0.00695854161428944,,
0.0640789041994751,0.29435557729534,0.00707468212007756,,
0.0648509391898302,0.29803006334603,0.00712040303604011,,
0.0656229741801853,0.301470037258289,0.00724827917518978,,
0.0663950091705404,0.304511756828952,0.00736479021898262,,
0.0671670441608955,0.307888592857787,0.00747328837842742,,
0.0679390791512507,0.311214548541006,0.00755828053321173,,
0.0687111141416058,0.314359647722989,0.0076691871896859,,
0.0694831491319609,0.317408536796897,0.00771469388836454,,
0.070255184122316,0.320416952868611,0.00782854169024994,,
0.0710272191126712,0.323380501726463,0.00794604855492986,,
0.0717992541030263,0.326407882290633,0.00803390658959247,,
0.0725712890933814,0.328819610672846,0.00809624960885103,,
0.0733433240837365,0.331865030632281,0.00819694331157583,,
0.0741153590740916,0.334189106055455,0.00830164345647511,,
0.0748873940644468,0.336843672450837,0.0083855355765583,,
0.0756594290548019,0.339423999796479,0.00846760395490032,,
0.076431464045157,0.341659265889122,0.00851982665491091,,
0.0772034990355121,0.343997217770192,0.00859940548103522,,
0.0779755340258672,0.346092562912391,0.00867925642100698,,
0.0787475690162224,0.348281805419682,0.00874316843712819,,
0.0795196040065775,0.350404440929075,0.00882795216428489,,
0.0802916389969326,0.35246578874943,0.0088699155932952,,
0.0810636739872877,0.354430926461711,0.00894569061521722,,
0.0818357089776428,0.356065110653188,0.00898189333618893,,
0.082607743967998,0.357909985730376,0.00907709265506584,,
0.0833797789583531,0.359641767675716,0.00915830995392941,,
0.0841518139487082,0.361324519469827,0.00919566481650858,,
0.0849238489390633,0.362575250874795,0.00926578913386189,,
0.0856958839294184,0.364038985908457,0.00932665000110244,,
0.0864679189197736,0.365020282755957,0.00934237470766863,,
0.0872399539101287,0.366307786774348,0.00939279103490698,,
0.0880119889004838,0.367499543233261,0.00945179921212524,,
0.0887840238908389,0.368618217013925,0.00948568028091223,,
0.0895560588811941,0.369702199649851,0.00952903322744003,,
0.0903280938715492,0.370392322155847,0.00958414496595417,,
0.0911001288619043,0.37110395317158,0.00960538142533762,,
0.0918721638522594,0.371980020213374,0.00965080127917117,,
0.0926441988426145,0.372808676024025,0.00970749359386103,,
0.0934162338329697,0.373085742633335,0.00971388537443874,,
0.0941882688233248,0.37355060397283,0.00974545058069776,,
0.0949603038136799,0.373901215808986,0.00976827919556955,,
0.095732338804035,0.374211123368649,0.00980485245454554,,
0.0965043737943901,0.374485183412082,0.00983530604679128,,
0.0972764087847453,0.374433146694975,0.0098523507949988,,
0.0980484437751004,0.374433609243571,0.00984822277004227,,
0.0988204787654555,0.374409556716553,0.00986674967026735,,
0.0995925137558106,0.374075596629871,0.00989144834413036,,
0.100364548746166,0.373913242072495,0.00991918658756186,,
0.101136583736521,0.373602409415639,0.00990291186364489,,
0.101908618726876,0.373067471963773,0.00991288744148511,,
0.102680653717231,0.372736518442969,0.00993731979115742,,
0.103452688707586,0.372068598269606,0.00991374431062075,,
0.104224723697941,0.371586853906339,0.0099268115649358,,
0.104996758688296,0.370575722674363,0.00986644860813879,,
0.105768793678652,0.369709600427395,0.00991362851749411,,
0.106540828669007,0.368863136495778,0.00989364841353213,,
0.107312863659362,0.367575632477387,0.00988076063856314,,
0.108084898649717,0.366474535543391,0.00983204068062671,,
0.108856933640072,0.365247625391143,0.0098450731970039,,
0.109628968630427,0.364001750746438,0.00981386115978022,,
0.110401003620782,0.36282525839121,0.00980737095504525,,
0.111173038611137,0.361203563011839,0.0098001280949882,,
0.111945073601493,0.359591118604398,0.00977703315592615,,
0.112717108591848,0.357956934412922,0.00975959471108867,,
0.113489143582203,0.356417341409432,0.00968908248676215,,
0.114261178572558,0.35426672170995,0.00969899437838295,,
0.115033213562913,0.352665841017422,0.00962412254284661,,
0.115805248553268,0.350551531382766,0.00962810582639539,,
0.116577283543623,0.348554477817326,0.00955103392145729,,
0.117349318533978,0.346416115655651,0.00956920765264746,,
0.118121353524334,0.344225485502571,0.00950010810446278,,
0.118893388514689,0.34214887357853,0.00943355021540304,,
0.119665423505044,0.339457765844024,0.00940087339513029,,
0.120437458495399,0.337234294740591,0.00935328242017652,,
0.121209493485754,0.334709704500829,0.00930816362847109,,
0.121981528476109,0.33209584238194,0.00923834616290309,,
0.122753563466464,0.329496550543842,0.00917056086670343,,
0.123525598456819,0.32666690950468,0.00913642505303791,,
0.124297633447175,0.323793788897446,0.00907137247462142,,
0.12506966843753,0.320583239089057,0.0089879377373876,,
0.125841703427885,0.317995048417274,0.00891542229197384,,
0.12661373841824,0.31453194707519,0.00883777142140429,,
0.127385773408595,0.311448598130841,0.00877589157465142,,
0.12815780839895,0.308421217566671,0.00870750415419419,,
0.128929843389305,0.30519887276907,0.00864895914948205,,
0.12970187837966,0.301621984472244,0.00856512492596195,,
0.130473913370015,0.298285158897007,0.00848666929316355,,
0.131245948360371,0.294624086755615,0.00842186566996883,,
0.132017983350726,0.290974115780539,0.0083189661081855,,
0.132790018341081,0.287594967008721,0.00827054721237763,,
0.133562053331436,0.283658215903808,0.0082028719196483,,
0.134334088321791,0.280279529680587,0.00811134903253441,,
0.135106123312146,0.276390189806817,0.00801000688830156,,
0.135878158302501,0.272472634468659,0.00790716522308177,,
0.136650193292856,0.26828865113891,0.0078142701874202,,
0.137422228283212,0.264499221761986,0.00772430471785679,,
0.138194263273567,0.259985672557223,0.00761235592324461,,
0.138966298263922,0.25602510019959,0.00752477000242902,,
0.139738333254277,0.251806888273699,0.00744626226272382,,
0.140510368244632,0.247328724036569,0.00733922309667134,,
0.141282403234987,0.243218517207964,0.0072362598486686,,
0.142054438225342,0.238785682733292,0.00712845644798188,,
0.142826473215697,0.234437263377484,0.00699932395341074,,
0.143598508206053,0.229964187174915,0.00690166403059767,,
0.144370543196408,0.225390998110489,0.0067700304044962,,
0.145142578186763,0.220656321767306,0.00668287870790429,,
0.145914613177118,0.215940147367983,0.00655226985097146,,
0.146686648167473,0.211266816532412,0.00644543911254658,,
0.147458683157828,0.206422545081143,0.00633279555917632,,
0.148230718148183,0.201811889580399,0.00619666915976991,,
0.149002753138538,0.196616052286493,0.00609044054560259,,
0.149774788128894,0.191869580954099,0.00600987168824707,,
0.150546823119249,0.186960812882904,0.00587624642037143,,
0.151318858109604,0.182046696593561,0.00574473437705247,,
0.152090893099959,0.176844383619304,0.00561869934861292,,
0.152862928090314,0.171752908852486,0.00548702519491684,,
0.153634963080669,0.166675744182873,0.00535821113144364,,
0.154406998071024,0.16155880033396,0.00522771227798069,,
0.155179033061379,0.156231396873634,0.00512097417405677,,
0.155951068051734,0.150977538640153,0.00496393553602115,,
0.15672310304209,0.145708647577286,0.00483774418686078,,
0.157495138032445,0.140444642183969,0.00468790788128803,,
0.1582671730228,0.135111196682601,0.00457957183221991,,
0.159039208013155,0.129696140263236,0.00441926782801927,,
0.15981124300351,0.124200108930194,0.00429796873844968,,
0.160583277993865,0.118918064141614,0.00414963774352017,,
0.16135531298422,0.113383207635752,0.00400509897348034,,
0.162127347974575,0.107832855751907,0.00387449011654706,,
0.162899382964931,0.10228157877087,0.00373631417880338,,
0.163671417955286,0.0967899705587818,0.00361207394382301,,
0.164443452945641,0.0912118657591463,0.0034510230739575,,
0.165215487935996,0.085652233994084,0.00331700989910821,,
0.165987522926351,0.079996478848809,0.00315395001849916,,
0.166759557916706,0.0743542821592694,0.00303120930450573,,
0.167531592907061,0.0687151209448943,0.00291662042661178,,
0.168303627897416,0.0630442751516581,0.00274056855721971,,
0.169075662887772,0.0572730852222662,0.00257472964157701,,
0.169847697878127,0.0516205100985922,0.00244064120119525,,
0.170619732868482,0.0459089311195758,0.00228704740867025,,
0.171391767858837,0.0401823193111726,0.00216104711816856,,
0.172163802849192,0.0345128900730133,0.00201125712984584,,
0.172935837839547,0.0287745121846864,0.00184784986985775,,
0.173707872829902,0.0229967887563687,0.00169053332831881,,
0.174479907820257,0.0173000402417279,0.00153323994540511,,
0.175251942810613,0.0115066768889907,0.00137235697557259,,
0.176023977800968,0.00572687199198866,0.0012457950884075,,
0.176796012791323,-9.88697625044221E-06,0.00108565319458442,,
0.177568047781678,-0.00578706112810977,0.000942029190242888,,
0.178340082772033,-0.0115786899236101,0.000781302541131179,,
0.179112117762388,-0.0173318115484508,0.000635281619073336,,
0.179884152752743,-0.0231743206895674,0.000473570728387163,,
0.180656187743098,-0.0288507170659617,0.000323937060785262,,
0.181428222733453,-0.0345964379132583,0.000173597055112218,,
0.182200257723809,-0.0403721087821789,1.52846926861905E-05,,
0.182972292714164,-0.0460156063896463,-0.000111068766851297,,
0.183744327704519,-0.0517297004766563,-0.000279498553697355,,
0.184516362694874,-0.0574450087537322,-0.000429661974852724,,
0.185288397685229,-0.0631599701193607,-0.000575746583129977,,
0.186060432675584,-0.0688686292603617,-0.000709117106127533,,
0.186832467665939,-0.0745128206907238,-0.000884659485763439,,
0.187604502656294,-0.0800876876501837,-0.00104271420848345,,
0.18837653764665,-0.0857648356680474,-0.00116353854623474,,
0.189148572637005,-0.0913523648953368,-0.00133335785059785,,
0.18992060762736,-0.0969152055912874,-0.00145811336499069,,
0.190692642617715,-0.102444048965394,-0.00163406970505342,,
0.19146467760807,-0.108000645255292,-0.00181042263657405,,
0.192236712598425,-0.113558629190979,-0.00191633281964387,,
0.19300874758878,-0.119019477921399,-0.00208124539027565,,
0.193780782579135,-0.124499233325701,-0.00223779480235198,,
0.194552817569491,-0.129802642077583,-0.00236500513102511,,
0.195324852559846,-0.135164274134051,-0.00252517018347387,,
0.196096887550201,-0.140629227983265,-0.0026715095366292,,
0.196868922540556,-0.145822781443475,-0.00283290199621788,,
0.197640957530911,-0.151155272938363,-0.00296157131828334,,
0.198412992521266,-0.156369583266842,-0.00313389175417678,,
0.199185027511621,-0.16155157301214,-0.0032362528779224,,
0.199957062501976,-0.166859260338539,-0.00337488330368707,,
0.200729097492332,-0.171933649716573,-0.00351828151143208,,
0.201501132482687,-0.176958315120482,-0.00363486203110019,,
0.202273167473042,-0.182207085319401,-0.00382267848213536,,
0.203045202463397,-0.187090673401374,-0.00395942726959619,,
0.203817237453752,-0.19212366468002,-0.00409534813620294,,
0.204589272444107,-0.196929313323481,-0.00422455300147817,,
0.205361307434462,-0.201868175962737,-0.00437714518345977,,
0.206133342424817,-0.206687238515497,-0.00451651089557714,,
0.206905377415172,-0.21145542072264,-0.00463811683693205,,
0.207677412405528,-0.216108197054953,-0.00481085702290862,,
0.208449447395883,-0.220944373905783,-0.00494237485588389,,
0.209221482386238,-0.225408256954996,-0.00504158640659069,,
0.209993517376593,-0.230003330349895,-0.00517750727319788,,
0.210765552366948,-0.234312722167873,-0.00529913347834965,,
0.211537587357303,-0.238994234331744,-0.00544375909323414,,
0.212309622347658,-0.243462858504072,-0.00556860724212838,,
0.213081657338013,-0.247734436974285,-0.00566793458596182,,
0.213853692328369,-0.251952244170153,-0.0058165203257694,,
0.214625727318724,-0.256616121668783,-0.00592096572579015,,
0.215397762309079,-0.260276037438683,-0.00605554049730284,,
0.216169797299434,-0.26453194707519,-0.00617855911479959,,
0.216941832289789,-0.268531836063526,-0.00625706685450478,,
0.217713867280144,-0.272665632870553,-0.00638392980379798,,
0.218485902270499,-0.276295945530277,-0.00651584422823115,,
0.219257937260854,-0.280374756872894,-0.00661340862171533,,
0.22002997225121,-0.284420842902307,-0.00675039189025695,,
0.220802007241565,-0.287948238499307,-0.00682584269142517,,
0.22157404223192,-0.291464301655693,-0.00694270111459661,,
0.222346077222275,-0.294901673732096,-0.00704784127337588,,
0.22311811221263,-0.298795060906086,-0.00716662186244621,,
0.223890147202985,-0.302170509289132,-0.00727419367688009,,
0.22466218219334,-0.305431361257392,-0.00739202476231382,,
0.225434217183695,-0.308545932232005,-0.00750191243927567,,
0.22620625217405,-0.312130741673547,-0.00754526538580302,,
0.226978287164406,-0.315381533209833,-0.00768449504099733,,
0.227750322154761,-0.31798105632223,-0.00778694879924391,,
0.228522357145116,-0.32132476230784,-0.00786665789263541,,
0.229294392135471,-0.324047612439782,-0.00795779287277565,,
0.230066427125826,-0.326973752679891,-0.00803245338585556,,
0.230838462116181,-0.330062825663121,-0.00811135482219072,,
0.231610497106536,-0.332729418322012,-0.00824430848993352,,
0.232382532096891,-0.334954277071235,-0.00830310823952374,,
0.233154567087247,-0.337819476533753,-0.0083533624563854,,
0.233926602077602,-0.340100534937452,-0.00843342182398432,,
0.234698637067957,-0.342463984809904,-0.00855600042760063,,
0.235470672058312,-0.344712433537549,-0.00862695556063597,,
0.236242707048667,-0.347192619112045,-0.00867672634119465,,
0.237014742039022,-0.349113120884763,-0.00876037529571239,,
0.237786777029377,-0.351032235011691,-0.00883525002607666,,
0.238558812019732,-0.353275306611901,-0.00891042002891318,,
0.239330847010088,-0.355020733740839,-0.00894830753987419,,
0.240102882000443,-0.356880005643093,-0.00901715813283666,,
0.240874916990798,-0.358565070180186,-0.00907403571652887,,
0.241646951981153,-0.360249036164362,-0.00917676737827877,,
0.242418986971508,-0.361864429319105,-0.00922537733274531,,
0.243191021961863,-0.363206514071885,-0.0092631027333292,,
0.243963056952218,-0.364475053597819,-0.00932634604414551,,
0.244735091942573,-0.365888139560163,-0.00937176300315112,,
0.245507126932929,-0.367086602973725,-0.00937806214922787,,
0.246279161923284,-0.368461008309686,-0.0094504096946082,,
0.247051196913639,-0.369510357619447,-0.00949059280430031,,
0.247823231903994,-0.370462513905367,-0.00953086275883708,,
0.248595266894349,-0.371438086713985,-0.00960481114418998,,
0.249367301884704,-0.372162842546145,-0.0096119440007767,,
0.250139336875059,-0.372691073043362,-0.00967238511793367,,
0.250911371865414,-0.37336755036576,-0.00969250996330384,,
0.25168340685577,-0.373800264577797,-0.00971015683576848,,
0.252455441846125,-0.374411291273789,-0.00972006872738884,,
0.25322747683648,-0.37474941429784,-0.00975325503741775,,
0.253999511826835,-0.374801682289245,-0.00981413906328354,,
0.25477154681719,-0.374615275204851,-0.00982923848696737,,
0.255543581807545,-0.374790581122929,-0.00982699210031512,,
0.2563156167979,-0.375081813283008,-0.00985631091992145,,
0.257087651788255,-0.374837298531177,-0.00988069695234328,,
0.25785968677861,-0.374613656284763,-0.00989857541106076,,
0.258631721768966,-0.374357404362296,-0.00988764453992808,,
