Time domain (s),Current (AC) (A),Potential (AC) (V),Frequency (Hz),Column 5
0,-0.147891298767077,-0.00115988514717102,0.01,0.4
0.244140625,-0.15324159838293,-0.00141693034276624,,
0.48828125,-0.158587735061415,-0.00168857174495818,,
0.732421875,-0.163795627528117,-0.00190815874008621,,
0.9765625,-0.168738132737571,-0.00215890295161403,,
1.220703125,-0.173886298616748,-0.00242414402575619,,
1.46484375,-0.17912674294093,-0.00266515988582405,,
1.708984375,-0.184125968172031,-0.00290171630490521,,
1.953125,-0.189110160573745,-0.00316483804075629,,
2.197265625,-0.193970389951594,-0.00342445698137706,,
2.44140625,-0.19880194131646,-0.0036601597780912,,
2.685546875,-0.203920214992588,-0.00389842344190638,,
2.9296875,-0.208466952059151,-0.00412999058542818,,
3.173828125,-0.213090009644138,-0.00439958807716767,,
3.41796875,-0.217939658222842,-0.00460695944186984,,
3.662109375,-0.222554332114518,-0.00483455282609624,,
3.90625,-0.227255849505189,-0.00509122824131314,,
4.150390625,-0.231851269811535,-0.00534496013112573,,
4.39453125,-0.236247100398486,-0.00557149384620681,,
4.638671875,-0.240611015132277,-0.0057905657243893,,
4.8828125,-0.245241068764787,-0.00602678179834548,,
5.126953125,-0.249622791619545,-0.00623684832849536,,
5.37109375,-0.253559600543032,-0.00650469442261992,,
5.615234375,-0.257882811000331,-0.00672316287809416,,
5.859375,-0.262107961155169,-0.00696382551511388,,
6.103515625,-0.266286393901759,-0.00717764504015372,,
6.34765625,-0.270129768008751,-0.00739212317900284,,
6.591796875,-0.274100458616933,-0.00762533685704714,,
6.8359375,-0.278072536870905,-0.00785649374671582,,
7.080078125,-0.281798192360085,-0.00807103075607252,,
7.32421875,-0.285542754523147,-0.00828455592857225,,
7.568359375,-0.289133519277869,-0.0084965320708279,,
7.8125,-0.292987242909708,-0.00872639380931872,,
8.056640625,-0.296510302113616,-0.00892731885338627,,
8.30078125,-0.300084357300289,-0.00915344047491073,,
8.544921875,-0.303431127670351,-0.00935516027083727,,
8.7890625,-0.306739737781201,-0.00954469387159174,,
9.033203125,-0.31006037415556,-0.00976244116334257,,
9.27734375,-0.313190209233858,-0.00994282040009109,,
9.521484375,-0.316083681979338,-0.0101437178486079,,
9.765625,-0.319533600686422,-0.0103656283891014,,
10.009765625,-0.322530684317521,-0.0105564865762879,,
10.25390625,-0.325494869179693,-0.0107617091674448,,
10.498046875,-0.328317167259885,-0.0109547602810571,,
10.7421875,-0.330905184475944,-0.0111399668994681,,
10.986328125,-0.333342295212391,-0.0113070708366454,,
11.23046875,-0.336076419966373,-0.0114950425292322,,
11.474609375,-0.338622518715873,-0.0116603987482011,,
11.71875,-0.341079172130522,-0.0118399813933872,,
11.962890625,-0.343734837078821,-0.0120319286849728,,
12.20703125,-0.345640074747853,-0.0122065386119301,,
12.451171875,-0.347827929609355,-0.0123744796141438,,
12.6953125,-0.350092509719302,-0.0125087227695935,,
12.939453125,-0.351511204083379,-0.012689217907655,,
13.18359375,-0.354009602508864,-0.0128381455754631,,
13.427734375,-0.355839907305261,-0.0130032791903232,,
13.671875,-0.357309771107827,-0.0131429494707365,,
13.916015625,-0.359245016617058,-0.0132567443231464,,
14.16015625,-0.360709445473615,-0.0134487523249436,,
14.404296875,-0.362422262926499,-0.0135844764416122,,
14.6484375,-0.363862639256037,-0.013743780036469,,
14.892578125,-0.36529168314496,-0.0138744578467733,,
15.13671875,-0.366168386191074,-0.0140154968664996,,
15.380859375,-0.367486013686813,-0.0141433212968654,,
15.625,-0.368917832867316,-0.0142715817369319,,
15.869140625,-0.369894966777447,-0.0143644665207541,,
16.11328125,-0.370665804013534,-0.0144853423914637,,
16.357421875,-0.371489429608198,-0.0146266463284759,,
16.6015625,-0.372296981639134,-0.0147231939617227,,
16.845703125,-0.372806941466788,-0.0148302334233308,,
17.08984375,-0.37331458855146,-0.0149439878022659,,
17.333984375,-0.373774593130691,-0.0150717220871668,,
17.578125,-0.374526928422917,-0.0151637366912913,,
17.822265625,-0.374565840323599,-0.0152470384602208,,
18.06640625,-0.374854875377844,-0.0153592456486158,,
18.310546875,-0.37494831019434,-0.0154185282502497,,
18.5546875,-0.375002890928728,-0.015502889688324,,
18.798828125,-0.37495553751616,-0.0155952280802434,,
19.04296875,-0.374923159114404,-0.015665283984855,,
19.287109375,-0.374873608596003,-0.0157509111388534,,
19.53125,-0.374493856198267,-0.0158222327593891,,
19.775390625,-0.374054666305879,-0.0158837524403297,,
20.01953125,-0.37357847252577,-0.0159594746313441,,
20.263671875,-0.372669159803602,-0.0160303841583231,,
20.5078125,-0.372323404727709,-0.0160819547233988,,
20.751953125,-0.371277351076698,-0.0161093000744006,,
20.99609375,-0.370835790622752,-0.0161711582607627,,
21.240234375,-0.369890110017184,-0.0162021977361464,,
21.484375,-0.368678926517217,-0.0162488084609165,,
21.728515625,-0.367413567012884,-0.0162887373830198,,
21.97265625,-0.366239213944915,-0.0163100337893169,,
22.216796875,-0.365325680466804,-0.0163474607148268,,
22.4609375,-0.363706529104714,-0.0163494475944743,,
22.705078125,-0.362231230356139,-0.01639573453145,,
22.94921875,-0.360858848670288,-0.0163768223807303,,
23.193359375,-0.359256811606269,-0.0164366053816827,,
23.4375,-0.357542895600469,-0.016432145940696,,
23.681640625,-0.355937273784827,-0.0164220938014417,,
23.92578125,-0.353821865597254,-0.0164424777148633,,
24.169921875,-0.352121536956477,-0.0164191502760378,,
24.4140625,-0.350148998466651,-0.0164349864427105,,
24.658203125,-0.347806883648213,-0.0164014302531066,,
24.90234375,-0.345377578419333,-0.0164413591752099,,
25.146484375,-0.343123116559934,-0.016399428655832,,
25.390625,-0.34087189254071,-0.0163845638525424,,
25.634765625,-0.338399743748078,-0.0163561882676491,,
25.87890625,-0.335821555689695,-0.016304853184606,,
26.123046875,-0.333200755341858,-0.0163060305947673,,
26.3671875,-0.330610772294264,-0.0162627902065848,,
26.611328125,-0.328046807605224,-0.0162269822200467,,
26.85546875,-0.325183863067114,-0.0161753675020901,,
27.099609375,-0.322031767837608,-0.0160973787965149,,
27.34375,-0.319400386690627,-0.0160600843296481,,
27.587890625,-0.316096864614339,-0.0160372131372601,,
27.83203125,-0.313109089773744,-0.0160033478774886,,
28.076171875,-0.309773998755744,-0.015906034927637,,
28.3203125,-0.306614849660142,-0.0158398350413043,,
28.564453125,-0.303301845337626,-0.015724640174624,,
28.80859375,-0.299944031619822,-0.0156851086284502,,
29.052734375,-0.29626306988878,-0.0156148466770598,,
29.296875,-0.292293651289239,-0.0155465421700636,,
29.541015625,-0.289053267096374,-0.015467670406867,,
29.78515625,-0.285323737762699,-0.0153474862646275,,
30.029296875,-0.281642140027337,-0.0152769741135779,,
30.2734375,-0.277774193026155,-0.0151887566572242,,
30.517578125,-0.273914976629732,-0.015073341026139,,
30.76171875,-0.270022398915786,-0.0149953817558175,,
31.005859375,-0.265734804700419,-0.0148764173369171,,
31.25,-0.261806379470243,-0.0147747792444251,,
31.494140625,-0.257725775751815,-0.0146589956726642,,
31.73828125,-0.253384063350656,-0.0145196344624186,,
31.982421875,-0.249130003908536,-0.0144069434320353,,
32.2265625,-0.24477325867799,-0.0143184297834376,,
32.470703125,-0.240391304548934,-0.0141546961828478,,
32.71484375,-0.235968241413363,-0.0140294050240328,,
32.958984375,-0.23146735447643,-0.0138819638365533,,
33.203125,-0.226958199483333,-0.013760617001779,,
33.447265625,-0.222337107729881,-0.0136121455804084,,
33.69140625,-0.217664441807917,-0.0134639261984004,,
33.935546875,-0.21283844102621,-0.0133279629202927,,
34.1796875,-0.208257417544931,-0.0131951363364435,,
34.423828125,-0.203341393242628,-0.013037687162591,,
34.66796875,-0.198639124210487,-0.0128552916109408,,
34.912109375,-0.193680371981581,-0.0127128838519019,,
35.15625,-0.188634660616531,-0.0125677533318647,,
35.400390625,-0.183920365320882,-0.0124097448881852,,
35.64453125,-0.178682927562577,-0.0122291448870318,,
35.888671875,-0.173540023173685,-0.0120863250344363,,
36.1328125,-0.168410417056942,-0.0118919640520194,,
36.376953125,-0.163336258953206,-0.0117218430013031,,
36.62109375,-0.158206999747911,-0.0115514864685546,,
36.865234375,-0.152811659462472,-0.0113761700955006,,
37.109375,-0.14759249237373,-0.0111762329721472,,
37.353515625,-0.142407264788257,-0.0109906418557304,,
37.59765625,-0.136890678951957,-0.0107991508105822,,
37.841796875,-0.131637572359946,-0.0106106180084646,,
38.0859375,-0.126183372765601,-0.0104132969433137,,
38.330078125,-0.120833824791217,-0.0102254135564888,,
38.57421875,-0.1152665898836,-0.0100157462419714,,
38.818359375,-0.109808921174781,-0.00984290243025709,,
39.0625,-0.104272272293108,-0.00965501904343169,,
39.306640625,-0.0986921438433625,-0.00942196357987779,,
39.55078125,-0.0931891453720857,-0.00922696973949932,,
39.794921875,-0.0876492008316624,-0.00903029808964018,,
40.0390625,-0.0819913063991286,-0.00882656197881193,,
40.283203125,-0.076314678748436,-0.00860782676634786,,
40.52734375,-0.070716221810554,-0.00835252193014746,,
40.771484375,-0.0649847243326002,-0.00816846512634717,,
41.015625,-0.059347702405484,-0.00796437211306378,,
41.259765625,-0.0536725202191555,-0.00771165941892216,,
41.50390625,-0.0479798768233088,-0.0074873903786985,,
41.748046875,-0.042190156040769,-0.00728078433060153,,
41.9921875,-0.0365453864246612,-0.00706935090084215,,
42.236328125,-0.0306911979314827,-0.00682445142694466,,
42.48046875,-0.0250275216414925,-0.0066071714198519,,
42.724609375,-0.0192563028028132,-0.00636480521750471,,
42.96875,-0.0135287948065044,-0.00614533412368967,,
43.212890625,-0.00767570486624251,-0.00589885802399737,,
43.45703125,-0.001952128533004,-0.00567628335058412,,
43.701171875,0.00383065402058804,-0.00540927616119991,,
43.9453125,0.00959629336682185,-0.00519110205826578,,
44.189453125,0.0154517249593535,-0.00493994575318135,,
44.43359375,0.0211320529988182,-0.00472530204102872,,
44.677734375,0.0268137686840724,-0.00450414209951289,,
44.921875,0.0325199994449417,-0.00424240382060193,,
45.166015625,0.0382882117177436,-0.00399573639175799,,
45.41015625,0.0440640849516752,-0.00373817607921723,,
45.654296875,0.0496905260796462,-0.00351008413537546,,
45.8984375,0.0554237870241242,-0.00326375521195299,,
46.142578125,0.0611591583465738,-0.00303521989959732,,
46.38671875,0.0668006612132187,-0.00276538692582573,,
46.630859375,0.0724855858293612,-0.0025253129938867,,
46.875,0.0780534856505862,-0.00227717196263777,,
47.119140625,0.0837733905043399,-0.0020628998705674,,
47.36328125,0.0893880655523871,-0.00178366049342671,,
47.607421875,0.0948299497903499,-0.00155383186959668,,
47.8515625,0.100450811425875,-0.00127855153412426,,
48.095703125,0.106021746722265,-0.00102126165797944,,
48.33984375,0.111531191964606,-0.00080240870449888,,
48.583984375,0.117067175932671,-0.000542951657775959,,
48.828125,0.122562253259233,-0.000276621479234684,,
49.072265625,0.127908389937718,-5.48139621301402E-05,,
49.31640625,0.133378518549355,0.000204335854129489,,
49.560546875,0.138655937851971,0.000431752626831372,,
49.8046875,0.144025433234579,0.000697258618259866,,
50.048828125,0.149218466327619,0.000963371711802719,,
50.29296875,0.15451071609461,0.00118494190717122,,
50.537109375,0.159820542708268,0.00147505577097595,,
50.78125,0.164930779602532,0.00172326487124952,,
51.025390625,0.170044225427684,0.00192412368599548,,
51.26953125,0.17520858050774,0.00217558538184059,,
51.513671875,0.180416935523038,0.00244200386614413,,
51.7578125,0.185336082028368,0.0026988522134781,,
52.001953125,0.190213223339277,0.00292755309913773,,
52.24609375,0.195224243559589,0.00314559474342868,,
52.490234375,0.200217224384637,0.00341293675882781,,
52.734375,0.205009459118799,0.00365998684597368,,
52.978515625,0.209751767513824,0.00391400205010672,,
53.22265625,0.214241900195889,0.00415139737392778,,
53.466796875,0.219233753558733,0.00437648876156116,,
53.7109375,0.223844235603753,0.00463722624183527,,
53.955078125,0.228576541385379,0.00486298360209103,,
54.19921875,0.232947423257406,0.00507333896567097,,
54.443359375,0.237266441868049,0.00534691021670586,,
54.6875,0.241800343211059,0.00555569447360194,,
54.931640625,0.246138586497744,0.00579607747570821,,
55.17578125,0.250425255615918,0.00603753486458691,,
55.419921875,0.25472279462611,0.00622911421549688,,
55.6640625,0.258770557394186,0.0064643166128926,,
55.908203125,0.262976049233673,0.00669314627778839,,
56.15234375,0.267086487336576,0.00693161966778888,,
56.396484375,0.271083138484737,0.00715385215637365,,
56.640625,0.274893613822802,0.00738016510704975,,
56.884765625,0.278785266439555,0.00757230740719317,,
57.12890625,0.282590653743059,0.00778321100237989,,
57.373046875,0.286547294437622,0.00802578325150538,,
57.6171875,0.290019646751637,0.00822598713184908,,
57.861328125,0.293588902996621,0.00844006973447176,,
58.10546875,0.297257607189855,0.00864664634731449,,
58.349609375,0.300332630259467,0.00885887820833986,,
58.59375,0.30400549739007,0.00906392050856608,,
58.837890625,0.307332840719078,0.00926577276313578,,
59.08203125,0.310478402449657,0.00946572276441326,,
59.326171875,0.31384760642665,0.00969760265750885,,
59.5703125,0.316749636321166,0.00987695166036628,,
59.814453125,0.319724055071036,0.0100701057973676,,
60.05859375,0.322597406952568,0.0102626381146274,,
60.302734375,0.325569050410859,0.0104237262217604,,
60.546875,0.328412799182214,0.0106409032054637,,
60.791015625,0.331031286787068,0.0108275815865766,,
61.03515625,0.334124117977645,0.0109969189236541,,
61.279296875,0.336410726964502,0.011201243739563,,
61.5234375,0.338795858802415,0.0113581630788429,,
61.767578125,0.341381505456917,0.0115448892922436,,
62.01171875,0.343617927921052,0.0116908697552414,,
62.255859375,0.345803470039571,0.0118775628539809,,
62.5,0.347895346067296,0.0120263580631463,,
62.744140625,0.350051747624235,0.0121889584064556,,
62.98828125,0.35226434883565,0.0123674537869456,,
63.232421875,0.354016714193535,0.0125105238392003,,
63.4765625,0.355993646895027,0.0126856047302217,,
63.720703125,0.357769370957036,0.0128245685645383,,
63.96484375,0.359227324133242,0.0129726278923523,,
64.208984375,0.360824273162699,0.0130906154287591,,
64.453125,0.362192954459778,0.0132376150874283,,
64.697265625,0.363840552560553,0.0133658828863079,,
64.94140625,0.365087352302451,0.0135292926991033,,
65.185546875,0.366262688286188,0.0136833752157752,,
65.4296875,0.367444962498873,0.0137842314343319,,
65.673828125,0.36870240085849,0.0139205460957843,,
65.91796875,0.369415419520013,0.0140223332042502,,
66.162109375,0.370312532522948,0.014127461214049,,
66.40625,0.371350029024924,0.0142918313520073,,
66.650390625,0.372078543064431,0.0143948069088546,,
66.89453125,0.372548954987083,0.0145200244795349,,
67.138671875,0.37309707507395,0.0146236255355303,,
67.3828125,0.373372985311769,0.0146882616739923,,
67.626953125,0.373788585225735,0.0147929481549807,,
67.87109375,0.374250439999352,0.0148651822683914,,
68.115234375,0.374273567429178,0.0149786846079643,,
68.359375,0.374558728638928,0.0150681383449878,,
68.603515625,0.37461145917893,0.0151567494978639,,
68.84765625,0.374316815722952,0.0152488413695306,,
69.091796875,0.37427333615488,0.0152947014953226,,
69.3359375,0.374304789459443,0.015389766327647,,
69.580078125,0.373702551186784,0.0154690649020273,,
69.82421875,0.373472895808616,0.0155228835846302,,
70.068359375,0.373063540300703,0.0155712604246423,,
70.3125,0.372190711099085,0.0156518688678271,,
70.556640625,0.371430049932121,0.0157090321311704,,
70.80078125,0.370819023236129,0.0157450167292326,,
71.044921875,0.370047492177147,0.0158121585436946,,
71.2890625,0.369072671009998,0.0158444011850869,,
71.533203125,0.368361271268563,0.0158709223489759,,
71.77734375,0.367009935543853,0.0159048317616284,,
72.021484375,0.365799214592483,0.015943881305517,,
72.265625,0.364106055454951,0.016023706035063,,
72.509765625,0.362980212171041,0.016007211254581,,
72.75390625,0.361584471781066,0.0160527770278329,,
72.998046875,0.360133688108107,0.0160447264858536,,
73.2421875,0.358664865039883,0.0160594257158388,,
73.486328125,0.356789693029624,0.0160501388931897,,
73.73046875,0.354832187369185,0.0160872457103123,,
73.974609375,0.353055306935685,0.0160830659042386,,
74.21875,0.351247435746218,0.0160784408899479,,
74.462890625,0.349186550474459,0.0160712329321151,,
74.70703125,0.3472715992849,0.0160623140501417,,
74.951171875,0.344770367749262,0.0160618283684499,,
75.1953125,0.342579043773286,0.0160577626239857,,
75.439453125,0.340348634440906,0.0160044296230746,,
75.68359375,0.337653826317627,0.0159916804786691,,
75.927734375,0.33501198000865,0.0159712560917731,,
76.171875,0.332598632706349,0.0159268530110559,,
76.416015625,0.330055540522726,0.0159010640491113,,
76.66015625,0.327511060693314,0.0158525289946083,,
76.904296875,0.324369661900103,0.0158311994736509,,
77.1484375,0.321564304662259,0.0157998546075064,,
77.392578125,0.318392608935976,0.0157379375506359,,
77.63671875,0.315574069063131,0.0156657475901065,,
77.880859375,0.312319808412371,0.0156274081717211,,
78.125,0.30897951372266,0.0155574258552442,,
78.369140625,0.306076558730952,0.0154790250561123,,
78.61328125,0.302657168231237,0.0154221156718357,,
78.857421875,0.29920239276389,0.0153763254547719,,
79.1015625,0.295498534877321,0.0152911103943301,,
79.345703125,0.291944774010319,0.0152078932517563,,
79.58984375,0.288446981523496,0.0151174387160955,,
79.833984375,0.284750986963068,0.0150037781620322,,
80.078125,0.280874829724298,0.0149273053720398,,
80.322265625,0.277120091492112,0.0148553324965088,,
80.56640625,0.273221500646412,0.0147689289876851,,
80.810546875,0.269394373558872,0.0146399437044882,,
81.0546875,0.265320476795093,0.0145677390263312,,
81.298828125,0.261103883789291,0.014445317804785,,
81.54296875,0.256900473418488,0.0143472542559553,,
81.787109375,0.252914692162345,0.0142203735934219,,
82.03125,0.248457573886356,0.0140646610995576,,
82.275390625,0.244140145286514,0.0139579141507866,,
82.51953125,0.239707570995428,0.0138513732487939,,
82.763671875,0.23553049698534,0.0137451561345956,,
83.0078125,0.230826609033112,0.0135816322601907,,
83.251953125,0.226386605055194,0.0134546007419805,,
83.49609375,0.221648025958227,0.0133236138615085,,
83.740234375,0.216948098578357,0.0131444561878027,,
83.984375,0.21251361627431,0.0130311598950081,,
84.228515625,0.207630490740933,0.0129104017653146,,
84.47265625,0.202792694970015,0.0127707903554097,,
84.716796875,0.197879503777866,0.0125902492247638,,
84.9609375,0.193026212628964,0.0124370534451197,,
85.205078125,0.188133142300763,0.0122534510480539,,
85.44921875,0.183158894693874,0.0121034011611854,,
85.693359375,0.178226999192853,0.0119573323924258,,
85.9375,0.173000200052268,0.0117762025566992,,
86.181640625,0.167979206127844,0.0116080831032574,,
86.42578125,0.162812538304806,0.0113983164447582,,
86.669921875,0.157428270276396,0.011240565559552,,
86.9140625,0.15225136856566,0.0110815305613881,,
87.158203125,0.147090482600078,0.0108847264528857,,
87.40234375,0.14170066398851,0.0106923817853706,,
87.646484375,0.136302953141514,0.010538567865392,,
87.890625,0.130914955815045,0.0103446484117855,,
88.134765625,0.12553967857498,0.0101500372297094,,
88.37890625,0.120142430276581,0.00994560939041111,,
88.623046875,0.114599941718877,0.00975936149988854,,
88.8671875,0.109087518819946,0.00958963782510214,,
89.111328125,0.103560988188822,0.00936527863941317,,
89.35546875,0.0980413957866448,0.00914183194659923,,
89.599609375,0.0924556589351669,0.00895552518556864,,
89.84375,0.0869179982284389,0.00872306394620548,,
90.087890625,0.0812693836771226,0.00852346348857003,,
90.33203125,0.0755636443741371,0.00831268867261947,,
90.576171875,0.0700014396825066,0.00809788490627295,,
90.8203125,0.0642854954011106,0.00791267828786202,,
91.064453125,0.0586033460765472,0.00768749859446682,,
91.30859375,0.0528834701320808,0.00742797899782843,,
91.552734375,0.0472614232157766,0.00723042796975504,,
91.796875,0.0414976051546416,0.00701978929185509,,
92.041015625,0.035751363940174,0.00678129014600737,,
92.28515625,0.0300361134816727,0.00656357228951077,,
92.529296875,0.0242891784443103,0.00633018016023845,,
92.7734375,0.0185623642708962,0.00610319019871985,,
