Time domain (s),Current (AC) (A),Potential (AC) (V),Frequency (Hz),Column 5
0,-0.136305660991049,-0.00207539442239169,2511.9,0.3
1.24407818782595E-05,-0.176362839212866,-0.00265376979023957,,
2.4881563756519E-05,-0.209378639126224,-0.00311482298754973,,
3.73223456347785E-05,-0.234654544433297,-0.00346574064024541,,
4.97631275130379E-05,-0.250160085398784,-0.00366025373694878,,
6.22039093912974E-05,-0.25646170728337,-0.00371504355494467,,
7.46446912695569E-05,-0.252622923333393,-0.0036400722446519,,
8.70854731478164E-05,-0.239068404213323,-0.00343065543871646,,
9.95262550260759E-05,-0.216191377324107,-0.00306962828632829,,
0.000111967036904335,-0.18493360106448,-0.00262619002488051,,
0.000124407818782595,-0.147016290876126,-0.00204641617847434,,
0.000136848600660854,-0.103183075276199,-0.00139080434014005,,
0.000149289382539114,-0.055714197342587,-0.000695974822928047,,
0.000161730164417373,-0.00669074393361944,8.68155127964343E-06,,
0.000174170946295633,0.0421494148427319,0.000716438957922172,,
0.000186611728173892,0.0908170322093782,0.00142381191691499,,
0.000199052510052152,0.136102142835083,0.00208865987561202,,
0.000211493291930411,0.176199908058778,0.00266210306141845,,
0.000223934073808671,0.208966634405443,0.00308564113372745,,
0.00023637485568693,0.234052993748575,0.00346382509969168,,
0.00024881563756519,0.249824892745349,0.00365249646747534,,
0.000261256419443449,0.255903845940325,0.00372221410640305,,
0.000273697201321709,0.2521749734575,0.0036441243496701,,
0.000286137983199968,0.238614086376791,0.00343982592167569,,
0.000298578765078228,0.216248572340546,0.00307404340637385,,
0.000311019546956487,0.185325009048102,0.00262380832480735,,
0.000323460328834747,0.147314885250282,0.00202596409933031,,
0.000335901110713006,0.103728620563502,0.00139982077613166,,
0.000348341892591266,0.0563599505379737,0.000698525304896336,,
0.000360782674469525,0.00755076850788279,-1.00880670705905E-05,,
0.000373223456347785,-0.0416599449304362,-0.000714913223172964,,
0.000385664238226044,-0.0906590461382774,-0.00141558446930512,,
0.000398105020104304,-0.136181660702555,-0.00209215473246838,,
0.000410545801982563,-0.176527613110143,-0.00263826328852534,,
0.000422986583860823,-0.209435880794389,-0.00312790492394743,,
0.000435427365739082,-0.234451842682541,-0.00344479293172695,,
0.000447868147617342,-0.250274382128209,-0.00365994296393612,,
0.000460308929495601,-0.256552958060005,-0.00372722800031422,,
0.00047274971137386,-0.252591620025048,-0.00364041784567526,,
0.00048519049325212,-0.239054315391981,-0.0034111959578591,,
0.00049763127513038,-0.21626060848593,-0.00307896889072135,,
0.000510072057008639,-0.18526118948653,-0.00261437261315622,,
0.000522512838886898,-0.146898122053419,-0.00203483184650954,,
0.000534953620765158,-0.103225621650581,-0.00138481928056322,,
0.000547394402643417,-0.0556351226665156,-0.000687024024339955,,
0.000559835184521677,-0.00668225331943361,1.00478809055282E-05,,
0.000572275966399936,0.0421497880565423,0.000733989595919748,,
0.000584716748278196,0.0908122037557066,0.00140483868865982,,
0.000597157530156455,0.136124978855105,0.00208659698578462,,
0.000609598312034715,0.176004204066967,0.00263705904310019,,
0.000622039093912974,0.209043399821063,0.00310895446785286,,
0.000634479875791234,0.234101721476691,0.00344576543693131,,
0.000646920657669493,0.24955547902599,0.00366655626723311,,
0.000659361439547753,0.255842125706435,0.00371143885590275,,
0.000671802221426012,0.252115585809926,0.00364491199851313,,
0.000684243003304272,0.238635756103655,0.00342588668041444,,
0.000696683785182531,0.216174676006093,0.00307749673752644,,
0.000709124567060791,0.185409938515824,0.00261774557197736,,
0.00072156534893905,0.147364755945693,0.00205887388976889,,
0.00073400613081731,0.103834053464931,0.00138056892379623,,
0.000746446912695569,0.0564090748057632,0.000713218706529517,,
0.000758887694573829,0.00753238772772224,6.50614018882223E-06,,
0.000771328476452088,-0.0416792587451227,-0.000718099986094511,,
0.000783769258330348,-0.0906463102169986,-0.00143543241642874,,
0.000796210040208607,-0.136303515011639,-0.00208730158321924,,
0.000808650822086867,-0.176345997939673,-0.0026626442351132,,
0.000821091603965126,-0.209472222489174,-0.00310097215585259,,
0.000833532385843386,-0.23441218871519,-0.0034584441721357,,
0.000845973167721645,-0.250211542252888,-0.00365608911066806,,
0.000858413949599905,-0.256627600822078,-0.00373540320590848,,
0.000870854731478164,-0.252615925574448,-0.00364984685963199,,
0.000883295513356424,-0.2389730947365,-0.00345015778481672,,
0.000895736295234683,-0.216237422577961,-0.00309105421021538,,
0.000908177077112943,-0.185295478505357,-0.00260597638365123,,
0.000920617858991202,-0.146949578907523,-0.00204740475814491,,
0.000933058640869462,-0.103218670543363,-0.00139558113567517,,
0.000945499422747721,-0.0556884922413981,-0.000701362448177978,,
0.00095794020462598,-0.00671430305539883,1.66571655855208E-05,,
0.00097038098650424,0.042127348576194,0.000726714560431496,,
0.000982821768382499,0.0909146975983785,0.00145667348395495,,
0.000995262550260759,0.136108720728491,0.00207994215678342,,
0.00100770333213902,0.176096061316043,0.00266706739239231,,
0.00102014411401728,0.209053289987037,0.00310242287642604,,
0.00103258489589554,0.233880638945775,0.00344916518653005,,
0.0010450256777738,0.249753328997211,0.00364881005656326,,
0.00105746645965206,0.25578451082446,0.00372342237044476,,
0.00106990724153032,0.252110360816581,0.00364624617920661,,
0.00108234802340858,0.238783128907024,0.0034100211822885,,
0.00109478880528683,0.21612440877101,0.0030876933072439,,
0.00110722958716509,0.185236837285403,0.00261326615406698,,
0.00111967036904335,0.147394566398796,0.0020412911028389,,
0.00113211115092161,0.103771400196516,0.00140825183364646,,
0.00114455193279987,0.0563334523574377,0.000698825361598487,,
0.00115699271467813,0.00753469698817388,1.82351423494431E-05,,
0.00116943349655639,-0.0416479087850519,-0.000743600787159959,,
0.00118187427843465,-0.0906859641843501,-0.00144075172519731,,
0.00119431506031291,-0.136228452384029,-0.00207619412708437,,
0.00120675584219117,-0.176441913888937,-0.00264196175528708,,
0.00121919662406943,-0.209561000724315,-0.00312021998957146,,
0.00123163740594769,-0.234403884707909,-0.00343252141633288,,
0.00124407818782595,-0.250229736426144,-0.00364628100721642,,
0.00125651896970421,-0.256329356335869,-0.0037094121336243,,
0.00126895975158247,-0.252481568602716,-0.00366213043087615,,
0.00128140053346073,-0.239100127387204,-0.00343530899667721,,
0.00129384131533899,-0.216225246477398,-0.00307402733190765,,
0.00130628209721725,-0.185307841212825,-0.00259110482335156,,
0.00131872287909551,-0.146950931807586,-0.00205103624796399,,
0.00133116366097377,-0.103213212291386,-0.00139625894233264,,
0.00134360444285202,-0.0556745900269619,-0.000721310860715363,,
0.00135604522473028,-0.00673660258056823,3.15514980457898E-05,,
0.00136848600660854,0.0421424170837875,0.000693303782463239,,
0.0013809267884868,0.0907089168336876,0.00141707939466063,,
0.00139336757036506,0.136081242861703,0.00208647106913284,,
0.00140580835224332,0.176031075461313,0.00266482500435927,,
0.00141824913412158,0.209064113187538,0.00312633632395576,,
0.00143068991599984,0.233714138934626,0.00344488937852416,,
0.0014431306978781,0.24989470705375,0.00367103568514349,,
0.00145557147975636,0.255716445955795,0.00372208015251818,,
0.00146801226163462,0.252241312212293,0.00366574718576818,,
0.00148045304351288,0.238690688511369,0.00341943010316292,,
0.00149289382539114,0.216236769453793,0.00306266000523658,,
0.0015053346072694,0.185466410430505,0.00259183353248549,,
0.00151777538914766,0.147390111158934,0.00204267082785314,,
0.00153021617102592,0.103849145298388,0.0013980311522297,,
0.00154265695290418,0.0563406133974241,0.000694892475538111,,
0.00155509773478244,0.00751244411473078,-1.24751252994493E-05,,
0.0015675385166607,-0.0416918080594963,-0.000724752136017859,,
0.00157997929853895,-0.0906406653581169,-0.00143453224632228,,
0.00159242008041721,-0.136237922684467,-0.00207553909258751,,
0.00160486086229547,-0.176340399732518,-0.00266985095412009,,
0.00161730164417373,-0.209533709464432,-0.0031126462369202,,
0.00162974242605199,-0.23448473214958,-0.00346557587696728,,
0.00164218320793025,-0.250413077710486,-0.00367186084107418,,
0.00165462398980851,-0.256350442916155,-0.00372400774892157,,
0.00166706477168677,-0.252539370091597,-0.0036563329067385,,
0.00167950555356503,-0.238967263270713,-0.00342026999402112,,
0.00169194633544329,-0.216262567858435,-0.00306837313842667,,
0.00170438711732155,-0.185199749162998,-0.00259465861991748,,
0.00171682789919981,-0.147089440782958,-0.00203589811943328,,
0.00172926868107807,-0.103241669844427,-0.00139651479425273,,
0.00174170946295633,-0.0555890774126617,-0.000697519311220418,,
0.00175415024483459,-0.00675050479500438,-1.60208846322618E-06,,
0.00176659102671285,0.0421468723236488,0.000724837866504124,,
0.00177903180859111,0.0908137432626743,0.00145140909627894,,
0.00179147259046937,0.135985910059017,0.00209571120811258,,
0.00180391337234763,0.176046750441349,0.00263536050784019,,
0.00181635415422589,0.20907013126023,0.00309831049216003,,
0.00182879493610414,0.233764032955899,0.00345786147273675,,
0.0018412357179824,0.24976221615107,0.00367190102723969,,
0.00185367649986066,0.255847560632549,0.00372493337026603,,
0.00186611728173892,0.251944234019241,0.0036569169456766,,
0.00187855806361718,0.238855065868972,0.00345590842509491,,
0.00189099884549544,0.216141040111434,0.00308271825995909,,
0.0019034396273737,0.185330257367311,0.00262113192618729,,
0.00191588040925196,0.14734331947746,0.0020685132113254,,
0.00192832119113022,0.103711219469594,0.001410837143625,,
0.00194076197300848,0.0563425494440654,0.000704112521434652,,
0.00195320275488674,0.00752212434793716,4.28518477768591E-06,,
0.001965643536765,-0.0416493083368408,-0.000712268973485308,,
0.00197808431864326,-0.0906828851704146,-0.00142380387968144,,
0.00199052510052152,-0.136274124424073,-0.00207870442288716,,
0.00200296588239978,-0.176398014614493,-0.00266621946430101,,
0.00201540666427804,-0.209502032942277,-0.00310881247673489,,
0.0020278474461563,-0.234597489372037,-0.00346125586417934,,
0.00204028822803456,-0.250241166099086,-0.00367421575037064,,
0.00205272900991282,-0.256489371757064,-0.00371692024887205,,
0.00206516979179107,-0.25250204871056,-0.00366288593078679,,
0.00207761057366933,-0.238937126255526,-0.00342697840457618,,
0.00209005135554759,-0.216107450868501,-0.00307437025385315,,
0.00210249213742585,-0.185024105413494,-0.00259496805339143,,
0.00211493291930411,-0.147023848455786,-0.00204399563177438,,
0.00212737370118237,-0.103213212291386,-0.00139709213549644,,
0.00213981448306063,-0.0557344908435257,-0.000703383812300729,,
0.00215225526493889,-0.0067224671075006,1.56243811328949E-05,,
0.00216469604681715,0.0421609844708533,0.000723459481029032,,
0.00217713682869541,0.0908092880228131,0.00142356544176669,,
0.00218957761057367,0.136172750222832,0.0020824417362757,,
0.00220201839245193,0.176182320357964,0.0026484424442379,,
0.00221445917433019,0.20929872471908,0.00310488762790762,,
0.00222689995620845,0.233580901604325,0.00345989489270915,,
0.00223934073808671,0.249994121882487,0.00364862252112452,,
0.00225178151996497,0.25578451082446,0.00371981365278584,,
0.00226422230184323,0.252063172595432,0.00364840015767554,,
0.00227666308372149,0.238664586870506,0.00343561441153506,,
0.00228910386559975,0.216186292285941,0.00308049730454796,,
0.00230154464747801,0.185234131485278,0.00262048626846223,,
0.00231398542935626,0.147371357164963,0.0020519859810082,,
0.00232642621123452,0.103788404750751,0.00137528042442092,,
0.00233886699311278,0.0562994199231049,0.000706077624926138,,
0.00235130777499104,0.00753196786218558,-2.70131404258578E-05,,
0.0023637485568693,-0.0416916214525911,-0.000715045837519135,,
0.00237618933874756,-0.0906992599263444,-0.00143301053018963,,
0.00238863012062582,-0.136201814248314,-0.00208073650332086,,
0.00240107090250408,-0.176385092086309,-0.00261786077231863,,
0.00241351168438234,-0.209463312009451,-0.00309646192854851,,
0.0024259524662606,-0.234333114039119,-0.00347043974252736,,
0.00243839324813886,-0.250378788691659,-0.00363244357090808,,
0.00245083403001712,-0.256377734176038,-0.00371834149959094,,
0.00246327481189538,-0.252434730269515,-0.00364900295015724,,
0.00247571559377364,-0.23900924982438,-0.00344583643249052,,
0.0024881563756519,-0.216077080594683,-0.00306399820454617,,
0.00250059715753016,-0.185315772006296,-0.00262857842264808,,
0.00251303793940842,-0.147089067569147,-0.00204543831511472,,
0.00252547872128668,-0.103262756424712,-0.00139139507677255,,
0.00253791950316494,-0.0557099520354941,-0.00070451706216712,,
0.0025503602850432,-0.00666769798082931,-7.0111463350564E-06,,
0.00256280106692145,0.0421588851431699,0.000728536333265861,,
0.00257524184879971,0.0908744604844483,0.00143452554862789,,
0.00258768263067797,0.136101186474694,0.00205920877448085,,
0.00260012341255623,0.176006140113608,0.00264636615902214,,
0.00261256419443449,0.209010137140214,0.00310262380725312,,
0.00262500497631275,0.23395551496648,0.00344840968661897,,
0.00263744575819101,0.249735741296397,0.00366816907200684,,
0.00264988654006927,0.255780078910462,0.00373448696133627,,
0.00266232732194753,0.25210494921633,0.00362880270431676,,
0.00267476810382579,0.238730319152857,0.00342974991045475,,
0.00268720888570405,0.215949768033621,0.00307707612232777,,
0.00269964966758231,0.1853807112093,0.00260340446906193,,
0.00271209044946057,0.147335948504705,0.00202554080505379,,
0.00272453123133883,0.103706787555596,0.00141142654071835,,
0.00273697201321709,0.0563684644780227,0.000717761082766,,
0.00274941279509535,0.00756159170838342,-2.39482755399756E-05,,
0.00276185357697361,-0.0416167920836126,-0.000699706778160891,,
0.00277429435885187,-0.0906561537312471,-0.00144579508896348,,
0.00278673514073012,-0.136187118954531,-0.00210105060996391,,
0.00279917592260838,-0.17629981273064,-0.00265553530244267,,
0.00281161670448664,-0.209528904336623,-0.00311226714742618,,
0.0028240574863649,-0.234432668823034,-0.00344592618159334,,
0.00283649826824316,-0.250211355645983,-0.00365871058819511,,
0.00284893905012142,-0.256446965337861,-0.00372400774892157,,
0.00286137983199968,-0.252586348379977,-0.00365134580360404,,
0.00287382061387794,-0.239025064759594,-0.00343333183733607,,
0.0028862613957562,-0.216389040688423,-0.00305540104421453,,
0.00289870217763446,-0.185422744414692,-0.00261386224885474,,
0.00291114295951272,-0.147083422710266,-0.00203729793753027,,
0.00292358374139098,-0.103244375644552,-0.0014058888871169,,
0.00293602452326924,-0.0556556027743595,-0.000709425132509267,,
0.0029484653051475,-0.00671103743455813,1.59244378350465E-05,,
0.00296090608702576,0.0421205840758811,0.000708609353350376,,
0.00297334686890402,0.0908679059169038,0.00143567219388263,,
0.00298578765078228,0.13607195916817,0.00209097191966512,,
0.00299822843266054,0.176001498266842,0.00265843808312827,,
0.0030106692145388,0.209156763515961,0.00311653893681507,,
0.00302310999641706,0.23401723520037,0.00346956636319806,,
0.00303555077829531,0.249646566521583,0.00367165723116925,,
0.00304799156017357,0.255747002836518,0.00370976443234161,,
0.00306043234205183,0.252114419516768,0.00363680243032238,,
0.00307287312393009,0.238633446843204,0.00342708422814519,,
0.00308531390580835,0.216332522122015,0.00307157597581442,,
0.00309775468768661,0.1853064649869,0.00259661032802017,,
0.00311019546956487,0.14737058741148,0.00205098668502668,,
0.00312263625144313,0.103736364750068,0.00140091919798779,,
0.00313507703332139,0.0563377209903938,0.000727648219009058,,
0.00314751781519965,0.00753315748120612,1.00371645945785E-05,,
0.00315995859707791,-0.041673473931062,-0.00071871081580932,,
0.00317239937895617,-0.0906526548517749,-0.00141138635455285,,
0.00318484016083443,-0.136278976203608,-0.00208931089149234,,
0.00319728094271269,-0.176292068544075,-0.00263999531225689,,
0.00320972172459095,-0.209633917372515,-0.00312668460405607,,
0.00322216250646921,-0.234557835404686,-0.00345124549036191,,
0.00323460328834747,-0.250249470106367,-0.00365298941777148,,
0.00324704407022573,-0.256362992230528,-0.00372831704539811,,
0.00325948485210399,-0.252593346138921,-0.00363189837859634,,
0.00327192563398224,-0.239209012516378,-0.00342513385958121,,
0.0032843664158605,-0.216251138185492,-0.0030798690608278,,
0.00329680719773876,-0.185304528940258,-0.00261469410247983,,
0.00330924797961702,-0.147132546978055,-0.00202965586839765,,
0.00332168876149528,-0.103276098818433,-0.00138585206501585,,
0.00333412954337354,-0.0556789752892337,-0.00068200343273439,,
0.0033465703252518,-0.00671822180040768,1.18803700503989E-05,,
0.00335901110713006,0.0421857565375163,0.000744973814480243,,
0.00337145188900832,0.0907748823746699,0.00143697154656586,,
0.00338389267088658,0.136141003723088,0.00206820243831229,,
0.00339633345276484,0.176008845913733,0.00266218075467162,,
0.0034087742346431,0.209159469316087,0.0031170050963345,,
0.00342121501652136,0.233811034570142,0.00346587995228598,,
0.00343365579839962,0.249837675318354,0.00368482757713151,,
0.00344609658027788,0.255929177827703,0.00373393239225273,,
0.00345853736215614,0.252218499518134,0.00366252693437552,,
0.0034709781440344,0.238949069097458,0.00344616729858593,,
0.00348341892591266,0.216279339154038,0.00310108869573256,,
0.00349585970779092,0.185357315368562,0.00261678914123964,,
0.00350830048966918,0.14730597477056,0.00206390251860755,,
0.00352074127154743,0.103737321110457,0.00140730611921924,,
0.00353318205342569,0.0563355983368473,0.000728714491932791,,
0.00354562283530395,0.00753392723469,3.31803772857242E-06,,
0.00355806361718221,-0.0416489351230304,-0.000740869467447336,,
0.00357050439906047,-0.0906401055374013,-0.00143180092660922,,
0.00358294518093873,-0.136154835959934,-0.00210870205586833,,
0.00359538596281699,-0.176246909673021,-0.00265706773488539,,
0.00360782674469525,-0.209468350395891,-0.00312198550177456,,
0.00362026752657351,-0.234552797018246,-0.00343857345285192,,
0.00363270830845177,-0.250329524468691,-0.00367294854661937,,
0.00364514909033003,-0.256409270743014,-0.00372956147698877,,
0.00365758987220829,-0.252547674098878,-0.00362935459432245,,
0.00367003065408655,-0.238998613230784,-0.00345205591136555,,
0.00368247143596481,-0.216258275899616,-0.00305205755524751,,
0.00369491221784307,-0.185143627136264,-0.00261493923808898,,
0.00370735299972133,-0.147044748429166,-0.00202711342366246,,
0.00371979378159959,-0.10324880755855,-0.00137257991410156,,
0.00373223456347785,-0.0555952354405327,-0.000700375208046555,,
0.00374467534535611,-0.00673543628741084,1.26586421216324E-05,,
0.00375711612723437,0.0421714577834067,0.000706411170099397,,
0.00376955690911262,0.0907230289808921,0.00144100087942345,,
0.00378199769099088,0.136117794489255,0.00207554579028191,,
0.00379443847286914,0.175866114957131,0.00264683231854157,,
0.0038068792547474,0.209127372928395,0.00310907502634938,,
0.00381932003662566,0.234054929795217,0.00344468844769708,,
0.00383176081850392,0.249742692403615,0.00364866538636743,,
0.00384420160038218,0.255801911918368,0.00370940811500775,,
0.00385664238226044,0.252241685426103,0.00362547261073853,,
0.0038690831641387,0.238849654268722,0.00342846395315988,,
0.00388152394601696,0.215943376747119,0.00310067879684484,,
0.00389396472789522,0.185355775861594,0.00258768899928707,,
0.00390640550977348,0.14750886312822,0.00204978913729592,,
0.00391884629165174,0.103760950209825,0.00139848659543862,,
0.00393128707353,0.0563603470776472,0.00070318957916804,,
0.00394372785540826,0.00751363373375132,9.22674359093989E-06,,
0.00395616863728652,-0.0416054090623964,-0.000741758921242841,,
0.00396860941916478,-0.0906677700110947,-0.00143733188251627,,
0.00398105020104304,-0.136310092905047,-0.00207172944410106,,
0.0039934909829213,-0.176348703739798,-0.00265184621245274,,
0.00400593176479956,-0.209728667028622,-0.00310580387248027,,
0.00401837254667781,-0.234400432480163,-0.00345358968334741,,
