Time domain (s),Current (AC) (A),Potential (AC) (V),Frequency (Hz),Column 5
0,0.00486803488541515,0.00118581208686885,0.79433,0.4
0.00307354153815165,-0.00091289747379084,0.00100583390545683,,
0.0061470830763033,-0.00667440279194333,0.000829292289953543,,
0.00922062461445495,-0.012480312775361,0.000653416647072635,,
0.0122941661526066,-0.018205276754389,0.000504165191470118,,
0.0153677076907583,-0.0239777097831341,0.000367394283579792,,
0.0184412492289099,-0.0297157985785882,0.000191047676634248,,
0.0215147907670615,-0.0354370043502696,5.99007419710418E-06,,
0.0245883323052132,-0.0411978736641018,-0.000143130762466193,,
0.0276618738433649,-0.046950532740346,-0.000307114562715149,,
0.0307354153815165,-0.052603628231191,-0.000479767045278301,,
0.0338089569196681,-0.0583166237652843,-0.000663575489122437,,
0.0368824984578198,-0.0640329149581278,-0.000810440849444927,,
0.0399560399959715,-0.0697145150062328,-0.000963859233197528,,
0.0430295815341231,-0.075320777451681,-0.00112320698093527,,
0.0461031230722748,-0.080967512899324,-0.00131552221319664,,
0.0491766646104264,-0.0866280091677132,-0.00145663298135412,,
0.052250206148578,-0.0921637907707678,-0.00159122935985279,,
0.0553237476867297,-0.0978086760240248,-0.00177179808604899,,
0.0583972892248813,-0.103410197346359,-0.00196211172103578,,
0.061470830763033,-0.108781774197652,-0.0021210473752169,,
0.0645443723011846,-0.114267195822261,-0.00224392484320113,,
0.0676179138393363,-0.119836685654287,-0.00243030887177387,,
0.0706914553774879,-0.125234859049879,-0.00260219603773226,,
0.0737649969156396,-0.130706808946615,-0.0027427935286477,,
0.0768385384537913,-0.136022879966326,-0.00290799889193938,,
0.0799120799919429,-0.141430304333849,-0.00305944327396768,,
0.0829856215300945,-0.146665891897767,-0.0032246927901407,,
0.0860591630682462,-0.151980575271689,-0.00340100812212851,,
0.0891327046063978,-0.157193902684401,-0.00352494893866462,,
0.0922062461445495,-0.162434404827157,-0.00366186518312173,,
0.0952797876827012,-0.167561756019492,-0.00383423619106837,,
0.0983533292208528,-0.172730274036916,-0.00403738727622294,,
0.101426870759004,-0.177842823674162,-0.00413929028600091,,
0.104500412297156,-0.182929239315706,-0.00431376775431502,,
0.107573953835308,-0.187767960183817,-0.00444521272092757,,
0.110647495373459,-0.192769787250773,-0.00462073330105639,,
0.113721036911611,-0.197545081142588,-0.00474936536120518,,
0.116794578449763,-0.202572059289479,-0.00490094404158015,,
0.119868119987914,-0.207411936529082,-0.00504017095347953,,
0.122941661526066,-0.212122762710257,-0.00517758943695901,,
0.126015203064218,-0.217064169366794,-0.00531745104652304,,
0.129088744602369,-0.221479484813373,-0.0054619192733445,,
0.132162286140521,-0.226094968165093,-0.00562917038679212,,
0.135235827678673,-0.230587933957311,-0.00574604306295257,,
0.138309369216824,-0.235287890246469,-0.00589207319794127,,
0.141382910754976,-0.239762585369125,-0.00601609680112958,,
0.144456452293128,-0.244019824832847,-0.0061820233281451,,
0.147529993831279,-0.248321758054706,-0.00628815213658118,,
0.150603535369431,-0.252875375531642,-0.00645128231446312,,
0.153677076907583,-0.256739275232604,-0.00657424808820961,,
0.156750618445734,-0.261028719642357,-0.00671650683127467,,
0.159824159983886,-0.265263872410595,-0.00683417609899761,,
0.162897701522037,-0.269083772176314,-0.00696146885508764,,
0.165971243060189,-0.27329735861624,-0.00708509692204951,,
0.169044784598341,-0.276991965530879,-0.00718583907899673,,
0.172118326136492,-0.281003418234128,-0.00730790707749485,,
0.175191867674644,-0.284785678107806,-0.00744461911487715,,
0.178265409212796,-0.288347533575246,-0.00756992499131925,,
0.181338950750947,-0.292138581872258,-0.00768348620140058,,
0.184412492289099,-0.295718014186365,-0.00779731416847085,,
0.187486033827251,-0.299235002439944,-0.00788480862139762,,
0.190559575365402,-0.302692784473169,-0.00803747456646864,,
0.193633116903554,-0.306001857132615,-0.00811752373982655,,
0.196706658441706,-0.309290346379517,-0.00825433880059823,,
0.199780199979857,-0.312386646684567,-0.00835284387823831,,
0.202853741518009,-0.315510931179707,-0.00844117907560804,,
0.205927283056161,-0.318758253601519,-0.00853148643499857,,
0.209000824594312,-0.321629755288665,-0.008634243067144,,
0.212074366132464,-0.324711022764329,-0.00871676664154464,,
0.215147907670616,-0.327397273738572,-0.00881151872429475,,
0.218221449208767,-0.330239634864138,-0.0089471416572775,,
0.221294990746919,-0.33292472946689,-0.009010074230412,,
0.22436853228507,-0.335521419469133,-0.00910935934228441,,
0.227442073823222,-0.338087003078261,-0.00918602346142805,,
0.230515615361374,-0.34068554327489,-0.00927187137983143,,
0.233589156899525,-0.342827952736784,-0.00934824114643495,,
0.236662698437677,-0.345347223667687,-0.00944671678882081,,
0.239736239975829,-0.347147867535333,-0.00951070903110063,,
0.24280978151398,-0.349488132159385,-0.00960210549489071,,
0.245883323052132,-0.351722241880538,-0.00968653868139713,,
0.248956864590284,-0.353468536288094,-0.00973237121163839,,
0.252030406128435,-0.35557081965924,-0.00981841045919341,,
0.255103947666587,-0.35733920076228,-0.00985127492032767,,
0.258177489204739,-0.358764312988133,-0.00993300374286887,,
0.26125103074289,-0.360355769253007,-0.00997956847505455,,
0.264324572281042,-0.362122184524512,-0.010040793803455,,
0.267398113819194,-0.363789440940639,-0.0101357795285342,,
0.270471655357345,-0.36490325796104,-0.0101973470417627,,
0.273545196895497,-0.366158614851973,-0.0102385987105946,,
0.276618738433648,-0.367580951786247,-0.0102637805704244,,
0.2796922799718,-0.368436435415496,-0.0103360018059115,,
0.282765821509952,-0.369569390384077,-0.010365700137533,,
0.285839363048103,-0.370651349369893,-0.0104010518776336,,
0.288912904586255,-0.371149282934038,-0.0104307520489586,,
0.291986446124407,-0.371998753431532,-0.0104906951041048,,
0.295059987662558,-0.372762016434352,-0.0105308466303167,,
0.29813352920071,-0.373795118724661,-0.0105355121180817,,
0.301207070738862,-0.373728916456785,-0.0105887586529345,,
0.304280612277013,-0.374378334686288,-0.0106043317420244,,
0.307354153815165,-0.37454647110112,-0.0106203150849673,,
0.310427695353317,-0.374859674319533,-0.0106806591954496,,
0.313501236891468,-0.375227573909484,-0.0106658495832614,,
0.31657477842962,-0.375251163887906,-0.0106975697488947,,
0.319648319967772,-0.375221792052027,-0.0107048972874471,,
0.322721861505923,-0.375076551792723,-0.0107250622761668,,
0.325795403044075,-0.374279580560933,-0.0107441344810804,,
0.328868944582227,-0.374190308681806,-0.0107081664403488,,
0.331942486120378,-0.374049693908466,-0.0107390587394622,,
0.33501602765853,-0.373505042936074,-0.0107425596949895,,
0.338089569196681,-0.372669969263646,-0.010728844706311,,
0.341163110734833,-0.372279115699593,-0.0107567916403171,,
0.344236652272985,-0.371824372610647,-0.010759632142332,,
0.347310193811136,-0.370658518873139,-0.0107329196492918,,
0.350383735349288,-0.37009808342989,-0.0107279322134355,,
0.35345727688744,-0.369159109778971,-0.0107088876040726,,
0.356530818425591,-0.367632757229056,-0.0107119488704925,,
0.359604359963743,-0.36681011455016,-0.0106518678375931,,
0.362677901501895,-0.365295036622285,-0.0106591254674169,,
0.365751443040046,-0.364237130163488,-0.0106225503245705,,
0.368824984578198,-0.362575482149093,-0.0106295283194813,,
0.37189852611635,-0.361006575128299,-0.0105824171953923,,
0.374972067654501,-0.359487045170183,-0.0105607822836742,,
0.378045609192653,-0.357803888646051,-0.010517173954816,,
0.381119150730805,-0.356456426765837,-0.0105066214162428,,
0.384192692268956,-0.354427688621536,-0.0104452047586916,,
0.387266233807108,-0.352383223824953,-0.0103942670515775,,
0.39033977534526,-0.350326443671988,-0.0103705275191954,,
0.393413316883411,-0.348465205938199,-0.0102832096777932,,
0.396486858421563,-0.346010923085107,-0.0102755546720399,,
0.399560399959714,-0.343752992111234,-0.0102209246802478,,
0.402633941497866,-0.34142220973341,-0.0101572819816096,,
0.405707483036018,-0.338976252755055,-0.0101054023463663,,
0.408781024574169,-0.33671132573366,-0.0100521558115139,,
0.411854566112321,-0.334056817156853,-0.0100136103463502,,
0.414928107650473,-0.33148851607472,-0.00995139893693997,,
0.418001649188624,-0.328377414214581,-0.0098608560955169,,
0.421075190726776,-0.325904166869032,-0.00978826875905803,,
0.424148732264928,-0.323064060667874,-0.00972437954016714,,
0.427222273803079,-0.319853568678059,-0.00966988016731474,,
0.430295815341231,-0.317098629237234,-0.00961005117377756,,
0.433369356879383,-0.313634834072255,-0.0095285173597941,,
0.436442898417534,-0.310577330030736,-0.00945535603588121,,
0.439516439955686,-0.307279416356181,-0.00934950686235858,,
0.442589981493838,-0.304186122617007,-0.0093212490184813,,
0.445663523031989,-0.300479026890263,-0.00919305664743986,,
0.448737064570141,-0.297097565375462,-0.00909750981283031,,
0.451810606108293,-0.293512351203898,-0.00901738889104076,,
0.454884147646444,-0.290099205110237,-0.008935249814646,,
0.457957689184596,-0.286090990247163,-0.00883474313973132,,
0.461031230722747,-0.282560414628562,-0.0087474970467607,,
0.464104772260899,-0.278743347972996,-0.00863805493254199,,
0.467178313799051,-0.27477196354192,-0.00855189978367443,,
0.470251855337202,-0.270941136065608,-0.00847491187673644,,
0.473325396875354,-0.266943097271657,-0.00836030571513691,,
0.476398938413506,-0.262679555583309,-0.0082283309139517,,
0.479472479951657,-0.258628554975057,-0.0081308579099062,,
0.482546021489809,-0.254386290522148,-0.0080133082229028,,
0.485619563027961,-0.250043479568072,-0.00792709236382372,,
0.488693104566112,-0.245872158506153,-0.00779801877486452,,
0.491766646104264,-0.2414235973792,-0.00769998282158557,,
0.494840187642416,-0.237162137159535,-0.00756895362793619,,
0.497913729180567,-0.232732077976442,-0.00745328779719134,,
0.500987270718719,-0.227989104667809,-0.00733831369491655,,
0.504060812256871,-0.223438378119601,-0.00720667923885587,,
0.507134353795022,-0.218776697726805,-0.00705129053278641,,
0.510207895333174,-0.213930633899724,-0.00692492498719854,,
0.513281436871326,-0.209243860245567,-0.00682905620449814,,
0.516354978409477,-0.204469375813796,-0.00670317266119547,,
0.519428519947629,-0.199650833628208,-0.00657574928616533,,
0.52250206148578,-0.194809800017114,-0.00642972283058318,,
0.525575603023932,-0.189926963576611,-0.00629526075043163,,
0.528649144562084,-0.184963238950292,-0.0061798156840922,,
0.531722686100235,-0.180018883546453,-0.00606910969365293,,
0.534796227638387,-0.174652683822594,-0.00588508048540382,,
0.537869769176539,-0.169618478353882,-0.00575588915542813,,
0.54094331071469,-0.164509166556811,-0.00559448277961083,,
0.544016852252842,-0.159435297545948,-0.00549808048293121,,
0.547090393790994,-0.154137670651523,-0.00534091094399214,,
0.550163935329145,-0.148917578465588,-0.00518396216945805,,
0.553237476867297,-0.143494138352911,-0.00504424957586735,,
0.556311018405449,-0.138163786145282,-0.00490663976323669,,
0.5593845599436,-0.132885933203357,-0.00474531801377509,,
0.562458101481752,-0.127468274948137,-0.00460878258791686,,
0.565531643019904,-0.122043505008245,-0.00446241578720974,,
0.568605184558055,-0.116617578696862,-0.00431559090036204,,
0.571678726096207,-0.111112325301177,-0.00416509028616607,,
0.574752267634358,-0.10560475916251,-0.00399566096391979,,
0.57782580917251,-0.100055621468731,-0.0038572269641759,,
0.580899350710662,-0.0944460055459577,-0.00370049895404767,,
0.583972892248813,-0.0888475486080756,-0.00354029758394248,,
0.587046433786965,-0.0832903163138577,-0.00337077811623088,,
0.590119975325117,-0.0776066926156429,-0.00321954162068394,,
0.593193516863268,-0.0720302067360952,-0.00308109290331338,,
0.59626705840142,-0.0663630613316312,-0.00289822638759851,,
0.599340599939572,-0.0607308383462037,-0.00276089620988129,,
0.602414141477723,-0.0549619322505071,-0.00255536454855676,,
0.605487683015875,-0.0492859984227093,-0.0024386832015475,,
0.608561224554027,-0.0435603406207865,-0.00225094515128932,,
0.611634766092178,-0.0378332951730741,-0.00210560858447373,,
0.61470830763033,-0.0320849724899222,-0.0019227715040131,,
0.617781849168482,-0.0263154303899053,-0.00177739078431616,,
0.620855390706633,-0.0205874020264254,-0.00163263004465808,,
0.623928932244785,-0.0148480990409055,-0.00148806983266736,,
0.627002473782937,-0.00903918249161053,-0.00128905991981609,,
0.630076015321088,-0.00326935129872082,-0.00115757264002525,,
0.63314955685924,0.0024447427882892,-0.000988952787265518,,
0.636223098397392,0.0082439458170574,-0.000787689237776501,,
0.639296639935543,0.0140343604224919,-0.000628783018848722,,
0.642370181473695,0.0197357633323851,-0.000474645311075772,,
0.645443723011846,0.0255367876462521,-0.000288379023519525,,
0.648517264549998,0.031256201042122,-0.000134550385913812,,
0.65159080608815,0.0369663923753489,4.33415718688046E-05,,
0.654664347626301,0.0427801656849073,0.000197920808452157,,
0.657737889164453,0.0484489011001718,0.000361698561923252,,
0.660811430702605,0.0541581384269185,0.000513187096832901,,
0.663884972240756,0.0598326846089267,0.000706256607478917,,
0.666958513778908,0.0655743292467165,0.000863201702606009,,
0.67003205531706,0.0712097611630322,0.00101517591920697,,
0.673105596855211,0.0768907830253916,0.00117328738627576,,
0.676179138393363,0.0824411349092364,0.00134473302342331,,
0.679252679931515,0.0881219254972976,0.00152248884315576,,
0.682326221469666,0.0936327294761406,0.00165467153082277,,
0.685399763007818,0.0992045898697232,0.00184458778988006,,
0.68847330454597,0.104775293891815,0.00198812880619936,,
0.691546846084121,0.110355017611538,0.0021537021101663,,
0.694620387622273,0.115862786115216,0.0023149484317897,,
0.697693929160425,0.121331758355362,0.00247371851266731,,
0.700767470698576,0.126603916167692,0.00264525613498412,,
0.703841012236728,0.132126226042874,0.00280192527460477,,
0.706914553774879,0.137332470680201,0.00297050097448359,,
0.709988095313031,0.142787768827462,0.00311616132909354,,
0.713061636851183,0.148029600797434,0.00324545568245815,,
0.716135178389334,0.153357235532058,0.00342178389236958,,
0.719208719927486,0.158572933506327,0.00355695057891525,,
0.722282261465638,0.163796523716023,0.00372805035182777,,
0.725355803003789,0.168903262586525,0.00387297114568019,,
0.728429344541941,0.173989215679472,0.00404166458657551,,
0.731502886080093,0.179103644420392,0.00418689813000217,,
0.734576427618244,0.184070231066151,0.00435172083499102,,
0.737649969156396,0.188917509083298,0.00450615289530454,,
0.740723510694548,0.194128610480889,0.00464930021510135,,
0.743797052232699,0.198963833325239,0.0047913510716846,,
0.746870593770851,0.203822212508702,0.0049469016716519,,
0.749944135309003,0.208526129370217,0.00506723299016176,,
0.753017676847154,0.213307002754477,0.00522846459415804,,
0.756091218385306,0.218186427899081,0.0054056611440636,,
0.759164759923458,0.222842673345868,0.00554247988424184,,
0.762238301461609,0.227283833695278,0.0056489177628456,,
0.765311842999761,0.231841816474593,0.00579846725039523,,
0.768385384537913,0.236305150247348,0.0059462726991435,,
0.771458926076064,0.240746079322459,0.00609726083473427,,
0.774532467614216,0.245063507922301,0.00622007943221048,,
0.777606009152367,0.249367753887143,0.00635783642111143,,
0.780679550690519,0.253576483566805,0.00645996203499832,,
0.783753092228671,0.257862690136382,0.00660478716427493,,
0.786826633766822,0.261898426640949,0.00674629346865885,,
0.789900175304974,0.266122420424296,0.00688238736570623,,
0.792973716843126,0.270164401334915,0.00702554572372316,,
0.796047258381277,0.274084269416056,0.00715128944956911,,
0.799120799919429,0.277854271751926,0.00723447347748207,,
0.802194341457581,0.281640694562973,0.00734388431674349,,
0.805267882995732,0.285592015948676,0.00749355522471662,,
0.808341424533884,0.289022276340408,0.00760400733608968,,
0.811414966072036,0.292555916343461,0.00773528856910177,,
0.814488507610187,0.29612586641134,0.00780220961915834,,
0.817562049148339,0.299674539243779,0.0079277656952601,,
0.820635590686491,0.303191990045954,0.00803701464062456,,
0.823709132224642,0.306547780113648,0.00815279821238546,,
0.826782673762794,0.309825168194233,0.00829632451107765,,
0.829856215300945,0.312754719730242,0.00836951527024477,,
0.832929756839097,0.31613641251934,0.00847230317734748,,
0.836003298377249,0.319296313256412,0.00858732143250318,,
0.8390768399154,0.321994821768462,0.00869286153585858,,
0.842150381453552,0.324833019956659,0.00877313515302891,,
0.845223922991704,0.32768532587705,0.00885861145135003,,
0.848297464529855,0.33015186626795,0.00896073706523692,,
0.851371006068007,0.33305458998536,0.00904988173209276,,
0.854444547606159,0.335853008994257,0.00912349930244361,,
0.85751808914431,0.338152338067518,0.00924786325075644,,
0.860591630682462,0.340512954829817,0.00930401099783529,,
0.863665172220614,0.342780599324216,0.00937596915573913,,
0.866738713758765,0.345066745762477,0.00946558110725304,,
0.869812255296917,0.347628571164258,0.00953381570552114,,
0.872885796835069,0.349607354060136,0.00959852543211825,,
0.87595933837322,0.351483451167588,0.00967969314512995,,
0.879032879911372,0.353564688577594,0.00975918304866097,,
0.882106421449524,0.355107519421259,0.00982467648889696,,
0.885179962987675,0.356960720373184,0.0098952769457088,,
0.888253504525827,0.358781774197652,0.00994412474978557,,
0.891327046063979,0.360391674587811,0.0100284861878603,,
0.89440058760213,0.361833438563139,0.0100752109742399,,
0.897474129140282,0.363373494115225,0.0101306265193744,,
0.900547670678433,0.36484092953766,0.0101484753215422,,
0.903621212216585,0.366004239257887,0.0102039938900655,,
0.906694753754737,0.367290586904787,0.0102776850485511,,
0.909768295292888,0.368313281851675,0.0103246673934034,,
0.91284183683104,0.369221958569522,0.0103670504798123,,
0.915915378369192,0.370099181982807,0.0104197395845413,,
0.918988919907343,0.371038155633726,0.0104925476854061,,
0.922062461445495,0.37176574457604,0.0104796292882896,,
0.925136002983647,0.372349943453434,0.0104990970294296,,
0.928209544521798,0.372953569371882,0.0105413954894833,,
0.93128308605995,0.373448958918746,0.0105827961742886,,
0.934356627598102,0.373522041596995,0.010619825723869,,
0.937430169136253,0.374154808077024,0.0106318500251437,,
0.940503710674405,0.374223727817904,0.0106433739270999,,
0.943577252212557,0.374225346737992,0.010696180772845,,
0.946650793750708,0.37454381144669,0.010683380116745,,
0.94972433528886,0.374282934038257,0.0107004783199347,,
0.952797876827011,0.374058597968949,0.0107442485426903,,
0.955871418365163,0.374167759437726,0.0107426001684638,,
0.958944959903315,0.373829867687974,0.0107614976015569,,
0.962018501441466,0.37329331131602,0.0107692390733689,,
0.965092042979618,0.372852733777843,0.0107516073562,,
0.96816558451777,0.37254537023546,0.0107276470594124,,
0.971239126055921,0.372012051703682,0.0107323898147191,,
0.974312667594073,0.370811738095734,0.0107405985711893,,
0.977386209132225,0.370059634077805,0.0107380413834948,,
0.980459750670376,0.369113259649342,0.0107019648002638,,
0.983533292208528,0.368303568331148,0.0107128705618851,,
0.98660683374668,0.367013751569774,0.0106922511664309,,
0.989680375284831,0.365929306385252,0.0106894106644164,,
0.992753916822983,0.364677418608793,0.0106519395860252,,
0.995827458361135,0.363453052473826,0.0106162493405031,,
0.998900999899286,0.361840376792087,0.0106123491693433,,
1.00197454143744,0.360468688929131,0.0105685237554862,,
1.00504808297559,0.358781542923353,0.0105434559572659,,
1.00812162451374,0.357326827587323,0.0105241611482434,,
1.01119516605189,0.355385279853465,0.0104643965443247,,
1.01426870759004,0.353370880715655,0.0104283346787208,,
1.0173422491282,0.351571335400926,0.0103801086943851,,
1.02041579066635,0.349600878379785,0.0103399590078768,,
1.0234893322045,0.347365149738544,0.0103132281178029,,
1.02656287374265,0.345228175222659,0.0102816293725922,,
1.0296364152808,0.343170990339673,0.0101941735534368,,
1.03270995681895,0.340860560100095,0.0101209423207957,,
1.03578349835711,0.338069773143041,0.0100793355892121,,
