Time domain (s),Current (AC) (A),Potential (AC) (V),Frequency (Hz),Column 5
0,-0.0474620536695137,-0.00253738144804272,0.39811,0.4
0.00613249164803697,-0.0417186455651997,-0.00237238213152935,,
0.0122649832960739,-0.0359873215429696,-0.00219934699066338,,
0.0183974749441109,-0.030227030414883,-0.0020476376913483,,
0.0245299665921479,-0.0245208574725882,-0.0018495954624731,,
0.0306624582401849,-0.0187137332991047,-0.00171699148273241,,
0.0367949498882218,-0.0129725801191988,-0.00152996171827446,,
0.0429274415362588,-0.00714926674483738,-0.00134535668286828,,
0.0490599331842958,-0.00142227911569959,-0.00120633397804371,,
0.0551924248323328,0.00433483199078603,-0.00101919935049333,,
0.0613249164803697,0.0101194358294768,-0.000831991134807808,,
0.0674574081284067,0.0158980843549875,-0.000678088909066954,,
0.0735898997764437,0.0216142599106819,-0.000496534101860124,,
0.0797223914244807,0.0273630451424303,-0.000323246921631437,,
0.0858548830725176,0.0331106740026874,-0.000143853765893542,,
0.0919873747205546,0.0388058035972404,-7.3661723232199E-06,,
0.0981198663685916,0.0445298713883627,0.000171953395279978,,
0.104252358016629,0.0502425778295832,0.000343299688445597,,
0.110384849664666,0.0559917677913536,0.000539353197969827,,
0.116517341312703,0.0616711996429125,0.000714419371364183,,
0.122649832960739,0.0673011098853573,0.000897418345722212,,
0.128782324608776,0.072973343324383,0.00103969364611789,,
0.134914816256813,0.0786046412126174,0.00120204011036096,,
0.14104730790485,0.0843154974594518,0.0013843694326896,,
0.147179799552887,0.0898244512439088,0.00155283842977294,,
0.153312291200924,0.0954622537217816,0.00170606364467085,,
0.159444782848961,0.100930474320458,0.0019011273937779,,
0.165577274496998,0.106492621193514,0.00206461447411499,,
0.171709766145035,0.11207465765622,0.00221878161714217,,
0.177842257793072,0.117487401332603,0.00237046148120346,,
0.183974749441109,0.122878376315662,0.00256333598329128,,
0.190107241089146,0.128395684884143,0.00272940968657709,,
0.196239732737183,0.133822073744123,0.00287989742284944,,
0.20237222438522,0.139066449731375,0.00306679656836728,,
0.208504716033257,0.144492376042758,0.00321176887391417,,
0.214637207681294,0.149861640151068,0.00339659283402272,,
0.220769699329331,0.155111797995777,0.00354454545904126,,
0.226902190977368,0.160140395062756,0.00371911123311719,,
0.233034682625405,0.165343835499217,0.00384213587737126,,
0.239167174273442,0.170627065568576,0.00403415307768551,,
0.245299665921479,0.175652887343977,0.00422116260540628,,
0.251432157569516,0.180697673611834,0.00434842224683551,,
0.257564649217553,0.185762840927225,0.0045311415862801,,
0.26369714086559,0.190614021698155,0.00466716189519234,,
0.269829632513627,0.195647475525397,0.00484787963736233,,
0.275962124161664,0.200428377818945,0.0050015610986982,,
0.282094615809701,0.205201648060649,0.00512738209208585,,
0.288227107457738,0.210234205699986,0.00528296212730694,,
0.294359599105775,0.214859662755818,0.00542787188293925,,
0.300492090753812,0.219577195891643,0.00556487827286167,,
0.306624582401849,0.224119654383689,0.00571446823388611,,
0.312757074049886,0.228870924657772,0.00587702442431404,,
0.318889565697923,0.233277914229614,0.00600879133901788,,
0.32502205734596,0.237793978542371,0.00615633922929337,,
0.331154548993997,0.242133840749144,0.006307765214288,,
0.337287040642034,0.246534990644955,0.00643817810730596,,
0.343419532290071,0.250932671426292,0.00657602340196917,,
0.349552023938108,0.255057911084283,0.00673092642634732,,
0.355684515586145,0.259137127156922,0.00684829582241919,,
0.361817007234181,0.26334238772211,0.00697749083180144,,
0.367949498882218,0.267655190835987,0.00712404896165975,,
0.374081990530255,0.271495731832826,0.00724607280727696,,
0.380214482178292,0.275177849935359,0.00738884850699106,,
0.386346973826329,0.279256372185103,0.00751247657395293,,
0.392479465474366,0.282947741259566,0.00764851160049274,,
0.398611957122403,0.286612051241134,0.0077839873572052,,
0.40474444877044,0.290324928825335,0.0078784414080082,,
0.410876940418477,0.293904592413741,0.00802754936674788,,
0.417009432066514,0.297466216606882,0.00811400070785906,,
0.423141923714551,0.300949438812915,0.00825012404016068,,
0.429274415362588,0.304317255144119,0.00836311126278755,,
0.435406907010625,0.307561339725755,0.00844950373339115,,
0.441539398658662,0.310668741197122,0.00858680079644758,,
0.447671890306699,0.313604537139183,0.00867201953629593,,
0.453804381954736,0.316994555803019,0.00878381463113431,,
0.459936873602773,0.320288595633079,0.00890109940085138,,
0.46606936525081,0.322844176628807,0.00900583003472066,,
0.472201856898847,0.325765402290078,0.00909747669816996,,
0.478334348546884,0.328601981558187,0.00921373491340205,,
0.484466840194921,0.331348363849977,0.00930527487405541,,
0.490599331842958,0.33390857033167,0.00937182798343672,,
0.496731823490995,0.336751625280131,0.00948310796132956,,
0.502864315139032,0.33895173767944,0.00954368571414133,,
0.508996806787069,0.341645620705525,0.00963811032969009,,
0.515129298435106,0.343604745286052,0.00971723229254584,,
0.521261790083143,0.345950097944665,0.00981869929262391,,
0.52739428173118,0.348132864771605,0.00988853075342355,,
0.533526773379217,0.350083200928798,0.0099763287574075,,
0.539659265027254,0.352116333284766,0.010071916065491,,
0.545791756675291,0.353787290089665,0.0101331303556709,,
0.551924248323328,0.355900212078532,0.0102219622729529,,
0.558056739971365,0.35756469320308,0.0102940197748391,,
0.564189231619402,0.359127413636395,0.0103382315264051,,
0.570321723267439,0.360669088108569,0.0104123494960744,,
0.576454214915476,0.362328481198556,0.0104459056856783,,
0.582586706563513,0.363819506599412,0.0105370519498091,,
0.58871919821155,0.36498142867385,0.0105635583960706,,
0.594851689859586,0.366595029452782,0.0106148493262328,,
0.600984181507623,0.367508562930893,0.0106536118763949,,
0.60711667315566,0.368291195156191,0.0107296762522378,,
0.613249164803697,0.369752617446871,0.0107621580550692,,
0.619381656451734,0.370138382976361,0.0108137543759921,,
0.625514148099771,0.371205020039918,0.010871097930266,,
0.631646639747808,0.371726081033889,0.0108941310165513,,
0.637779131395845,0.372632676283052,0.0109332983014565,,
0.643911623043882,0.372965248723944,0.0109566110226549,,
0.650044114691919,0.373471508162826,0.0109850565162763,,
0.656176606339956,0.373699544620907,0.011014613190738,,
0.662309097987993,0.374530050625944,0.0110497993575343,,
0.66844158963603,0.374157467731454,0.0110775273668389,,
0.674574081284067,0.374261078617072,0.0110903353817524,,
0.680706572932104,0.374584400086034,0.0111249475610951,,
0.686839064580141,0.374460668336467,0.0111335021817998,,
0.692971556228178,0.374393830064271,0.0111502361237208,,
0.699104047876215,0.373956721640567,0.0111310406586811,,
0.705236539524252,0.373560548767655,0.0111631692384639,,
0.711369031172289,0.373250641207992,0.0111532348402261,,
0.717501522820326,0.372807750926832,0.0111912799060709,,
0.723634014468363,0.372383825138129,0.0111537352395445,,
0.7297665061164,0.371543374338266,0.0111286711207308,,
0.735898997764437,0.370732989197178,0.0111425351253831,,
0.742031489412474,0.369892538397315,0.0111124081428744,,
0.748163981060511,0.368901759303587,0.0111640228608314,,
0.754296472708548,0.367723879302569,0.0111375752850775,,
0.760428964356585,0.36686839567332,0.0111036805900522,,
0.766561456004622,0.365559151870893,0.0110753234021925,,
0.772693947652659,0.364371789623647,0.0110510503558312,,
0.778826439300696,0.363043350054465,0.0110422639325005,,
0.784958930948733,0.361762321716425,0.0109959365220504,,
0.79109142259677,0.359956069447046,0.010985468609833,,
0.797223914244807,0.358009896227222,0.0109371984726163,,
0.803356405892844,0.356623406809178,0.0109285702637765,,
0.809488897540881,0.354614326980228,0.0108694789912938,,
0.815621389188918,0.353125614322355,0.0108069290764621,,
0.821753880836955,0.350896130087167,0.01079405115282,,
0.827886372484992,0.34872238295786,0.0107473374046609,,
0.834018864133029,0.346812519802862,0.0107121291614236,,
0.840151355781065,0.344630678073115,0.0106299496115549,,
0.846283847429102,0.342110944593616,0.0105937442490873,,
0.852416339077139,0.339841449904831,0.0105294723718941,,
0.858548830725176,0.337494247051831,0.0105183164106135,,
0.864681322373213,0.334736532319427,0.0104319680928913,,
0.87081381402125,0.33221656756563,0.0103523751659709,,
0.876946305669287,0.329878846958859,0.0103058527469626,,
0.883078797317324,0.326781390282317,0.0102260979261453,,
0.889211288965361,0.323817841424465,0.0101868018620035,,
0.895343780613398,0.321161424834697,0.0100623643255555,,
0.901476272261435,0.318177061290002,0.0100119858882683,,
0.907608763909472,0.314936214548541,0.00996124318971248,,
0.913741255557509,0.312244875539736,0.00988029256169964,,
0.919873747205546,0.308864107847831,0.009803628442556,,
0.926006238853583,0.305449805382678,0.00970945034725945,,
0.93213873050162,0.302284585336747,0.00960764852116691,,
0.938271222149657,0.298779160798081,0.00953114629592067,,
0.944403713797694,0.295174288311166,0.0094602514865687,,
0.950536205445731,0.29181734187198,0.00935672769811502,,
0.956668697093768,0.288001315950757,0.00926318246078006,,
0.962801188741805,0.284263460742344,0.00915355453652023,,
0.968933680389842,0.280618346527532,0.00902908756481802,,
0.975066172037879,0.276751902809289,0.00897069905902548,,
0.981198663685916,0.273096612525354,0.00886524726143234,,
0.987331155333953,0.268707026344455,0.00874401816767412,,
0.99346364698199,0.264936561459988,0.00862851423082667,,
0.999596138630027,0.260810396704804,0.00853891331753331,,
1.00572863027806,0.256736268666727,0.00844473522223677,,
1.0118611219261,0.252465557475132,0.00832252004746836,,
1.01799361357414,0.248004276261775,0.0082158025339516,,
1.02412610522217,0.243950962910541,0.0080770888992947,,
1.03025859687021,0.239331056437867,0.00797241713593344,,
1.03639108851825,0.235021924803475,0.00782871422571674,,
1.04252358016629,0.230376317974407,0.00772694183487843,,
1.04865607181432,0.226011738327008,0.00759137777240371,,
1.05478856346236,0.221415826562778,0.00747899765189119,,
1.0609210551104,0.21670800694748,0.00737280629354009,,
1.06705354675843,0.211920628973582,0.00723231182601358,,
1.07318603840647,0.207179274585036,0.00709668889303083,,
1.07931853005451,0.20232528961324,0.00692750609103721,,
1.08545102170254,0.197396834317405,0.006822440631153,,
1.09158351335058,0.192477832358512,0.00666419670544149,,
1.09771600499862,0.187578315259247,0.00653547633953089,,
1.10384849664666,0.182708141086573,0.00635988401097043,,
1.10998098829469,0.177627709667497,0.0062597747119848,,
1.11611347994273,0.172590121812173,0.0061173632735394,,
1.12224597159077,0.167352684053868,0.00597954373472387,,
1.1283784632388,0.162169595755654,0.00583223868529448,,
1.13451095488684,0.156968005513579,0.0057020171214277,,
1.14064344653488,0.151653322139657,0.00552449310432079,,
1.14677593818291,0.146437855439687,0.00540423537394608,,
1.15290842983095,0.141071829171552,0.00523433508763516,,
1.15904092147899,0.135804325754475,0.00509048132174206,,
1.16517341312703,0.130319655771334,0.00494888671159588,,
1.17130590477506,0.124995229967598,0.00479520525026045,,
1.1774383964231,0.119562625610853,0.00466043593964471,,
1.18357088807114,0.114047196146045,0.00448681209369806,,
1.18970337971917,0.108558825774133,0.00431077455692019,,
1.19583587136721,0.103047790520992,0.0041637859364716,,
1.20196836301525,0.0975263479244288,0.00401316574155608,,
1.20810085466328,0.0919496307705828,0.0038271533330656,,
1.21423334631132,0.0864159306362125,0.00367400170630283,,
1.22036583795936,0.0808195551670147,0.00351942246971904,,
1.22649832960739,0.0750575873002657,0.0033520388976287,,
1.23263082125543,0.0694371593040494,0.0031869807106073,,
1.23876331290347,0.0638086077981068,0.0030205501048659,,
1.24489580455151,0.0581445267780946,0.00286996302461118,,
1.25102829619954,0.052396637734252,0.00267624961778345,,
1.25716078784758,0.0466769930640838,0.00250877773993086,,
1.26329327949562,0.0409305205753179,0.00237774670657798,,
1.26942577114365,0.0352247523630451,0.00219614590678674,,
1.27555826279169,0.0295210945287439,0.00201563421139506,,
1.28169075443973,0.0238048900637623,0.00186137876260561,,
1.28782324608776,0.0180040681149063,0.00170057396979262,,
1.2939557377358,0.0123089385203533,0.00152515457334967,,
1.30008822938384,0.00650094706825136,0.00135593497728825,,
1.30622072103188,0.000742217041677941,0.00118666386953281,,
1.31235321267991,-0.00504790847088372,0.00100461786152417,,
1.31848570432795,-0.0108009144585753,0.000838739166796554,,
1.32461819597599,-0.016559875759447,0.000676948292972934,,
1.33075068762402,-0.0223391313799906,0.000504016175496336,,
1.33688317927206,-0.0280965315793491,0.000335046779094572,,
1.3430156709201,-0.0338173326210085,0.00019054175820532,,
1.34914816256813,-0.0395427591486331,-3.37107246877189E-05,,
1.35528065421617,-0.0453380305143309,-0.00018674093102744,,
1.36141314586421,-0.0510206134782036,-0.000355535555608633,,
1.36754563751225,-0.0566978193146417,-0.000527706035887032,,
1.37367812916028,-0.0623535744599167,-0.000700783489930856,,
1.37981062080832,-0.0681315002532454,-0.000860570926775939,,
1.38594311245636,-0.0737690425475327,-0.00104622091370077,,
1.39207560410439,-0.0794086663105043,-0.00121447282578568,,
1.39820809575243,-0.0850543610238051,-0.00139104019713621,,
1.40434058740047,-0.0906076616549526,-0.00157091903456585,,
1.4104730790485,-0.0961883104718689,-0.00169344327950149,,
1.41660557069654,-0.101743750390275,-0.00188803974395091,,
1.42273806234458,-0.107245534671486,-0.00204091173580023,,
1.42887055399262,-0.112731361026118,-0.002212901925148,,
1.43500304564065,-0.11824100863347,-0.0023679245302457,,
1.44113553728869,-0.123742330366084,-0.00255798612586977,,
1.44726802893673,-0.129182133135363,-0.00273293271854458,,
1.45340052058476,-0.134519018841917,-0.00290213023816532,,
1.4595330122328,-0.139891462971828,-0.00306285960313968,,
1.46566550388084,-0.145145668116757,-0.0032301548694682,,
1.47179799552887,-0.150466538078157,-0.00337721339864494,,
1.47793048717691,-0.155573305857947,-0.00355741602386939,,
1.48406297882495,-0.160973560722223,-0.00370163405103163,,
1.49019547047298,-0.166076165564645,-0.00386076103436439,,
1.49632796212102,-0.171272378679285,-0.00403632760707762,,
1.50246045376906,-0.176239109871481,-0.00417857347221906,,
1.5085929454171,-0.181441104843578,-0.0043467223609146,,
1.51472543706513,-0.186439867526082,-0.00449167626942781,,
1.52085792871317,-0.191466383124377,-0.00465346530354749,,
1.52699042036121,-0.196405014489335,-0.00482389910383763,,
1.53312291200924,-0.201196728856325,-0.00494702493177801,,
1.53925540365728,-0.205896569508334,-0.00512054575433529,,
1.54538789530532,-0.210755584696117,-0.00527789374450238,,
1.55152038695335,-0.215381475391258,-0.00539931416741135,,
1.55765287860139,-0.220287381443013,-0.00560488630221023,,
1.56378537024943,-0.224758376176897,-0.00571385745236475,,
1.56991786189747,-0.229324135554492,-0.00586431575338286,,
1.5760503535455,-0.233949332426738,-0.00600317656431004,,
1.58218284519354,-0.238501330983586,-0.00615944832800119,,
1.58831533684158,-0.24299701424881,-0.00629774986910148,,
1.59444782848961,-0.247206900299963,-0.00642131906555532,,
1.60058032013765,-0.251494783608203,-0.00658665688749016,,
1.60671281178569,-0.255753295080564,-0.00672513504011496,,
1.61284530343372,-0.260042219123147,-0.00686090514936799,,
1.61897779508176,-0.264031238219465,-0.00699567445998373,,
1.6251102867298,-0.267937923665605,-0.00713862493151884,,
1.63124277837784,-0.271960708809469,-0.00724616847185233,,
1.63737527002587,-0.276032755378862,-0.00738766373801569,,
1.64350776167391,-0.279819409464207,-0.00749664776609382,,
1.64964025332195,-0.28371499374403,-0.00760524913586913,,
1.65577274496998,-0.287358257764456,-0.00774271361193302,,
1.66190523661802,-0.291028118329182,-0.00789455353018775,,
1.66803772826606,-0.294704917122855,-0.00799339711324931,,
1.67417021991409,-0.298477463476006,-0.00810904822636704,,
1.68030271156213,-0.301792086718611,-0.00824755581424563,,
1.68643520321017,-0.304939961192173,-0.00832061411476959,,
1.6925676948582,-0.308582300115406,-0.00846971839410182,,
1.69870018650624,-0.311546369340429,-0.00858756243364533,,
1.70483267815428,-0.314610695973746,-0.00870019643322406,,
1.71096516980232,-0.318046506948636,-0.00879731805392447,,
1.71709766145035,-0.321069955849736,-0.00888549135739725,,
1.72323015309839,-0.323707407947047,-0.00899207457256779,,
1.72936264474643,-0.326690615120251,-0.00908901958174368,,
1.73549513639446,-0.329514705576255,-0.00918239004725763,,
1.7416276280425,-0.332269876291378,-0.00929433415806979,,
1.74776011969054,-0.334954508345533,-0.00936874280087263,,
1.75389261133857,-0.337090789038523,-0.00945291474949927,,
1.76002510298661,-0.340014269624202,-0.00958347665849102,,
1.76615759463465,-0.342453635285057,-0.00964861503597492,,
1.77229008628269,-0.344699713451144,-0.00973714156249628,,
1.77842257793072,-0.34683136865817,-0.00983118719914966,,
1.78455506957876,-0.349049983001339,-0.00989384013737071,,
1.7906875612268,-0.350756324773872,-0.00995518320678723,,
1.79682005287483,-0.352832242875017,-0.0100704093484247,,
1.80295254452287,-0.354990668082065,-0.0100929861882721,,
1.80908503617091,-0.356601146657971,-0.0101819818391546,,
1.81521752781894,-0.358625721864903,-0.0102867419082782,,
1.82135001946698,-0.360020248064812,-0.0103328375161027,,
1.82748251111502,-0.361469181543386,-0.0104192741395868,,
1.83361500276306,-0.363022188456175,-0.0104878270065396,,
1.83974749441109,-0.364646890401423,-0.0105241077968454,,
1.84587998605913,-0.365695950618312,-0.0105884845371311,,
1.85201247770717,-0.367250576451188,-0.0106009779627674,,
1.8581449693552,-0.36829801774799,-0.010663469007091,,
1.86427746100324,-0.369286195005863,-0.010735791426264,,
1.87040995265128,-0.370141042630791,-0.0107755290192162,,
1.87654244429931,-0.370903553992141,-0.0108409341536899,,
1.88267493594735,-0.371791705116019,-0.0108312205198571,,
1.88880742759539,-0.37265343315132,-0.0109055151010504,,
1.89493991924343,-0.372897600991704,-0.0109388063733684,,
1.90107241089146,-0.374063917277809,-0.0109585721464551,,
1.9072049025395,-0.374073919891209,-0.011012790044691,,
1.91333739418754,-0.374357173087998,-0.0109985433817363,,
1.91946988583557,-0.374834060691001,-0.0110317353100715,,
1.92560237748361,-0.375034344233291,-0.0110666602389884,,
1.93173486913165,-0.374945766177059,-0.0110905763828946,,
1.93786736077968,-0.374910843758022,-0.0111083111234529,,
1.94399985242772,-0.375243878747511,-0.0111195995433766,,
1.95013234407576,-0.374656210755642,-0.0111178628633883,,
1.95626483572379,-0.374483680129144,-0.0111335058612068,,
1.96239732737183,-0.374295422850363,-0.0111600877353069,,
1.96852981901987,-0.373862072634006,-0.0111491948516091,,
1.97466231066791,-0.373176055246804,-0.011151225884138,,
1.98079480231594,-0.372459567470807,-0.0111359489872918,,
1.98692729396398,-0.371853224079355,-0.0111585699800205,,
1.99305978561202,-0.371257230212749,-0.0111457656445135,,
1.99919227726005,-0.369807545092706,-0.0111484884055124,,
2.00532476890809,-0.369178710275748,-0.0111266180117617,,
2.01145726055613,-0.368249392326781,-0.0111190237162195,,
2.01758975220416,-0.367268384572154,-0.0111243974897852,,
2.0237222438522,-0.365790715262022,-0.0111236450511036,,
2.02985473550024,-0.364619600034229,-0.0110831568591734,,
2.03598722714828,-0.362954193812487,-0.0110393443232404,,
2.04211971879631,-0.361515205128739,-0.0110134229026526,,
2.04825221044435,-0.360198560548768,-0.0109864013394452,,
2.05438470209239,-0.358397627588248,-0.0109651214904787,,
2.06051719374042,-0.356565241323166,-0.010917877907747,,
2.06664968538846,-0.354819062552759,-0.0109037195505541,,
2.0727821770365,-0.352882834127761,-0.0108517221742952,,
2.07891466868453,-0.35082015648019,-0.0108056854369787,,
2.08504716033257,-0.348784017558345,-0.0107407807018234,,
2.09117965198061,-0.346590149565089,-0.0107215594809364,,
2.09731214362865,-0.344346557597708,-0.0106967621191121,,
