Time domain (s),Current (AC) (A),Potential (AC) (V),Frequency (Hz),Column 5
0,0.0831395809387391,0.000968008315129776,25.119,0.3
0.000242984021059756,0.0930864754126275,0.00119810713510615,,
0.000485968042119511,0.102865610278756,0.00142983694513932,,
0.000728952063179267,0.112428281134872,0.00167223629398405,,
0.000971936084239022,0.121824895171238,0.00187965841494231,,
0.00121492010529878,0.131099421639888,0.0020992378729221,,
0.00145790412635853,0.140124104788361,0.00229770875722801,,
0.00170088814741829,0.148984387253367,0.0024991971477637,,
0.00194387216847804,0.157619038644144,0.00271077183227231,,
0.0021868561895378,0.166136174336382,0.00287874634574425,,
0.00242984021059756,0.17425058900137,0.00308108690239139,,
0.00267282423165731,0.182083973667153,0.00329607025134493,,
0.00291580825271707,0.18965181670686,0.00349339560087847,,
0.00315879227377682,0.196950945803103,0.00364477383008488,,
0.00340177629483658,0.20411590453452,0.0038291909585233,,
0.00364476031589633,0.210975201155246,0.00399376728500211,,
0.00388774433695609,0.217349133215591,0.00416160209911176,,
0.00413072835801584,0.223572286896547,0.0043007775890036,,
0.0043737123790756,0.22921098775047,0.00447837389606764,,
0.00461669640013536,0.234783443153052,0.00463012931355333,,
0.00485968042119511,0.239996866870062,0.00476249445952348,,
0.00510266444225487,0.244659613609876,0.00491218232644375,,
0.00534564846331462,0.248896150178252,0.00501581131354722,,
0.00558863248437438,0.2532216982404,0.00514802628270283,,
0.00583161650543413,0.25686762395387,0.00524983917809418,,
0.00607460052649389,0.259765629191366,0.00533802789315718,,
0.00631758454755364,0.262943171572827,0.00548050727297245,,
0.0065605685686134,0.26516136785474,0.00555288551268429,,
0.00680355258967316,0.267270025883311,0.00561281653919776,,
0.00704653661073291,0.269160167225912,0.00567774880288852,,
0.00728952063179267,0.270374045144129,0.00575373128615286,,
0.00753250465285242,0.271596506979985,0.00580954118147226,,
0.00777548867391218,0.272004429674715,0.00586502976825809,,
0.00801847269497193,0.272040444807416,0.00589394753629557,,
0.00826145671603169,0.271983156487524,0.00590378237141564,,
0.00850444073709144,0.271225719059386,0.00591787454460802,,
0.0087474247581512,0.27032366127973,0.00591209099100043,,
0.00899040877921095,0.268786953415546,0.00593553254402845,,
0.00923339280027071,0.267018852988934,0.00590198024963939,,
0.00947637682133047,0.264586618586776,0.00590904554489802,,
0.00971936084239022,0.262220069815241,0.00588794046370822,,
0.00996234486344998,0.259212712931308,0.00585202375760918,,
0.0102053288845097,0.255974709912568,0.00581192654808715,,
0.0104483129055695,0.252156172811803,0.00578111236120327,,
0.0106912969266292,0.248014432551261,0.00571995198029995,,
0.010934280947689,0.243606590843927,0.00565021405853949,,
0.0111772649687488,0.238498226814535,0.00555781690018087,,
0.0114202489898085,0.233562100958628,0.00543904450218191,,
0.0116632330108683,0.228032938358048,0.00539234300529756,,
0.011906217031928,0.221993032657981,0.00529347776645528,,
0.0121492010529878,0.21594286357813,0.0051758229633565,,
0.0123921850740475,0.209275585462837,0.00507354556758521,,
0.0126351690951073,0.202406398676136,0.00494315018262625,,
0.012878153116167,0.195409199552479,0.00482759436244917,,
0.0131211371372268,0.188048840065473,0.00467843735310636,,
0.0133641211582866,0.180426157921505,0.00453963206652475,,
0.0136071051793463,0.172285058469075,0.00437097302617673,,
0.0138500892004061,0.164353168683219,0.00422573109146773,,
0.0140930732214658,0.155725561703113,0.00407083942329445,,
0.0143360572425256,0.147049460253522,0.00389674957022912,,
0.0145790412635853,0.1382029866995,0.00371764101756566,,
0.0148220252846451,0.129104220609669,0.00354194112934758,,
0.0150650093057048,0.119896476087211,0.00335562408957957,,
0.0153079933267646,0.110393729373522,0.0031618471038537,,
0.0155509773478244,0.100706754992691,0.00296962078105123,,
0.0157939613688841,0.0909873576620842,0.00277074476859429,,
0.0160369453899439,0.0810206595303832,0.00255240863494066,,
0.0162799294110036,0.0710108552035849,0.0023525791743344,,
0.0165229134320634,0.060858716459858,0.00213745612601857,,
0.0167658974531231,0.050619968786263,0.00191641331721648,,
0.0170088814741829,0.0402787739217223,0.00170875021485761,,
0.0172518654952426,0.0298597873035834,0.00146191541125384,,
0.0174948495163024,0.0195144637612656,0.00125194726941391,,
0.0177378335373622,0.00898274324653282,0.0010728387167509,,
0.0179808175584219,-0.00149915322451601,0.000850075859547772,,
0.0182238015794817,-0.0119541783012184,0.000627601132280109,,
0.0184667856005414,-0.0223894696976977,0.00039022572175984,,
0.0187097696216012,-0.0328134247246872,0.000136294190540731,,
0.0189527536426609,-0.0431188377151589,-6.34339880276613E-05,,
0.0191957376637207,-0.0533387380913305,-0.000299665610017819,,
0.0194387216847804,-0.063544129780624,-0.000526425615230419,,
0.0196817057058402,-0.0736337318852513,-0.000749205934853503,,
0.0199246897269,-0.0837353234835367,-0.000966813885579842,,
0.0201676737479597,-0.0936560929906994,-0.00120525450373954,,
0.0204106577690195,-0.103526851847273,-0.00141974715868232,,
0.0206536417900792,-0.112993233540315,-0.00162252078335356,,
0.020896625811139,-0.122473610751245,-0.00189000315273491,,
0.0211396098321987,-0.131618655353561,-0.00208372425871595,,
0.0213825938532585,-0.140920636363136,-0.0022832847980494,,
0.0216255778743182,-0.14985537498331,-0.00250579794264194,,
0.021868561895378,-0.158509876683626,-0.00270927006412514,,
0.0221115459164378,-0.166747591861214,-0.00290019718285617,,
0.0223545299374975,-0.174832522635184,-0.00308612306440947,,
0.0225975139585573,-0.182661475386969,-0.00332857130803088,,
0.022840497979617,-0.190508249098199,-0.0034852860528849,,
0.0230834820006768,-0.197805185563306,-0.00366686728426435,,
0.0233264660217365,-0.20478642979657,-0.0038113164250908,,
0.0235694500427963,-0.211625619523262,-0.00401198058938812,,
0.023812434063856,-0.218061178514044,-0.00418427181316128,,
0.0240554180849158,-0.22410700898335,-0.00432182155172223,,
0.0242984021059756,-0.229875401636375,-0.00446765196999577,,
0.0245413861270353,-0.235292600093845,-0.00462341501294272,,
0.0247843701480951,-0.240332106175224,-0.0047470646649348,,
0.0250273541691548,-0.245130329528201,-0.00490194934814037,,
0.0252703381902146,-0.249862867250553,-0.00501588640195427,,
0.0255133222112743,-0.253430418063847,-0.00515241633516927,,
0.0257563062323341,-0.257223763232412,-0.00526758448961573,,
0.0259992902533938,-0.260500393880525,-0.00537609073071232,,
0.0262422742744536,-0.263329121304472,-0.00547316607147286,,
0.0264852582955134,-0.265796857670342,-0.00554259490839382,,
0.0267282423165731,-0.26799434058578,-0.00561589516389871,,
0.0269712263376329,-0.269661113462876,-0.00567290996621939,,
0.0272142103586926,-0.270987142131109,-0.00571812890361922,,
0.0274571943797524,-0.272092228223604,-0.0057800593772579,,
0.0277001784008121,-0.272362621629214,-0.00585212853213068,,
0.0279431624218719,-0.272812717484517,-0.00585977008725935,,
0.0281861464429316,-0.272453499192039,-0.00588300209124348,,
0.0284291304639914,-0.271564737154377,-0.0059098243688438,,
0.0286721144850512,-0.270613181893121,-0.00592763603756286,,
0.0289150985061109,-0.269194036379203,-0.00593406046199574,,
0.0291580825271707,-0.267186379338062,-0.0059320086276089,,
0.0294010665482304,-0.264917939146928,-0.00591497927532014,,
0.0296440505692902,-0.262391654864557,-0.00588444099467722,,
0.0298870345903499,-0.258889789681888,-0.00583423304379416,,
0.0301300186114097,-0.255787636490122,-0.00582073808537631,,
0.0303730026324694,-0.25195230476789,-0.00574704841789897,,
0.0306159866535292,-0.247808325224486,-0.00568770238246641,,
0.030858970674589,-0.243188731331495,-0.00563651478980365,,
0.0311019546956487,-0.238426849673303,-0.00555915102909221,,
0.0313449387167085,-0.233074590418836,-0.0054644348613162,,
0.0315879227377682,-0.227442794020406,-0.00537818447490812,,
0.031830906758828,-0.221562810438081,-0.00526779578490144,,
0.0320738907798877,-0.215560552681135,-0.00517099635038187,,
0.0323168748009475,-0.208815552789834,-0.00505451502192811,,
0.0325598588220072,-0.201880820327687,-0.0049372653469808,,
0.032802842843067,-0.194798528455267,-0.00480480415769868,,
0.0330458268641268,-0.18726166216182,-0.00464825530583735,,
0.0332888108851865,-0.179497322050955,-0.00452224648086119,,
0.0335317949062463,-0.171599418047706,-0.00437241891457818,,
0.033774778927306,-0.163532121626275,-0.00420004387118755,,
0.0340177629483658,-0.154914987958723,-0.00403869110749833,,
0.0342607469694255,-0.146132194011094,-0.00385793584859995,,
0.0345037309904853,-0.137227312495749,-0.00370251681533285,,
0.034746715011545,-0.128094583949175,-0.00353219709881269,,
0.0349896990326048,-0.118780660097668,-0.00332517486728001,,
0.0352326830536646,-0.109345814971603,-0.00312347867394225,,
0.0354756670747243,-0.099673605862144,-0.00295252856404904,,
0.0357186510957841,-0.0898743174502555,-0.00275052328587178,,
0.0359616351168438,-0.0799011114027362,-0.00254786142069108,,
0.0362046191379036,-0.0698207929916418,-0.00232640999125344,,
0.0364476031589633,-0.0597698185163874,-0.00212541054848625,,
0.0366905871800231,-0.0495416607846615,-0.0019253610613843,,
0.0369335712010828,-0.0392150212587252,-0.00171206807471691,,
0.0371765552221426,-0.028847888034364,-0.00150092645823197,,
0.0374195392432024,-0.0184357825458537,-0.00127138818194794,,
0.0376625232642621,-0.00792944057022592,-0.00101183899011437,,
0.0379055072853219,0.00249180865663835,-0.000807376749399236,,
0.0381484913063816,0.0129843417212826,-0.000591090703890185,,
0.0383914753274414,0.0234248114593808,-0.000363354549382411,,
0.0386344593485011,0.0338354240926496,-0.000137544499834608,,
0.0388774433695609,0.0442182322970461,8.36554707501769E-05,,
0.0391204273906206,0.0544599656811241,0.00032068512534833,,
0.0393634114116804,0.0647250249283499,0.000563005893301494,,
0.0396063954327402,0.074747868412648,0.000778591695755892,,
0.0398493794537999,0.0847011075213126,0.00100291918581874,,
0.0400923634748597,0.0946772992793148,0.00121432623109241,,
0.0403353474959194,0.104433131608159,0.00144742858736224,,
0.0405783315169792,0.113922442624675,0.00166941087437733,,
0.0408213155380389,0.123332842246161,0.00187418219993196,,
0.0410642995590987,0.132564635733524,0.00208807589385795,,
0.0413072835801584,0.14153280031559,0.00228453161486009,,
0.0415502676012182,0.150519415655405,0.00250558490111441,,
0.041793251622278,0.159066944947324,0.00269938633422839,,
0.0420362356433377,0.167381029000859,0.00291822538558728,,
0.0422792196643975,0.17560719787619,0.00308765277242884,,
0.0425222036854572,0.183315229353415,0.00330634164697274,,
0.042765187706517,0.191037932798562,0.00346558495028848,,
0.0430081717275767,0.198402187704714,0.00364471795034005,,
0.0432511557486365,0.205146347864942,0.00384567548329828,,
0.0434941397696962,0.211963284718191,0.00401222506327281,,
0.043737123790756,0.21844862110093,0.00417238688989663,,
0.0439801078118158,0.224440568826365,0.00435493553936128,,
0.0442230918328755,0.230215119507261,0.00450164780986073,,
0.0444660758539353,0.235568125189348,0.00464608298075087,,
0.044709059874995,0.240567137572302,0.00477309414865301,,
0.0449520438960548,0.245231936988073,0.00490799134556896,,
0.0451950279171145,0.249750996410896,0.00505380604766392,,
0.0454380119381743,0.253545834434703,0.00515010780320413,,
0.045680995959234,0.257034823740914,0.00526453555102924,,
0.0459239799802938,0.260503472894461,0.00537326007238015,,
0.0461669640013536,0.263337658570384,0.00546001337649349,,
0.0464099480224133,0.265775304572793,0.00554453149080691,,
0.0466529320434731,0.267769945782297,0.00560229717720118,,
0.0468959160645328,0.269297136694317,0.00571692050413386,,
0.0471389000855926,0.270896731085547,0.00574505595574148,,
0.0473818841066523,0.271664618500377,0.00579315444625106,,
0.0476248681277121,0.272148303598612,0.0058607968775739,,
0.0478678521487718,0.272362155111952,0.00586775041334242,,
0.0481108361698316,0.272038578738364,0.00590963577470482,,
0.0483538201908914,0.271260614550655,0.00592902604621992,,
0.0485968042119511,0.270163925768893,0.00591766499556456,,
0.0488397882330109,0.268496966284891,0.00592591075043591,,
0.0490827722540706,0.266878711203141,0.00591177317495095,,
0.0493257562751304,0.26436716886628,0.00592934735475348,,
0.0495687402961901,0.261742729351783,0.00586656646124561,,
0.0498117243172499,0.258655318105526,0.00584429489037852,,
0.0500547083383096,0.255298446488184,0.00579680059961207,,
0.0502976923593694,0.251489799553394,0.00577608318415335,,
0.0505406763804292,0.247480923409342,0.00568375587547587,,
0.0507836604014889,0.242814631138329,0.00562012281585655,,
0.0510266444225487,0.23789250080031,0.00556372618321443,,
0.0512696284436084,0.232674598517576,0.00549411399087996,,
0.0515126124646682,0.227028806601257,0.00538804375741675,,
0.0517555964857279,0.221218800608376,0.00527888267555809,,
0.0519985805067877,0.214915965778906,0.00518237835594215,,
0.0522415645278474,0.208477281122463,0.00504158235344487,,
0.0524845485489072,0.201489598950971,0.00491939081354875,,
0.052727532569967,0.194324640219554,0.00481919843076284,,
0.0529705165910267,0.18691280055258,0.0046774454876326,,
0.0532135006120865,0.179090262413161,0.00452784493281388,,
0.0534564846331462,0.171105702828317,0.0043693245736991,,
0.053699468654206,0.162902090062651,0.00419695302279255,,
0.0539424526752657,0.154504219508688,0.00403197855313042,,
0.0541854366963255,0.145705703929298,0.00388882861637496,,
0.0544284207173852,0.136893752652734,0.00371157806523303,,
0.054671404738445,0.12763357158992,0.00348892871376227,,
0.0549143887595048,0.118386453010469,0.0033134802843966,,
0.0551573727805645,0.108893736417933,0.00314553021831321,,
0.0554003568016243,0.0992594318360897,0.00294684978496385,,
0.055643340822684,0.0893743042478169,0.00274522169506541,,
0.0558863248437438,0.0794445776092054,0.00254045036951034,,
0.0561293088648035,0.0693664984809731,0.00232081503178572,,
0.0563722928858633,0.0592287051430822,0.00211422412203444,,
0.056615276906923,0.0489261379079145,0.00188801243681969,,
0.0568582609279828,0.0386019242717456,0.00167357391537992,,
0.0571012449490426,0.0282099723289951,0.00145983389075255,,
0.0573442289701023,0.0177881866072784,0.0012184718096746,,
0.0575872129911621,0.00733612391519575,0.00102710114546767,,
0.0578301970122218,-0.00314801183871528,0.000792729271241299,,
0.0580731810332816,-0.0136019172739866,0.000559876627581613,,
0.0583161650543413,-0.0240259656044286,0.000348748981032987,,
0.0585591490754011,-0.0344239356198713,0.000100670853102613,,
0.0588021330964608,-0.0447844909508247,-0.00014234841166294,,
0.0590451171175206,-0.0550293966522908,-0.000362991331039897,,
0.0592881011385804,-0.0652257845584092,-0.000569004234678872,,
0.0595310851596401,-0.0752699012298981,-0.000806440763670313,,
0.0597740691806999,-0.0853011886766557,-0.00101361317201798,,
0.0600170532017596,-0.0952176195732729,-0.00125009625286054,,
0.0602600372228194,-0.104917213246067,-0.00145138731804684,,
0.0605030212438791,-0.114549721736448,-0.00169593279834812,,
0.0607460052649389,-0.124038123044301,-0.00191173862729821,,
0.0609889892859986,-0.133290140055014,-0.00213580418105641,,
0.0612319733070584,-0.142277595125902,-0.00231552741091479,,
0.0614749573281182,-0.151147441194799,-0.00253507892902194,,
0.0617179413491779,-0.15970528051823,-0.00273852311063294,,
0.0619609253702377,-0.168057012514885,-0.00294804421451289,,
0.0622039093912974,-0.176267156522233,-0.00313858017502877,,
0.0624468934123572,-0.184075162648911,-0.00331791224667199,,
0.0626898774334169,-0.19156854953345,-0.00353116332353043,,
0.0629328614544767,-0.19887476969209,-0.00368254155273684,,
0.0631758454755364,-0.205776659338925,-0.00386449997239513,,
0.0634188294965962,-0.212627511997191,-0.00402617404461836,,
0.063661813517656,-0.219029061879503,-0.00417383452454034,,
0.0639047975387157,-0.225068407758854,-0.00435277718421068,,
0.0641477815597755,-0.230757865690986,-0.00447553101404052,,
0.0643907655808352,-0.23610247406234,-0.00463028996781967,,
0.064633749601895,-0.241296677268116,-0.0047787083167834,,
0.0648767336229547,-0.245889119856402,-0.00490274563450654,,
0.0651197176440145,-0.250294302415337,-0.00504315746375683,,
0.0653627016650742,-0.254414956095594,-0.00516571571447955,,
0.065605685686134,-0.257779338640869,-0.00524976059720217,,
0.0658486697071937,-0.261011323586917,-0.00536318076337539,,
0.0660916537282535,-0.263806461767931,-0.00546183645317377,,
0.0663346377493133,-0.266321922849801,-0.00556170752742613,,
0.066577621770373,-0.268311059155602,-0.00559985767708326,,
0.0668206057914328,-0.269969574677144,-0.0056973416384789,,
0.0670635898124925,-0.271301621418069,-0.00574928186145707,,
0.0673065738335523,-0.272092788044319,-0.0058126774321603,,
0.067549557854612,-0.272663245353465,-0.00581998370881909,,
0.0677925418756718,-0.272552774065596,-0.00584885956704806,,
0.0680355258967316,-0.272268385142097,-0.00589201095388292,,
0.0682785099177913,-0.271398097188049,-0.00590249015231237,,
0.0685214939388511,-0.270761720989647,-0.00589955646570006,,
0.0687644779599108,-0.268954992933663,-0.00593063957385631,,
0.0690074619809706,-0.266752984800774,-0.00590893029292383,,
0.0692504460020303,-0.264524525139076,-0.00589033630777491,,
0.0694934300230901,-0.261709606626113,-0.00583832798135742,,
0.0697364140441498,-0.258716805080783,-0.00581730148105919,,
0.0699793980652096,-0.25548388710021,-0.0058008448961564,,
0.0702223820862694,-0.251279586874705,-0.00573434799960548,,
0.0704653661073291,-0.247177827143598,-0.00569805410522761,,
0.0707083501283889,-0.2426380543543,-0.00559088897801052,,
0.0709513341494486,-0.237610071249315,-0.0055145310527096,,
0.0711943181705084,-0.232466625121749,-0.00545261629524862,,
0.0714373021915681,-0.22673947259477,-0.00537388173454278,,
0.0716802862126279,-0.220547482266979,-0.00524355794550724,,
0.0719232702336876,-0.214450288247021,-0.00515903633870973,,
0.0721662542547474,-0.207634657642108,-0.00503544605894657,,
0.0724092382758072,-0.200836381479377,-0.00492198223672302,,
0.0726522222968669,-0.193582784467998,-0.00477142997999724,,
0.0728952063179267,-0.186138101985712,-0.0046185831612422,,
0.0731381903389864,-0.178320159041333,-0.00450233932170452,,
0.0733811743600462,-0.170246657940306,-0.00434524913481393,,
0.0736241583811059,-0.162056107658002,-0.00417854413929852,,
0.0738671424021657,-0.153434868638536,-0.00401593408134682,,
0.0741101264232254,-0.144757134378525,-0.00383961951593381,,
0.0743531104442852,-0.135744160813352,-0.0036700803696017,,
0.074596094465345,-0.126660323275936,-0.00348942115401485,,
0.0748390784864047,-0.117343413713947,-0.00332913010548053,,
0.0750820625074645,-0.107738709652438,-0.00311990237026238,,
0.0753250465285242,-0.0980792831159845,-0.00293006490655889,,
0.075568030549584,-0.0881819794271485,-0.0027385650204419,,
0.0758110145706437,-0.0783147661017734,-0.00250916469727791,,
0.0760539985917035,-0.0682049171479337,-0.00233623085643764,,
0.0762969826127632,-0.0580193990940421,-0.00213322148909212,,
0.076539966633823,-0.0478569736446671,-0.0019047274655426,,
0.0767829506548827,-0.0375432099951883,-0.00168936692831023,,
0.0770259346759425,-0.027180928550362,-0.00145150082377921,,
0.0772689186970023,-0.0167053767140894,-0.00121494963949731,,
0.077511902718062,-0.00626695965194827,-0.000986986473525242,,
0.0777548867391218,0.00424386088940396,-0.000776529383916813,,
0.0779978707601815,0.0146613779781646,-0.00057129705046588,,
0.0782408547812413,0.0250962495091072,-0.000318846332489464,,
0.078483838802301,0.0355394950249199,-8.87457662708258E-05,,
0.0787268228233608,0.0457868499420166,0.000152191977993432,,
0.0789698068444206,0.0561356956896697,0.000353414939740393,,
0.0792127908654803,0.0662964416768982,0.000590638427204304,,
0.0794557748865401,0.0763480226245944,0.000803246886995623,,
0.0796987589075998,0.0863587366600555,0.00101987868842635,,
0.0799417429286596,0.0962166196401715,0.00126530252846901,,
0.0801847269497193,0.105940145648556,0.00148379582390579,,
