Time domain (s),Current (AC) (A),Potential (AC) (V),Frequency (Hz),Column 5
0,-0.141311602800269,-0.00435681535007015,15.849,0.4
0.000231062488169601,-0.133236198128066,-0.00419091784750458,,
0.000462124976339201,-0.125067358639367,-0.00403045944090286,,
0.000693187464508802,-0.116898808243541,-0.00383441850505273,,
0.000924249952678403,-0.108576576076524,-0.00366610091947539,,
0.001155312440848,-0.100249082419222,-0.00350832450084226,,
0.0013863749290176,-0.092026124744731,-0.00333141480846511,,
0.0016174374171872,-0.0836137534199687,-0.00313040173897727,,
0.00184849990535681,-0.0752071639526628,-0.00293206862718742,,
0.00207956239352641,-0.0666604222606138,-0.00275980419481936,,
0.00231062488169601,-0.0580762141322473,-0.00258269959642732,,
0.00254168736986561,-0.0495470492868657,-0.00234813020813229,,
0.00277274985803521,-0.0409519712664812,-0.00218887575222348,,
0.00300381234620481,-0.0323619812806583,-0.00198160944810777,,
0.00323487483437441,-0.0237807797181691,-0.00182563387983681,,
0.00346593732254401,-0.0151334337063788,-0.00160855933660242,,
0.00369699981071361,-0.00651245296458959,-0.00141616882797946,,
0.00392806229888321,0.00213373667570949,-0.00122410722325572,,
0.00415912478705281,0.0108014059164591,-0.00101711703599383,,
0.00439018727522241,0.0194584943580635,-0.00082102534336892,,
0.00462124976339201,0.0280808916549295,-0.000630309808307139,,
0.00485231225156161,0.0367400037466436,-0.000452880366558439,,
0.00508337473973121,0.0453212053091328,-0.000242869136073853,,
0.00531443722790081,0.0538189168499515,-4.38700954012994E-05,,
0.00554549971607042,0.0623968516629778,0.000172032981476278,,
0.00577656220424002,0.070898292501856,0.000350246107824415,,
0.00600762469240962,0.0793152604032961,0.000529494672373954,,
0.00623868718057922,0.0877986618469103,0.000756365273101522,,
0.00646974966874882,0.0961911435820226,0.000938050162830883,,
0.00670081215691842,0.104442547995199,0.00114988051611631,,
0.00693187464508802,0.112833410810223,0.00135230665420849,,
0.00716293713325762,0.121009679985754,0.00154192178239754,,
0.00739399962142722,0.129099163480863,0.00172687134786731,,
0.00762506210959682,0.137173845420885,0.00192344624498642,,
0.00785612459776642,0.145102651097281,0.00209914995639959,,
0.00808718708593602,0.153181987432555,0.00229740591789263,,
0.00831824957410562,0.1609865699015,0.0025130653622516,,
0.00854931206227522,0.16873495271597,0.00269395844629772,,
0.00878037455044482,0.176307567063765,0.00287892425393554,,
0.00901143703861442,0.183858643992534,0.00306660250360702,,
0.00924249952678403,0.191284428070224,0.00324872593186853,,
0.00947356201495363,0.198777917698728,0.00345670283082811,,
0.00970462450312323,0.206123449594923,0.00363500122855775,,
0.00993568699129283,0.212970787743387,0.00382230590836796,,
0.0101667494794624,0.220259397252924,0.00397832817287203,,
0.010397811967632,0.2272642331985,0.0041650765584329,,
0.0106288744558016,0.233845837178269,0.00432105009643324,,
0.0108599369439712,0.240568749754271,0.00450065192813387,,
0.0110909994321408,0.247112656023423,0.00467145456539431,,
0.0113220619203104,0.253600131363801,0.00483319813352789,,
0.01155312440848,0.260016605494615,0.00499019492810371,,
0.0117841868966496,0.26584402398777,0.00517296804307987,,
0.0120152493848192,0.271862706325583,0.00531814053945068,,
0.0122463118729888,0.277824263911727,0.00547478000633328,,
0.0124773743611584,0.28337484706987,0.00560690598136659,,
0.012708436849328,0.289023259256176,0.00577622246026754,,
0.0129394993374976,0.294387897878521,0.00591044367495552,,
0.0131705618256672,0.299698649589372,0.0060562983423762,,
0.0134016243138368,0.304798247865916,0.00617371297386704,,
0.0136326868020064,0.309696174954381,0.00631882050156607,,
0.013863749290176,0.314360515001607,0.00646074456436363,,
0.0140948117783456,0.31888609046988,0.00657500821528867,,
0.0143258742665152,0.323536322784913,0.00669503783580527,,
0.0145569367546848,0.327764942054225,0.00684349125008454,,
0.0147879992428544,0.331946381366692,0.00695486379512955,,
0.015019061731024,0.335555648065275,0.00705644231295244,,
0.0152501242191936,0.338941041243146,0.00716433903407454,,
0.0154811867073632,0.3429120209442,0.00728215971976143,,
0.0157122491955328,0.346557135159013,0.0073773225812781,,
0.0159433116837024,0.349521840388356,0.00749642233768455,,
0.016174374171872,0.352412769116555,0.00758970516827073,,
0.0164054366600416,0.355218357628698,0.00770044020822747,,
0.0166364991482112,0.357765381475391,0.0077596144862988,,
0.0168675616363808,0.360292053183838,0.00784953112759501,,
0.0170986241245504,0.362373059319545,0.00793630084886754,,
0.01732968661272,0.3644344071399,0.00800155781880418,,
0.0175607491008896,0.366515182001309,0.00809998535606171,,
0.0177918115890593,0.368050843341729,0.00811761216873608,,
0.0180228740772289,0.369614257597939,0.00819496955373156,,
0.0182539365653985,0.371064578722302,0.00824749672460445,,
0.0184849990535681,0.372136535094718,0.00828605969165608,,
0.0187160615417377,0.372883319803787,0.00835615682761626,,
0.0189471240299073,0.373616921877855,0.00838797523446244,,
0.0191781865180769,0.374111617601824,0.00844282503533966,,
0.0194092490062465,0.37446893639263,0.00853574241714927,,
0.0196403114944161,0.37458827393053,0.00852250911088159,,
0.0198713739825857,0.374624583995356,0.00853296906698642,,
0.0201024364707553,0.374221704167794,0.00858939435814676,,
0.0203334989589249,0.37375938684558,0.00858563835682791,,
0.0205645614470945,0.372890026758436,0.00859935080704721,,
0.0207956239352641,0.372041018809539,0.0086065420268695,,
0.0210266864234337,0.370993346238439,0.00862243092758241,,
0.0212577489116033,0.36974007081619,0.00861341652441805,,
0.0214888113997729,0.368293681354897,0.00862363284800427,,
0.0217198738879425,0.366557736472188,0.00859568007711031,,
0.0219509363761121,0.365008198673873,0.00856048329934822,,
0.0221819988642817,0.362596701565958,0.00856558334005753,,
0.0224130613524513,0.360698402125873,0.00854224334483655,,
0.0226441238406209,0.357943925233645,0.00849738247719589,,
0.0228751863287905,0.35532289361151,0.0084877508716521,,
0.0231062488169601,0.35261374648174,0.00841701623060365,,
0.0233373113051297,0.349758433995472,0.00839458579678309,,
0.0235683737932993,0.346808761595515,0.00836047724426825,,
0.0237994362814689,0.343244593385093,0.00831165328766836,,
0.0240304987696385,0.339608498867912,0.00824415083802466,,
0.0242615612578081,0.336090354242843,0.0081989042188968,,
0.0244926237459777,0.331939674412043,0.00815269525132312,,
0.0247236862341473,0.327852826287562,0.00805118170217156,,
0.0249547487223169,0.32380714498817,0.0080059269619599,,
0.0251858112104865,0.319288045200249,0.00788919450151937,,
0.0254168736986561,0.314743967788116,0.00783999291451698,,
0.0256479361868257,0.310164042859753,0.00776141736693159,,
0.0258789986749953,0.305008707477329,0.00765992005994809,,
0.0261100611631649,0.299993061771052,0.00758457264322576,,
0.0263411236513345,0.294733884228712,0.00749821303669185,,
0.0265721861395041,0.289460367679879,0.00740144220055639,,
0.0268032486276737,0.283978010439722,0.00728175366556494,,
0.0270343111158433,0.278327979333329,0.00717908692249525,,
0.0272653736040129,0.272453380883329,0.00703763388256551,,
0.0274964360921825,0.26634658303788,0.00693068326772162,,
0.0277274985803521,0.260365135862086,0.0068376603118212,,
0.0279585610685217,0.254056204279962,0.00670053987016939,,
0.0281896235566913,0.247577979911514,0.00657250692143752,,
0.0284206860448609,0.241112475629471,0.00645199003588504,,
0.0286517485330305,0.234375021681965,0.00630748346839694,,
0.0288828110212001,0.227664569008781,0.00617186542727222,,
0.0291138735093697,0.220820699974791,0.00604172911780232,,
0.0293449359975393,0.213666692106839,0.00587565295139036,,
0.0295759984857089,0.20649649503801,0.00573842287510562,,
0.0298070609738785,0.199471538228485,0.00559537810272515,,
0.0300381234620481,0.192053877660522,0.00544039127642248,,
0.0302691859502177,0.184462530094568,0.00525976618814639,,
0.0305002484383873,0.176857045887134,0.00513539990881018,,
0.0307313109265569,0.16926803997345,0.00497375785422527,,
0.0309623734147265,0.161455825452662,0.00478744394665442,,
0.0311934359028961,0.153823311061618,0.00460637625930405,,
0.0314244983910657,0.14584134120591,0.0044475928262635,,
0.0316555608792353,0.13777079329397,0.00428781862098271,,
0.0318866233674049,0.12977587207756,0.00412629026157285,,
0.0321176858555745,0.121615589737897,0.0039371664589618,,
0.0323487483437441,0.113356813456464,0.00375046273936253,,
0.0325798108319137,0.105053603600478,0.00357826327566579,,
0.0328108733200833,0.0968533108072167,0.00339360606921746,,
0.0330419358082529,0.0884765268150985,0.00320852656640458,,
0.0332729982964225,0.0800204735572531,0.00304482175650067,,
0.0335040607845921,0.0715927803102313,0.00283154585027567,,
0.0337351232727617,0.0631300200977365,0.00266972513184438,,
0.0339661857609313,0.0545073915265723,0.00245948245046757,,
0.0341972482491009,0.0459949073399524,0.00228439188089125,,
0.0344283107372705,0.0374488594707981,0.00207800671438241,,
0.0346593732254401,0.0287830115151473,0.00185285778344824,,
0.0348904357136097,0.0202214971772972,0.00169243389145324,,
0.0351214982017793,0.0115653338328858,0.0015115611101173,,
0.0353525606899489,0.00296308630925537,0.00131425125490248,,
0.0355836231781185,-0.00568079058806116,0.00108872875410748,,
0.0358146856662881,-0.0143847988029242,0.000909642611236716,,
0.0360457481544577,-0.0230291960674118,0.000731145246950504,,
0.0362768106426273,-0.0316806471979962,0.000520614267094377,,
0.0365078731307969,-0.0403078723458383,0.000338840045441824,,
0.0367389356189665,-0.0488749083575593,0.00013051800041497,,
0.0369699981071361,-0.0573655660322813,-7.62082516190254E-05,,
0.0372010605953057,-0.0659660789986748,-0.000271796437040006,,
0.0374321230834753,-0.0744714804099106,-0.00046165316747615,,
0.0376631855716449,-0.0829148424906392,-0.000669355979852959,,
0.0378942480598145,-0.0913706933834736,-0.000873599210474474,,
0.0381253105479841,-0.0996264920083166,-0.00105985017964461,,
0.0383563730361537,-0.107982663678603,-0.0012563316842984,,
0.0385874355243233,-0.116220943275353,-0.00145698742609301,,
0.0388184980124929,-0.124431585593461,-0.00166293811461182,,
0.0390495605006625,-0.132563421194439,-0.00184538435595982,,
0.0392806229888321,-0.140563835175433,-0.00204302108480281,,
0.0395116854770017,-0.148501226910152,-0.00221299537150177,,
0.0397427479651713,-0.156425320372722,-0.00241421755890103,,
0.0399738104533409,-0.164257944850331,-0.00259596944757279,,
0.0402048729415105,-0.171887452675497,-0.00280026343496909,,
0.0404359354296801,-0.179442490176624,-0.00297642395735354,,
0.0406669979178497,-0.187069164891636,-0.00316202523980902,,
0.0408980604060193,-0.194371997770516,-0.0033421650933203,,
0.0411291228941889,-0.201765316718588,-0.00349133519325617,,
0.0413601853823585,-0.209100181087776,-0.00371034458473751,,
0.0415912478705281,-0.216192843448115,-0.00389238680216009,,
0.0418223103586977,-0.223189873886125,-0.00405833303122893,,
0.0420533728468673,-0.229857743179143,-0.00424571892187853,,
0.0422844353350369,-0.236728266576007,-0.00442035471075464,,
0.0425154978232065,-0.243273502672375,-0.00456638804202214,,
0.0427465603113761,-0.249880084276354,-0.00469371039590971,,
0.0429776227995457,-0.256253310113394,-0.00488416605628572,,
0.0432086852877153,-0.26268527962219,-0.00505392919480308,,
0.0434397477758849,-0.268510616646661,-0.00519533553849971,,
0.0436708102640545,-0.274605619502899,-0.00537073267899491,,
0.0439018727522241,-0.280374988147192,-0.00551169642361771,,
0.0441329352403937,-0.28608335819532,-0.00567053061343303,,
0.0443639977285633,-0.291554787724885,-0.00580017559732493,,
0.0445950602167329,-0.296888262135541,-0.00596651163842266,,
0.0448261227049025,-0.302438556200811,-0.00610244234127855,,
0.0450571851930721,-0.307068205103299,-0.00624407607532573,,
0.0452882476812417,-0.312049853487732,-0.0063845363127446,,
0.0455193101694113,-0.316863596731632,-0.00651962242287141,,
0.0457503726575809,-0.321121125288226,-0.00666255146980577,,
0.0459814351457505,-0.325712209201479,-0.00678427230605116,,
0.0462124976339201,-0.329756445036507,-0.00689502967898825,,
0.0464435601220897,-0.333850231389935,-0.00700297309634301,,
0.0466746226102593,-0.337604275799226,-0.00710162802395065,,
0.0469056850984289,-0.34128298260586,-0.00721269196780616,,
0.0471367475865985,-0.344926651356308,-0.00732885595237098,,
0.0473678100747681,-0.348292154944529,-0.00740863951119142,,
0.0475988725629377,-0.351358620865105,-0.00752705912681817,,
0.0478299350511073,-0.354240009528501,-0.00760415866739894,,
0.0480609975392769,-0.356983038342966,-0.00771473737648964,,
0.0482920600274465,-0.359584180375451,-0.00777829297934218,,
0.0485231225156161,-0.361790941910835,-0.00786819337847078,,
0.0487541850037857,-0.364195269515503,-0.00795406571996926,,
0.0489852474919553,-0.365948559970582,-0.00801945668779069,,
0.0492163099801249,-0.367553314507605,-0.00808775500365977,,
0.0494473724682945,-0.369608938289079,-0.00815390935337046,,
0.0496784349564641,-0.370805320233957,-0.00820875915424812,,
0.0499094974446337,-0.371953886217671,-0.00826786440310601,,
0.0501405599328033,-0.373196291747902,-0.00831135889837542,,
0.0503716224209729,-0.373752911165229,-0.00834545120872265,,
0.0506026849091425,-0.374309588401131,-0.00841732483179269,,
0.0508337473973121,-0.374961781922213,-0.00846363328264488,,
0.0510648098854817,-0.37515188939538,-0.00852411708549994,,
0.0512958723736513,-0.375306438445189,-0.00852796647928411,,
0.0515269348618209,-0.374743285528936,-0.00854705102652442,,
0.0517579973499905,-0.37421962269911,-0.00858073728267472,,
0.0519890598381601,-0.37415856628437,-0.00856840947726578,,
0.0522201223263297,-0.372935645613767,-0.00860652984524313,,
0.0524511848144993,-0.372357402049553,-0.00859670333368534,,
0.0526822473026689,-0.370977446130434,-0.00861822420610547,,
0.0529133097908385,-0.369621658375483,-0.00861312416539617,,
0.0531443722790081,-0.367963421656988,-0.0086218462095391,,
0.0533754347671778,-0.366052864679095,-0.00856074317403399,,
0.0536064972553474,-0.364119353727101,-0.00855057557695105,,
0.053837559743517,-0.362147798153043,-0.00853555157167651,,
0.0540686222316865,-0.359964337503209,-0.00851401445708877,,
0.0542996847198561,-0.357353481950197,-0.00851521637751063,,
0.0545307472080258,-0.354415084172281,-0.00844675563996278,,
0.0547618096961954,-0.351557516761605,-0.00840095272658559,,
0.054992872184365,-0.348890461554117,-0.00836356528643334,,
0.0552239346725346,-0.345465115741223,-0.0083279908782683,,
0.0554549971607042,-0.341739228977745,-0.00828280719754115,,
0.0556860596488738,-0.3383237701411,-0.00823107386262256,,
0.0559171221370434,-0.334431423701453,-0.00816536008171509,,
0.056148184625213,-0.330580706635491,-0.00810906472789741,,
0.0563792471133826,-0.326267672247316,-0.00804599639008075,,
0.0566103096015522,-0.322119767708095,-0.00794422296624342,,
0.0568413720897218,-0.317354592066829,-0.00788336559352709,,
0.0570724345778914,-0.312655792149163,-0.00780046353847696,,
0.057303497066061,-0.307856619186053,-0.0077085815948692,,
0.0575345595542306,-0.30290943067206,-0.00761020278411539,,
0.0577656220424002,-0.29775363274104,-0.00752155303191238,,
0.0579966845305698,-0.292211838006231,-0.00745101329687792,,
0.0582277470187394,-0.286910568541607,-0.00733393975091268,,
0.058458809506909,-0.281167160437293,-0.00723083446931039,,
0.0586898719950786,-0.275397907430149,-0.00710978159221831,,
0.0589209344832482,-0.269439182954159,-0.00698288153469528,,
0.0591519969714178,-0.263337010594676,-0.00688291099149074,,
0.0593830594595874,-0.257065776723167,-0.00673525141316578,,
0.059614121947757,-0.250722847819199,-0.00662686945727886,,
0.0598451844359266,-0.244531403580589,-0.00648051128265426,,
0.0600762469240962,-0.237706788131928,-0.00635076884575492,,
0.0603073094122658,-0.231037473374546,-0.00622820544705149,,
0.0605383719004354,-0.224037725463532,-0.00610361177736474,,
0.060769434388605,-0.217030808049271,-0.00593743815794578,,
0.0610004968767746,-0.210145309641594,-0.00582064072883393,,
0.0612315593649442,-0.202766040607141,-0.00565094052871773,,
0.0614626218531138,-0.195647012976801,-0.00549266263315173,,
0.0616936843412834,-0.18820847990342,-0.00535969003511827,,
0.061924746829453,-0.180484612164566,-0.00521914655658895,,
0.0621558093176226,-0.172971840041444,-0.00505256485270245,,
0.0623868718057922,-0.165211257507742,-0.00487610994102505,,
0.0626179342939618,-0.157590306831612,-0.00474131618992013,,
0.0628489967821314,-0.149766066047314,-0.00454257702393335,,
0.063080059270301,-0.141773399755312,-0.00438082127417339,,
0.0633111217584706,-0.133710310439491,-0.00424173959075169,,
0.0635421842466402,-0.125516030777984,-0.00403895409469612,,
0.0637732467348098,-0.117355517164022,-0.00387632329814247,,
0.0640043092229794,-0.109157768388041,-0.00369000939057162,,
0.064235371711149,-0.100891562419777,-0.00350954063316111,,
0.0644664341993186,-0.0925885838380895,-0.00333094378559728,,
0.0646974966874882,-0.0840850904398143,-0.00314579931411263,,
0.0649285591756578,-0.0756870581215439,-0.0029684023566996,,
0.0651596216638274,-0.067205015414432,-0.00275856979006139,,
0.065390684151997,-0.0586581002666593,-0.002594264019947,,
0.0656217466401666,-0.0501372612960149,-0.00241043516405925,,
0.0658528091283362,-0.0415352450466827,-0.00222147378312698,,
0.0660838716165058,-0.0329001565726999,-0.00202405023273711,,
0.0663149341046754,-0.0244019824832847,-0.00182217632835258,,
0.066545996592845,-0.0157160136636855,-0.00162748146216396,,
0.0667770590810146,-0.00713203680961731,-0.00144649498565297,,
0.0670081215691842,0.00151322773348875,-0.00123118880844464,,
0.0672391840573538,0.0101799718770453,-0.00103350538336899,,
0.0674702465455234,0.0188548395303282,-0.00085008258167818,,
0.067701309033693,0.0274909109200785,-0.00067078529062492,,
0.0679323715218626,0.0361148693184578,-0.00046009188909002,,
0.0681634340100322,0.0447099473388423,-0.000242623473285075,,
0.0683944964982018,0.0531780557694843,-6.45301329247339E-05,,
0.0686255589863714,0.0618286396214502,0.000144344145809328,,
0.068856621474541,0.0703420778145504,0.000363077420437286,,
0.0690876839627106,0.0787696843337103,0.000553667078698084,,
0.0693187464508802,0.0872070332826843,0.000736923398168443,,
0.0695498089390498,0.0956279906657693,0.000942922813190528,,
0.0697808714272194,0.103902753783069,0.0011237631101908,,
0.070011933915389,0.112188849340984,0.00135844619366088,,
0.0702429964035586,0.120430800417219,0.00153215617896896,,
0.0704740588917282,0.12851218931189,0.00170574028747605,,
0.0707051213798978,0.136749254718574,0.00191175188412407,,
0.0709361838680674,0.144689132651999,0.00210094065540645,,
0.071167246356237,0.152432427431907,0.00231369275171822,,
0.0713983088444066,0.160338972957096,0.00247207013056228,,
0.0716293713325762,0.168283274011476,0.00268936597333402,,
0.0718604338207458,0.175949554450064,0.00287098183384993,,
0.0720914963089154,0.183414366065585,0.00306062538583296,,
0.072322558797085,0.190933324776184,0.00323811979625299,,
0.0725536212852546,0.198243240430448,0.00342814909972278,,
0.0727846837734242,0.205420144453927,0.00360368226837338,,
0.0730157462615938,0.212799876036976,0.00378817705314338,,
0.0732468087497634,0.219756144379919,0.00394163305512452,,
0.073477871237933,0.226732071038213,0.00412179118107447,,
0.0737089337261026,0.233538936184483,0.00429806742890504,,
0.0739399962142722,0.2400990605638,0.00447830676569438,,
0.0741710587024418,0.246770832610601,0.00465125336911276,,
0.0744021211906114,0.253093178102024,0.00483003091079448,,
0.074633183678781,0.259317232016689,0.00493945439569599,,
0.0748642461669506,0.265463577767139,0.00513913560741885,,
0.0750953086551202,0.271548404554254,0.00530604012439184,,
0.0753263711432898,0.277351076697496,0.00542572459884116,,
0.0755574336314594,0.283143341497316,0.00561553463304465,,
0.075788496119629,0.288741798435198,0.00574888283121,,
0.0760195586077986,0.294005370189205,0.00591429306873925,,
0.0762506210959682,0.299504841727434,0.00606528026120534,,
