Time domain (s),Current (AC) (A),Potential (AC) (V),Frequency (Hz),Column 5
0,0.343749060448163,0.00682955573352606,125.89,0.4
0.000242414632814362,0.3105258136808,0.00637753756743908,,
0.000484829265628723,0.265026295887712,0.00567880152450684,,
0.000727243898443085,0.210437669263877,0.00475535058176035,,
0.000969658531257447,0.147729984944043,0.00369314457549885,,
0.00121207316407181,0.0797362663539838,0.00249331940754915,,
0.00145448779688617,0.00890018663835869,0.00114642660927133,,
0.00169690242970053,-0.0625603336825575,-0.000189453527686734,,
0.00193931706251489,-0.131878271085856,-0.00154224184266072,,
0.00218173169532926,-0.196121240925375,-0.00283906185383964,,
0.00242414632814362,-0.253075716892506,-0.00400304466380907,,
0.00266656096095798,-0.30065444844549,-0.0050432774871858,,
0.00290897559377234,-0.337462446835821,-0.00587940551144062,,
0.0031513902265867,-0.361561517806965,-0.00651770040436617,,
0.00339380485940106,-0.372733627514241,-0.00688114429781761,,
0.00363621949221543,-0.370097331788421,-0.00702376701394725,,
0.00387863412502979,-0.35389009151524,-0.00694637671897347,,
0.00412104875784415,-0.324532305550352,-0.00653651354561058,,
0.00436346339065851,-0.283314195385153,-0.00592490117281663,,
0.00460587802347287,-0.232098039487774,-0.0051272504263542,,
0.00484829265628724,-0.172184813604479,-0.00409333582412419,,
0.0050907072891016,-0.105936579961932,-0.00293556509365489,,
0.00533312192191596,-0.0357222811971683,-0.00165739621805017,,
0.00557553655473032,0.0355631066613936,-0.000347317811774772,,
0.00581795118754468,0.10596511342848,0.00100865847685183,,
0.00606036582035904,0.172316524317336,0.00232578319872312,,
0.00630278045317341,0.232475594779677,0.00358414269131702,,
0.00654519508598777,0.283589527437226,0.00466741315900165,,
0.00678760971880213,0.32444436349844,0.00557383674714673,,
0.00703002435161649,0.353322428750171,0.00629444914198807,,
0.00727243898443085,0.369506541593526,0.00680238347211448,,
0.00751485361724521,0.371992509025479,0.00702603323119888,,
0.00775726825005958,0.361272482752719,0.00700366900014426,,
0.00799968288287394,0.336916061306191,0.00672645309030839,,
0.0082420975156883,0.300629123909831,0.00622309588590486,,
0.00848451214850266,0.253108037475687,0.0054542430439608,,
0.00872692678131702,0.19642591590404,0.00451118755295887,,
0.00896934141413138,0.132504735341257,0.00339552712399493,,
0.00921175604694575,0.0634122614694706,0.00215267548454223,,
0.00945417067976011,-0.00762962346231501,0.000818884662092678,,
0.00969658531257447,-0.0790080992259249,-0.000523386319243091,,
0.00993899994538883,-0.147312187924244,-0.00185682519833952,,
0.0101814145782032,-0.209857546595989,-0.00309852231462404,,
0.0104238292110176,-0.264988251265649,-0.00425602675991055,,
0.0106662438438319,-0.310112353054093,-0.00523804182144749,,
0.0109086584766463,-0.344231151722878,-0.00604333290429748,,
0.0111510731094606,-0.365411714505755,-0.00660529519444264,,
0.011393487742275,-0.373090715030748,-0.0069818466501248,,
0.0116359023750894,-0.367567884788396,-0.00707687694183345,,
0.0118783170079037,-0.348088633562064,-0.00684412507105892,,
0.0121207316407181,-0.315946998869069,-0.00643861184305417,,
0.0123631462735324,-0.272596308399651,-0.00577520048481039,,
0.0126055609063468,-0.218792135286214,-0.00489129754698858,,
0.0128479755391612,-0.157370769703992,-0.00381943823733089,,
0.0130903901719755,-0.089903200142465,-0.00265791158229556,,
0.0133328048047899,-0.0191945525651789,-0.00136298722367423,,
0.0135752194376043,0.0521325224856437,-1.19921438779258E-06,,
0.0138176340704186,0.121837439608499,0.00134856127047023,,
0.014060048703233,0.186943004761938,0.00264940721566553,,
0.0143024633360473,0.24490450684225,0.00383175811681902,,
0.0145448779688617,0.293905286236635,0.00486216259619043,,
0.0147872926016761,0.332181413872295,0.00577958022431391,,
0.0150297072344904,0.358342699942413,0.00642166269808619,,
0.0152721218673048,0.371169866346583,0.00687013163649697,,
0.0155145365001192,0.370912226778326,0.00703509065166941,,
0.0157569511329335,0.356634739249792,0.0069751857962963,,
0.0159993657657479,0.329434106483312,0.00666281279384462,,
0.0162417803985622,0.290503010034992,0.00606590197010792,,
0.0164841950313766,0.240981169646636,0.00526764230578092,,
0.016726609664191,0.182166727954356,0.00427673369157811,,
0.0169690242970053,0.116707313124585,0.00311294454355959,,
0.0172114389298197,0.0470532763473462,0.00183893195136164,,
0.017453853562634,-0.0242124531958639,0.000537998485861557,,
0.0176962681954484,-0.0952509557410375,-0.000821819385501854,,
0.0179386828282628,-0.162460134092838,-0.00215363075935748,,
0.0181810974610771,-0.223461332093703,-0.00338375843621241,,
0.0184235120938915,-0.276174989072289,-0.00451349287502811,,
0.0186659267267059,-0.319170095308138,-0.0054792701268398,,
0.0189083413595202,-0.350067358639367,-0.00622695422784902,,
0.0191507559923346,-0.368477255329138,-0.00674482118149289,,
0.0193931706251489,-0.373388133778305,-0.00702788046826885,,
0.0196355852579633,-0.364013256642776,-0.0070207875993189,,
0.0198779998907777,-0.342059890792276,-0.00679734826139233,,
0.020120414523592,-0.307055195924022,-0.00630328683062986,,
0.0203628291564064,-0.26104964996635,-0.00558998331229876,,
0.0206052437892207,-0.205277852941925,-0.00467891183733338,,
0.0208476584220351,-0.141998603103239,-0.003579208035839,,
0.0210900730548495,-0.0736423620506629,-0.00235532409476447,,
0.0213324876876638,-0.00266653484031666,-0.00105710189657637,,
0.0215749023204782,0.0686536019815582,0.000321264692983103,,
0.0218173169532926,0.137492888315329,0.00164650645758302,,
0.0220597315861069,0.201176781448101,0.00290845242053583,,
0.0223021462189213,0.257363253289299,0.00408482959535972,,
0.0225445608517356,0.303788562098305,0.00508860928075716,,
0.02278697548455,0.339561376729643,0.00593564196255247,,
0.0230293901173644,0.362379361544172,0.00658731442715998,,
0.0232718047501787,0.372240203798912,0.00691148963580801,,
0.0235142193829931,0.368855504443936,0.00706206925113007,,
0.0237566340158075,0.351487498467808,0.00691789165299106,,
0.0239990486486218,0.321788640731567,0.00651871712960794,,
0.0242414632814362,0.279826000781707,0.00588108888070549,,
0.0244838779142505,0.22793591157921,0.00502656297111992,,
0.0247262925470649,0.167470171397382,0.00398725376627818,,
0.0249687071798793,0.100910584730808,0.00281906998168235,,
0.0252111218126936,0.0304940365922195,0.00153230921914282,,
0.025453536445508,-0.040858247357113,0.000206004175947516,,
0.0256959510783223,-0.111209980873616,-0.00115010618633749,,
0.0259383657111367,-0.177056317604368,-0.00245239342335957,,
0.0261807803439511,-0.236713118109471,-0.00365014789814211,,
0.0264231949767654,-0.287384160485861,-0.0047459617014125,,
0.0266656096095798,-0.32767277924637,-0.00565362547089654,,
0.0269080242423942,-0.35572802836348,-0.00634884208029884,,
0.0271504388752085,-0.370927375244862,-0.0067956369601152,,
0.0273928535080229,-0.372342253583017,-0.0070107041429357,,
0.0276352681408372,-0.36024597177991,-0.00699121690913129,,
0.0278776827736516,-0.334812505926404,-0.00667796311723068,,
0.028120097406466,-0.297085654749102,-0.00614147668429288,,
0.0283625120392803,-0.248781010992467,-0.00539487820748885,,
0.0286049266720947,-0.190999440316198,-0.00443547690298196,,
0.028847341304909,-0.126631177625599,-0.00330846862855161,,
0.0290897559377234,-0.0573138184080465,-0.00204214292609528,,
0.0293321705705378,0.0138513068154223,-0.000721917750875711,,
0.0295745852033521,0.0849133415204435,0.000634531519823067,,
0.0298169998361665,0.152877688274624,0.00195661882918552,,
0.0300594144689809,0.215018316924422,0.00320540695228511,,
0.0303018291017952,0.26901670262982,0.00434019149889586,,
0.0305442437346096,0.313072374978896,0.00533229560321802,,
0.0307866583674239,0.345846255784748,0.0060997443960189,,
0.0310290730002383,0.365829511525555,0.00666048885043447,,
0.0312714876330527,0.372807057103937,0.00698487261810676,,
0.031513902265867,0.365990709711439,0.00703972364141681,,
0.0317563168986814,0.34583145422966,0.00683259473644693,,
0.0319987315314958,0.312600344136156,0.00637625269488051,,
0.0322411461643101,0.268689912046384,0.00569341927752776,,
0.0324835607971245,0.214638593435973,0.00482150475931675,,
0.0327259754299388,0.152570324732242,0.00374306094333043,,
0.0329683900627532,0.0847736518442969,0.00255202504853447,,
0.0332108046955676,0.0140071567831595,0.00124292984908658,,
0.0334532193283819,-0.0574126881705509,-0.000123265831715624,,
0.0336956339611963,-0.127001910325704,-0.00147350674718227,,
0.0339380485940106,-0.191623187098595,-0.00273177313306894,,
0.034180463226825,-0.249306697472403,-0.00392648860493106,,
0.0344228778596394,-0.297682978442923,-0.00498626452613626,,
0.0346652924924537,-0.335283149123355,-0.00582601626343271,,
0.0349077071252681,-0.360727080138857,-0.0064584547444797,,
0.0351501217580825,-0.372381165483699,-0.00689794819632183,,
0.0353925363908968,-0.370730792091344,-0.00707158661873386,,
0.0356349510237112,-0.355082252704175,-0.00695486991279859,,
0.0358773656565255,-0.327083781427286,-0.006596742412325,,
0.0361197802893399,-0.286766889383816,-0.00598310403758351,,
0.0363621949221543,-0.235925397849612,-0.00519214393909584,,
0.0366046095549686,-0.176691829310317,-0.00419831736069165,,
0.036847024187783,-0.110811784350593,-0.00304187060759809,,
0.0370894388205973,-0.0408193354564314,-0.00175562938048435,,
0.0373318534534117,0.0304105465705491,-0.000421192397487502,,
0.0375742680862261,0.101121969439414,0.000923283350673376,,
0.0378166827190404,0.167831884399855,0.00224909306618715,,
0.0380590973518548,0.228181785067544,0.00346883562092781,,
0.0383015119846692,0.279955976937327,0.00458106599880104,,
0.0385439266174835,0.322011589155086,0.00551572698908709,,
0.0387863412502979,0.351429217344647,0.00624210455123464,,
0.0390287558831122,0.368700781938402,0.00674696636002547,,
0.0392711705159266,0.372287846304352,0.00700027619173582,,
0.039513585148741,0.362238746770833,0.00701466676439155,,
0.0397559997815553,0.339246381135418,0.00676065677024296,,
0.0399984144143697,0.303587816007419,0.00628318695469243,,
0.040240829047184,0.256891684995155,0.00552897048711021,,
0.0404832436799984,0.200846290475893,0.00458686096025351,,
0.0407256583128128,0.137220649556994,0.00347832505651935,,
0.0409680729456271,0.0685060489792709,0.00223170818183016,,
0.0412104875784415,-0.00248452196758922,0.000930880857976213,,
0.0414529022112559,-0.0739564325476945,-0.00042525929845505,,
0.0416953168440702,-0.142565745501137,-0.00174320522148363,,
0.0419377314768846,-0.205771392294403,-0.00303194915688509,,
0.0421801461096989,-0.261160430355214,-0.00419497855417372,,
0.0424225607425133,-0.307416215103599,-0.00517657835979657,,
0.0426649753753277,-0.342059890792276,-0.00602124054482767,,
0.042907390008142,-0.364202612474473,-0.00660815543248594,,
0.0431498046409564,-0.373328927557952,-0.00694633202775385,,
0.0433922192737708,-0.368485118655279,-0.00703281139947887,,
0.0436346339065851,-0.349763232937161,-0.0068785224129444,,
0.0438770485393995,-0.318990395178393,-0.00647679304151749,,
0.0441194631722138,-0.276009859223335,-0.00582430123788713,,
0.0443618778050282,-0.222853022870715,-0.00496983491659453,,
0.0446042924378426,-0.162061937569816,-0.00391032528057167,,
0.0448467070706569,-0.0949359601468129,-0.00272943429258588,,
0.0450891217034713,-0.0243308656365709,-0.0014541107579511,,
0.0453315363362856,0.0469707114228689,-0.000120480079037755,,
0.0455739509691,0.117110424226445,0.00122925433594201,,
0.0458163656019144,0.182421129682437,0.00253837932953616,,
0.0460587802347287,0.241053095953394,0.00373141515640141,,
0.0463011948675431,0.290836507573077,0.00482260714272931,,
0.0465436095003575,0.329935046613335,0.00573371213610896,,
0.0467860241331718,0.356814208105239,0.00639447553960171,,
0.0470284387659862,0.370809772264198,0.0068541508012836,,
0.0472708533988005,0.37140900397098,0.00707273555550003,,
0.0475132680316149,0.358488402750314,0.00698841439724651,,
0.0477556826644293,0.332035942338692,0.00667794822015733,,
0.0479980972972436,0.293473265847493,0.00610225082857507,,
0.048240511930058,0.244538399628111,0.0053238154443318,,
0.0484829265628723,0.186631015733591,0.00434265324023242,,
0.0487253411956867,0.121590438657961,0.00322943965553213,,
0.0489677558285011,0.0520941020428459,0.00193424342532555,,
0.0492101704613154,-0.0191235513556143,0.000611010903465825,,
0.0494525850941298,-0.0902131655207025,-0.000727029309097738,,
0.0496949997269442,-0.157706117436463,-0.00207924967315831,,
0.0499374143597585,-0.219364307900099,-0.0033140401339069,,
0.0501798289925729,-0.272819199004595,-0.00441923909325714,,
0.0504222436253872,-0.31666695575954,-0.00537208568558123,,
0.0506646582582016,-0.348535224231996,-0.00616449266229768,,
0.050907072891016,-0.367691616537963,-0.00670538862888526,,
0.0511494875238303,-0.373295103691832,-0.00698038859909111,,
0.0513919021566447,-0.365350022086695,-0.00704888534139947,,
0.0516343167894591,-0.343834227208496,-0.0068069270794231,,
0.0518767314222734,-0.309932710742922,-0.00637236455879053,,
0.0521191460550878,-0.264414691005974,-0.00565161436602235,,
0.0523615606879021,-0.209501846725272,-0.00472762526650872,,
0.0526039753207165,-0.146807778679748,-0.00368021019174325,,
0.0528463899535309,-0.0787469905431939,-0.00244984602385223,,
0.0530888045863452,-0.00779481112984433,-0.00114234481123043,,
0.0533312192191596,0.0635392021499259,0.000192432942315079,,
0.0535736338519739,0.13268073508223,0.00154350809387793,,
0.0538160484847883,0.196890372513512,0.00282833596117715,,
0.0540584631176027,0.253393429959735,0.00401402380671456,,
0.054300877750417,0.300911047279405,0.00503524796476196,,
0.0545432923832314,0.336869575172242,0.00589436217287531,,
0.0547857070160458,0.361136493465345,0.00650614027560792,,
0.0550281216488601,0.372391919738568,0.00691604814018953,,
0.0552705362816745,0.369344649584747,0.00704360805323834,,
0.0555129509144888,0.353398980542893,0.00692748909236318,,
0.0557553655473032,0.324051659740001,0.00654846286040467,,
0.0559977801801176,0.283227583160456,0.0059420923952227,,
0.0562401948129319,0.231819469595524,0.00509167807782474,,
0.0564826094457463,0.172125260472678,0.00408661724413673,,
0.0567250240785607,0.105781452726377,0.00291360680784303,,
0.056967438711375,0.0356644048040297,0.00162596711798813,,
0.0572098533441894,-0.0356770092532847,0.000295029085045417,,
0.0574522679770037,-0.106335007759253,-0.00105428634975224,,
0.0576946826098181,-0.172555546304584,-0.00237704402740579,,
0.0579370972426325,-0.232730748149227,-0.00357628634736873,,
0.0581795118754468,-0.284273000807147,-0.00469538613809473,,
0.0584219265082612,-0.325098291576759,-0.00561197139225689,,
0.0586643411410755,-0.354145649614813,-0.00631273157500223,,
0.0589067557738899,-0.369969205827187,-0.00679964241065623,,
0.0591491704067043,-0.372650600041167,-0.00701430737250197,,
0.0593915850395186,-0.36153763873567,-0.00700881221464655,,
0.059633999672333,-0.336845638282372,-0.00672243088056002,,
0.0598764143051473,-0.300243763110362,-0.00619769823833183,,
0.0601188289379617,-0.252627969851082,-0.0054414464581316,,
0.0603612435707761,-0.195554850168946,-0.00448299856630552,,
0.0606036582035904,-0.131491580459172,-0.00338378823035868,,
0.0608460728364048,-0.0623859528616725,-0.00213863126883762,,
0.0610884874692192,0.00866220538545331,-0.000830519276216801,,
0.0613309021020335,0.079917325220231,0.00051303285340909,,
0.0615733167348479,0.14799294382116,0.00185883816534771,,
0.0618157313676622,0.210566749231591,0.00309940310407342,,
0.0620581460004766,0.265419462194747,0.00425562453893535,,
0.062300560633291,0.310314197697896,0.00525448819019614,,
0.0625429752661053,0.344121643342654,0.00605244991306053,,
0.0627853898989197,0.364953675758059,0.00661557417491077,,
0.0630278045317341,0.372734205699986,0.00696954352984358,,
0.0632702191645484,0.366622551094274,0.00704168633080338,,
0.0635126337973628,0.347825038680626,0.00687545361587727,,
0.0637550484301771,0.315589333166816,0.00642948366148621,,
0.0639974630629915,0.272163652006189,0.00575389767021672,,
0.0642398776958059,0.218715901495651,0.00487495545775118,,
0.0644822923286202,0.157009866161564,0.00385793227433018,,
0.0647247069614346,0.089801092539785,0.00263526989325369,,
0.0649671215942489,0.0190896696709198,0.00132958612355516,,
0.0652095362270633,-0.0522433606930828,-7.64964705846083E-06,,
0.0654519508598777,-0.122143762416539,-0.00137010616250199,,
0.065694365492692,-0.187256497073224,-0.00264323982738457,,
0.0659367801255064,-0.245224706108186,-0.00385070719385627,,
0.0661791947583208,-0.294544354941291,-0.00489916320160733,,
0.0664216093911351,-0.332855231540264,-0.005780920960897,,
0.0666640240239495,-0.359231082340588,-0.00642510019771381,,
0.0669064386567638,-0.371875137319115,-0.00685148422519122,,
0.0671488532895782,-0.371290707167422,-0.00702783577704924,,
0.0673912679223926,-0.356722507845981,-0.00696023285912961,,
0.0676336825552069,-0.329612534604417,-0.0066396329480356,,
0.0678760971880213,-0.290221896125462,-0.00606223729011512,,
0.0681185118208357,-0.240207268026097,-0.00523461549462478,,
0.06836092645365,-0.181122697953454,-0.00422927161654707,,
0.0686033410864644,-0.115842925434853,-0.00312213603768852,,
0.0688457557192787,-0.0459588285494245,-0.00185035800646194,,
0.0690881703520931,0.0253100231968121,-0.000523416113389352,,
0.0693305849849075,0.0961402921456936,0.000824471064520882,,
0.0695729996177218,0.163101602268338,0.00214964020588937,,
0.0698154142505362,0.22416984090641,0.00339353091619365,,
0.0700578288833505,0.276797695120344,0.00450385446870483,,
0.0703002435161649,0.319044802457058,0.00547258134099859,,
0.0705426581489793,0.349875285334665,0.00620822860690895,,
0.0707850727817936,0.367891553168805,0.00671901945081022,,
0.071027487414608,0.372445575375763,0.00701109146683709,,
0.0712699020474224,0.363462187808607,0.00699671579125516,,
0.0715123166802367,0.341184922303399,0.00678149777556891,,
0.0717547313130511,0.306449604174039,0.00630982292147086,,
0.0719971459458654,0.260628152557778,0.00556881643349749,,
0.0722395605786798,0.205151721721513,0.00463504181906371,,
0.0724819752114942,0.141994584712306,0.00356267228465068,,
0.0727243898443085,0.0735517314350339,0.00234297442112963,,
0.0729668044771229,0.00257969134132155,0.00101913111927088,,
0.0732092191099372,-0.0688283297138906,-0.00033787306740285,,
0.0734516337427516,-0.137820517268095,-0.00165866246926738,,
0.073694048375566,-0.201243504083148,-0.00292725252684178,,
0.0739364630083803,-0.257700798127603,-0.00412469416308836,,
0.0741788776411947,-0.304440871256536,-0.00511402182540399,,
0.0744212922740091,-0.339868393360577,-0.00593401818157968,,
0.0746637069068234,-0.362911176793012,-0.00657611182815687,,
0.0749061215396378,-0.372990052892432,-0.00693597856191985,,
0.0751485361724521,-0.369142342392348,-0.00708491949919621,,
0.0753909508052665,-0.35181741125427,-0.00692620794407306,,
0.0756333654380809,-0.32145410245914,-0.00652644498630073,,
0.0758757800708952,-0.279502563675596,-0.00587574083144737,,
0.0761181947037096,-0.227168659094746,-0.00502858897306746,,
0.0763606093365239,-0.166481820683786,-0.00398160777555701,,
0.0766030239693383,-0.0998440054858264,-0.00281509432528759,,
0.0768454386021527,-0.0294258962457243,-0.00153406334950557,,
0.077087853234967,0.0418512235566749,-0.000186295348180376,,
0.0773302678677814,0.112101254200519,0.00114478793122563,,
0.0775726825005958,0.177916368901008,0.00245282543848058,,
0.0778150971334101,0.237170694308571,0.00367078034444424,,
0.0780575117662245,0.287590572797054,0.00474366755214861,,
0.0782999263990388,0.327499959526998,0.005670950766961,,
0.0785423410318532,0.355295429788592,0.00635835013723174,,
0.0787847556646676,0.369987129585302,0.00681610367647822,,
0.0790271702974819,0.372002453820305,0.00703133658923738,,
0.0792695849302963,0.359564522060099,0.00701761638487364,,
0.0795119995631107,0.33435677992169,0.006681687385516,,
0.079754414195925,0.29674117168185,0.00614580614617477,,
0.0799968288287394,0.24870110572242,0.00536792940217445,,
