Time domain (s),Current (AC) (A),Potential (AC) (V),Frequency (Hz),Column 5
0,-0.0939484478025473,-0.000821399136387235,398.11,0.4
7.84958930948733E-05,-0.162799037667645,-0.00202842726934582,,
0.000156991786189747,-0.225252002257237,-0.00313089593557514,,
0.00023548767928462,-0.278893300446128,-0.00412679615647749,,
0.000313983572379493,-0.321857589381734,-0.00499791056967869,,
0.000392479465474366,-0.352424246103606,-0.00560315240404163,,
0.00047097535856924,-0.369810869660744,-0.00605600811990259,,
0.000549471251664113,-0.372255496811884,-0.00625605656128325,,
0.000627967144758986,-0.360872580581747,-0.00619674077384458,,
0.000706463037853859,-0.335117180905069,-0.00592209627232787,,
0.000784958930948733,-0.297102624500737,-0.00541463013019072,,
0.000863454824043606,-0.247346387611098,-0.00470437750326136,,
0.000941950717138479,-0.18837982524914,-0.00379915442924039,,
0.00102044661023335,-0.121935586638821,-0.00275557336952748,,
0.00109894250332823,-0.0509275544824428,-0.00161684125091854,,
0.0011774383964231,0.0214101314331837,-0.000415761361042488,,
0.00125593428951797,0.0941460138718324,0.000817925084688476,,
0.00133443018261285,0.163044853337404,0.00200396772347222,,
0.00141292607570772,0.225500679946437,0.00315773709317346,,
0.00149142196880259,0.278922123005548,0.00414452979013458,,
0.00156991786189747,0.321756782696982,0.00496631313210605,,
0.00164841375499234,0.35186187373811,0.00563295148174126,,
0.00172690964808721,0.368804132640436,0.00608025010357816,,
0.00180540554118209,0.371399232631878,0.00627445908297553,,
0.00188390143427696,0.360345304091011,0.00624771281952752,,
0.00196239732737183,0.334955809263461,0.00595022197269346,,
0.00204089322046671,0.297086377481284,0.00544496848440312,,
0.00211938911356158,0.247643112535761,0.00470335912701403,,
0.00219788500665645,0.188677677636007,0.00383404538817755,,
0.00227638089975132,0.122375325807668,0.00278833036732795,,
0.0023548767928462,0.0515586153145215,0.00161096707156316,,
0.00243337268594107,-0.0208603346076547,0.000433904659689954,,
0.00251186857903594,-0.0939089577161201,-0.000825859161453391,,
0.00259036447213082,-0.162862406825367,-0.00202842726934582,,
0.00266886036522569,-0.225291029795068,-0.00315106441426005,,
0.00274735625832056,-0.278969678783127,-0.0041565744037535,,
0.00282585215141544,-0.321964380288954,-0.00499865352144147,,
0.00290434804451031,-0.352347347399436,-0.00563973525624473,,
0.00298284393760518,-0.369572194584944,-0.00605539477966266,,
0.00306133983070006,-0.372291517783837,-0.00624187335754423,,
0.00313983572379493,-0.360633211683052,-0.00620365647436216,,
0.0032183316168898,-0.335435009609447,-0.00595062932319212,,
0.00329682750998468,-0.297338755559256,-0.0054184027512898,,
0.00337532340307955,-0.247240059252475,-0.0047230785943535,,
0.00345381929617442,-0.188197118553518,-0.00382318810868343,,
0.0035323151892693,-0.121909799554566,-0.00275726526279341,,
0.00361081108236417,-0.0509354178085835,-0.00161914648442441,,
0.00368930697545904,0.0214319579450816,-0.000418008732261388,,
0.00376780286855392,0.0941086341633768,0.000833800181693434,,
0.00384629876164879,0.163034185810397,0.00199811206004874,,
0.00392479465474366,0.22553181524884,0.00313329606323176,,
0.00400329054783854,0.279161752087829,0.00415034842169471,,
0.00408178644093341,0.321783003420547,0.0049561802884428,,
0.00416028233402828,0.35234688485084,0.00563525671524712,,
0.00423877822712316,0.369043964087727,0.00607623677536617,,
0.00431727412021803,0.371544790893343,0.00625414247683631,,
0.0043957700133129,0.360202983669722,0.00623774661925003,,
0.00447426590640778,0.335199138734513,0.00593572399811393,,
0.00455276179950265,0.297177383917648,0.00543427553380349,,
0.00463125769259752,0.247762710257246,0.00471220511341919,,
0.0047097535856924,0.188660042970765,0.00381986218443853,,
0.00478824947878727,0.122412705516123,0.00283526362539277,,
0.00486674537188214,0.051542368295069,0.00160790268485478,,
0.00494524126497702,-0.0208765816271072,0.000427174118490026,,
0.00502373715807189,-0.0939064136988392,-0.000821750939091093,,
0.00510223305116676,-0.162952950713134,-0.00202446717443738,,
0.00518072894426164,-0.225235986512083,-0.00314177173100116,,
0.00525922483735651,-0.279081904636356,-0.00413714887683092,,
0.00533772073045138,-0.322085336746942,-0.00497153462486644,,
0.00541621662354626,-0.352538206514072,-0.0056203652771174,,
0.00549471251664113,-0.369250838947517,-0.00605903778923933,,
0.005573208409736,-0.372607496293829,-0.00626074109202213,,
0.00565170430283088,-0.360720055182048,-0.00621889971519529,,
0.00573020019592575,-0.335411824361047,-0.00592510742573271,,
0.00580869608902062,-0.297243065818353,-0.0054456350579466,,
0.00588719198211549,-0.247605299187996,-0.00471343179389905,,
0.00596568787521037,-0.188363115681091,-0.00382084584331377,,
0.00604418376830524,-0.121885862664696,-0.00278648571762474,,
0.00612267966140012,-0.0509577357783652,-0.00161531600103837,,
0.00620117555449499,0.0214321892193799,-0.000403140439046545,,
0.00627967144758986,0.0941197642389804,0.000832946134340151,,
0.00635816734068474,0.163025137203477,0.00202883924882791,,
0.00643666323377961,0.225588448542625,0.0031676292297238,,
0.00651515912687448,0.278962046731285,0.0041409238124217,,
0.00659365501996935,0.32169107188699,0.00498886090802442,,
0.00667215091306423,0.351863261383899,0.0056327478064917,,
0.0067506468061591,0.368932316420244,0.00608071300187252,,
0.00682914269925397,0.371612612081307,0.00627905103405579,,
0.00690763859234885,0.360458599587869,0.00622256355519513,,
0.00698613448544372,0.335289220073684,0.00594518101026775,,
0.00706463037853859,0.297096091001811,0.00544705152672753,,
0.00714312627163347,0.247720907427837,0.00472144456337453,,
0.00722162216472834,0.188773107193324,0.00381852440836816,,
0.00730011805782321,0.122405969652187,0.00277537384406878,,
0.00737861395091809,0.0515651199041599,0.00164249507439207,,
0.00745710984401296,-0.0209013857955952,0.000403790811150273,,
0.00753560573710783,-0.0939547500271747,-0.00082069090199699,,
0.00761410163020271,-0.162857029697933,-0.00201454032051496,,
0.00769259752329758,-0.225232979946206,-0.00313963314088106,,
0.00777109341639245,-0.278964822022864,-0.00414592311400019,,
0.00784958930948733,-0.322006414392662,-0.00498698154094912,,
0.0079280852025822,-0.352466684937336,-0.00562938253589174,,
0.00800658109567707,-0.369310507716467,-0.00604087597465997,,
0.00808507698877195,-0.372263186682301,-0.00626585380368327,,
0.00816357288186682,-0.360821295506109,-0.00622042265058376,,
0.00824206877496169,-0.335202636758274,-0.00594519952619921,,
0.00832056466805657,-0.297145121153041,-0.00545922343737759,,
0.00839906056115144,-0.247274634760064,-0.00473229721388524,,
0.00847755645424631,-0.188367741167056,-0.00381103239947356,,
0.00855605234734119,-0.121946687805138,-0.00277574184821283,,
0.00863454824043606,-0.0509087634457095,-0.00164130311128385,,
0.00871304413353093,0.0214075874159029,-0.000411764234270695,,
0.00879154002662581,0.0941176827702961,0.000797254361353694,,
0.00887003591972068,0.16316072176083,0.00199392745946758,,
0.00894853181281555,0.225446590669932,0.00313214344647861,,
0.00902702770591043,0.278887056040075,0.00413443397833468,,
0.0091055235990053,0.321781384500459,0.00498608814724122,,
0.00918401949210017,0.351908764602081,0.00564715320141218,,
0.00926251538519504,0.368805520286225,0.00604831012126761,,
0.00934101127828992,0.371743773517705,0.00627282505199656,,
0.00941950717138479,0.36041636311915,0.0062348859077912,,
0.00949800306447967,0.335174305656738,0.00595037010014776,,
0.00957649895757454,0.29700069035378,0.00543695108594466,,
0.00965499485066941,0.247493131153342,0.00470675680049437,,
0.00973349074376429,0.188823958629654,0.00382094073746453,,
0.00981198663685916,0.122487464933035,0.00278057682089772,,
0.00989048252995403,0.0515191541373816,0.00164080086663443,,
0.0099689784230489,-0.020852876011536,0.000428086028129826,,
0.0100474743161438,-0.0938418881696258,-0.000831027420909791,,
0.0101259702092387,-0.162880272764907,-0.0020458623336026,,
0.0102044661023335,-0.225421295043561,-0.00315424221105109,,
0.0102829619954284,-0.279051723340433,-0.00415774553643811,,
0.0103614578885233,-0.321957152967134,-0.00497207390137921,,
0.0104399537816181,-0.352424246103606,-0.00564112858011079,,
0.010518449674713,-0.36953617361299,-0.00605764446537327,,
0.0105969455678079,-0.372640221607033,-0.00625324908312797,,
0.0106754414609028,-0.360902530603372,-0.00621599965738096,,
0.0107539373539976,-0.335603839847174,-0.00597323264690575,,
0.0108324332470925,-0.297086608755582,-0.00541916421898403,,
0.0109109291401874,-0.247483822362837,-0.00470179453077879,,
0.0109894250332823,-0.188273034341921,-0.00380803976200061,,
0.0110679209263771,-0.121911649748952,-0.00277018475418922,,
0.011146416819472,-0.0509373258215441,-0.00160767355019864,,
0.0112249127125669,0.0214686438306425,-0.000424088901358033,,
0.0113034086056618,0.0942047575435894,0.000837258031952004,,
0.0113819044987566,0.162896953423669,0.00203939332993919,,
0.0114604003918515,0.225377179471168,0.00314407696450703,,
0.0115388962849464,0.27899549477667,0.00413358224547311,,
0.0116173921780412,0.321519032718375,0.00498638903113235,,
0.0116958880711361,0.351937789526512,0.00564477390417917,,
0.011774383964231,0.368780455934152,0.00607506564268157,,
0.0118528798573259,0.371939980850488,0.00627297317945086,,
0.0119313757504207,0.360485543043616,0.00622213305978159,,
0.0120098716435156,0.335379792870738,0.0059366312787712,,
0.0120883675366105,0.297060821671327,0.00542263827068323,,
0.0121668634297054,0.247722555257212,0.00472547640751841,,
0.0122453593228002,0.188737577679255,0.00380255441721244,,
0.0123238552158951,0.122494200796971,0.00276684262850413,,
0.01240235110899,0.0515142684678309,0.00161122629460797,,
0.0124808470020848,-0.0208610284305495,0.000427863836948372,,
0.0125593428951797,-0.0939180352323266,-0.000846326209538173,,
0.0126378387882746,-0.16297405449285,-0.00201554480981381,,
0.0127163346813695,-0.22530727681452,-0.00314762507993338,,
0.0127948305744643,-0.278955513232359,-0.00411952633876478,,
0.0128733264675592,-0.322222077675786,-0.00497086342233954,,
0.0129518223606541,-0.352610884462299,-0.00562138828234815,,
0.013030318253749,-0.36967806039497,-0.00607376026949114,,
0.0131088141468438,-0.372504174501084,-0.00625042540353249,,
0.0131873100399387,-0.360706120905578,-0.00618475170802046,,
0.0132658059330336,-0.335302431617972,-0.00592352662805773,,
0.0133443018261285,-0.297398193053908,-0.00543323632713211,,
0.0134227977192233,-0.247478734328275,-0.00470997394364003,,
0.0135012936123182,-0.188290437732864,-0.00380510267232292,,
0.0135797895054131,-0.121887250310486,-0.00275471932217464,,
0.0136582853985079,-0.0509138514802712,-0.00160431059409039,,
0.0137367812916028,0.0213799501372613,-0.000429236330391269,,
0.0138152771846977,0.0941984842282492,0.000805581901669239,,
0.0138937730777926,0.163068790227273,0.00203283406110844,,
0.0139722689708874,0.225490474968026,0.00314515551753303,,
0.0140507648639823,0.278811140251673,0.004156889174594,,
0.0141292607570772,0.321585206076963,0.00498095923413988,,
0.0142077566501721,0.352012317669125,0.00561542152333416,,
0.0142862525432669,0.368921157435353,0.0060716633402178,,
0.0143647484363618,0.371609576606142,0.00626786278228098,,
0.0144432443294567,0.360092926013039,0.00625100402640077,,
0.0145217402225516,0.335227007287453,0.00593436307712869,,
0.0146002361156464,0.297094703356021,0.00542485092453004,,
0.0146787320087413,0.247770139944078,0.00471506582487802,,
0.0147572279018362,0.188745238640385,0.00382700007613757,,
0.014835723794931,0.122410595138152,0.00277057821773941,,
0.0149142196880259,0.05151704375941,0.00162275246213772,,
0.0149927155811208,-0.0209051440029418,0.000421114779816989,,
0.0150712114742157,-0.0939319695087965,-0.000840134944851467,,
0.0151497073673105,-0.162766485810165,-0.00202467316417865,,
0.0152282032604054,-0.225220664589823,-0.0031424961668316,,
0.0153066991535003,-0.279033799582319,-0.00414447192784762,,
0.0153851950465952,-0.321723161195873,-0.0049771657826172,,
0.01546369093969,-0.352520340574532,-0.00563618482632711,,
0.0155421868327849,-0.369640651777227,-0.00605316360988395,,
0.0156206827258798,-0.372688731391092,-0.00624027635842861,,
0.0156991786189747,-0.360704039436893,-0.00624523862814419,,
0.0157776745120695,-0.335279015095273,-0.00591932582603638,,
0.0158561704051644,-0.297183165775104,-0.00542053902691819,,
0.0159346662982593,-0.247232889749229,-0.00469313370369129,,
0.0160131621913541,-0.188354731987779,-0.00382246367285255,,
0.016091658084449,-0.121960159533011,-0.00279046432846464,,
0.0161701539775439,-0.0509714387805369,-0.00162492808412074,,
0.0162486498706388,0.0214679500077477,-0.000400126971150438,,
0.0163271457637336,0.0941443949517446,0.000823947391497715,,
0.0164056416568285,0.163149794050237,0.00202311319692683,,
0.0164841375499234,0.225346998175246,0.00314550732023688,,
0.0165626334430183,0.278971818070386,0.00414597866179589,,
0.0166411293361131,0.321727989046849,0.00499049493900339,,
0.016719625229208,0.351715130195866,0.00566204001055848,,
0.0167981211223029,0.368806907932015,0.00607723663568205,,
0.0168766170153978,0.371727526498253,0.00628416143122523,,
0.0169551129084926,0.359849596541987,0.00622828497811367,,
0.0170336088015875,0.33510440300009,0.0059565775662751,,
0.0171121046946824,0.297074524673498,0.00543992752197742,,
0.0171906005877772,0.247825154317775,0.00471298741153658,,
0.0172690964808721,0.188666778834701,0.00381469623947339,,
0.017347592373967,0.122398539965355,0.00279903720487651,,
0.0174260882670619,0.0515093827982802,0.00161910945256105,,
0.0175045841601567,-0.0208663477394094,0.000413326516014223,,
0.0175830800532516,-0.093949141625442,-0.000842662369538338,,
0.0176615759463465,-0.162876572376135,-0.00202872352425443,,
0.0177400718394414,-0.225155445237715,-0.00314814584051426,,
0.0178185677325362,-0.278899140122159,-0.00415166536734191,,
0.0178970636256311,-0.321807171584715,-0.00498724076399393,,
0.017975559518726,-0.352739530790704,-0.00563475447059769,,
0.0180540554118209,-0.369689913202756,-0.00605457544968147,,
0.0181325513049157,-0.372276658410174,-0.00623295099292065,,
0.0182110471980106,-0.360963355743813,-0.00622293155933917,,
0.0182895430911055,-0.335370252805935,-0.00592672294078023,,
0.0183680389842003,-0.297093315710232,-0.00542520504172517,,
0.0184465348772952,-0.247424384868185,-0.00469653369166334,,
0.0185250307703901,-0.188388208942452,-0.00380073291242411,,
0.018603526663485,-0.121929284414194,-0.00276562983497275,,
0.0186820225565798,-0.0509312548712149,-0.00160486838653506,,
0.0187605184496747,0.0214057372215168,-0.000416615408395327,,
0.0188390143427696,0.0941594855997058,0.000842574418862707,,
0.0189175102358645,0.162981252905383,0.00202532585077364,,
0.0189960061289593,0.225251106069331,0.0031499881757262,,
0.0190745020220542,0.279059355392276,0.00417795104698726,,
0.0191529979151491,0.321386223452601,0.00499125872118933,,
0.019231493808244,0.35177433641622,0.0056413901176473,,
0.0193099897013388,0.368957843320914,0.00606588174052147,,
0.0193884855944337,0.371705237437758,0.00628538811170554,,
0.0194669814875286,0.360444434037101,0.00622800723913697,,
0.0195454773806234,0.335216339760446,0.00595888279978096,,
0.0196239732737183,0.296856490828818,0.00543981642638691,,
0.0197024691668132,0.247565346552972,0.0047430433977893,,
0.0197809650599081,0.188672358327147,0.00379844850934186,,
0.0198594609530029,0.122432652924348,0.00276745365425235,,
0.0199379568460978,0.0515230858004519,0.00163520905523873,,
0.0200164527391927,-0.0208995356012091,0.000422359976228748,,
0.0200949486322876,-0.0939403532021083,-0.000826659975502686,,
0.0201734445253824,-0.162845234708722,-0.00202045153173414,,
0.0202519404184773,-0.225187014179427,-0.00314686361223915,,
0.0203304363115722,-0.279067276536991,-0.00415092241557957,,
0.0204089322046671,-0.321741258409712,-0.00498387549339396,,
0.0204874280977619,-0.352695877766908,-0.00562863726963769,,
0.0205659239908568,-0.36930281784605,-0.00605782962469092,,
0.0206444198839517,-0.372401546531232,-0.00624570384092982,,
0.0207229157770465,-0.360780417773892,-0.00621031063734323,,
0.0208014116701414,-0.335483114663484,-0.00596152132005834,,
0.0208799075632363,-0.297180853032122,-0.0054362104486736,,
0.0209584034563312,-0.247463412406016,-0.00471817187243317,,
0.021036899349426,-0.188321775400278,-0.00380326265160269,,
0.0211153952425209,-0.12193113460858,-0.00277823224103635,,
0.0211938911356158,-0.0509373258215441,-0.00161403377276326,,
0.0212723870287107,0.0213971511631941,-0.00039847442423957,,
0.0213508829218055,0.0940847261827946,0.000828317151396529,,
0.0214293788149004,0.163130771739206,0.00201883601668706,,
0.0215078747079953,0.225505103067391,0.00314537770871448,,
0.0215863706010902,0.279054700997024,0.0041387667063697,,
0.021664866494185,0.321775833917301,0.00498899051954682,,
0.0217433623872799,0.352211300293487,0.00564241312287805,,
0.0218218582803748,0.369061858936555,0.00607692186484199,,
0.0219003541734696,0.371557568798322,0.00627027911137779,,
0.0219788500665645,0.360496702028507,0.00624730084004588,,
0.0220573459596594,0.335276008529396,0.00595877170419001,,
0.0221358418527543,0.297267696531117,0.00544126529804823,,
0.0222143377458491,0.247627328064905,0.00471475105403796,,
0.022292833638944,0.188719943014013,0.00381867253582202,,
0.0223713295320389,0.122433115472944,0.0027692589576005,,
0.0224498254251338,0.0515263525499148,0.00162178500470223,,
0.0225283213182286,-0.0208336224262062,0.000417434738376521,,
0.0226068172113235,-0.0939410470250031,-0.000839225349702932,,
0.0226853131044184,-0.162845003434423,-0.00203303773635755,,
0.0227638089975132,-0.22547373649069,-0.0031280143936927,,
0.0228423048906081,-0.278966440942952,-0.0041408844660662,,
0.022920800783703,-0.321967386854831,-0.00498292886638207,,
0.0229992966767979,-0.352365733706147,-0.00563423371001637,,
0.0230777925698927,-0.369564967263123,-0.00605336728513306,,
0.0231562884629876,-0.372291055235241,-0.00625306392381031,,
0.0232347843560825,-0.360833842136789,-0.00621038470107038,,
0.0233132802491774,-0.335167540883514,-0.00594285957532126,,
0.0233917761422722,-0.297105862340912,-0.00541574340058837,,
0.0234702720353671,-0.24743762532176,-0.00472826536974136,,
0.023548767928462,-0.188312466609773,-0.00380551002282203,,
0.0236272638215569,-0.121980627308407,-0.00276488688320997,,
0.0237057597146517,-0.0509210209835171,-0.00162743699287615,,
0.0237842556077466,0.0214377687118253,-0.000394958711694038,,
0.0238627515008415,0.0941142136558222,0.000818482877133153,,
0.0239412473939363,0.163092466933557,0.00201097137466588,,
0.0240197432870312,0.225459368574911,0.00313807317362924,,
0.0240982391801261,0.279099972940907,0.0041576529567795,,
0.024176735073221,0.321549907837192,0.00498123697311614,,
0.0242552309663158,0.351670320800579,0.00565756378405213,,
0.0243337268594107,0.368819917111292,0.00605459628010507,,
0.0244122227525056,0.37181040942489,0.00627706057138999,,
0.0244907186456005,0.360232239868451,0.00620674169149416,,
0.0245692145386953,0.334999462287257,0.0059226378633328,,
0.0246477104317902,0.296966577394788,0.00543897858047382,,
0.0247262063248851,0.247827033421449,0.00469439741603539,,
0.02480470221798,0.188744776091788,0.00381631175452091,,
0.0248831981110748,0.122444505732133,0.00277174935042401,,
0.0249616940041697,0.0515158873879187,0.00161790128801265,,
0.0250401898972646,-0.0208426421238381,0.000435168372033612,,
0.0251186857903594,-0.0939013256642776,-0.000846921033846648,,
0.0251971816834543,-0.162861019179578,-0.00203175319359072,,
0.0252756775765492,-0.225311208477591,-0.0031531474565849,,
0.0253541734696441,-0.279079823167672,-0.00415826398252817,,
0.0254326693627389,-0.321899103118271,-0.00501135082165538,,
0.0255111652558338,-0.35268957554228,-0.00563129662033868,,
0.0255896611489287,-0.36950044173391,-0.0060844300751759,,
0.0256681570420236,-0.372312390289255,-0.00627228346099207,,
0.0257466529351184,-0.360519424728311,-0.00621560850832248,,
