Time domain (s),Current (AC) (A),Potential (AC) (V),Frequency (Hz),Column 5
0,0.23469947004572,0.00405141011957832,100,0.3
0.000244140625,0.255853788638009,0.00457730692816227,,
0.00048828125,0.271216575321031,0.00499842330690381,,
0.000732421875,0.280145529127145,0.00523959465261958,,
0.0009765625,0.282290388895322,0.00542126676876054,,
0.001220703125,0.278091360314888,0.00546236404936851,,
0.00146484375,0.267548443385844,0.00534685624412035,,
0.001708984375,0.250303726064049,0.00514798627217017,,
0.001953125,0.227456509627937,0.00479768030115268,,
0.002197265625,0.19934026061707,0.00436105362140626,,
0.00244140625,0.166396490969112,0.00379237501804885,,
0.002685546875,0.129511023662969,0.00313449926119747,,
0.0029296875,0.0895937539683125,0.00242098284602665,,
0.003173828125,0.0475172324479178,0.00165342818944048,,
0.00341796875,0.0044491051592424,0.000831666535959563,,
0.003662109375,-0.0388225869371248,2.17968227311793E-05,,
0.00390625,-0.0814161728659191,-0.00081502359682073,,
0.004150390625,-0.121897928448755,-0.00164008282360895,,
0.00439453125,-0.159560426908081,-0.00242494479901811,,
0.004638671875,-0.193365900592449,-0.0031317961328714,,
0.0048828125,-0.222582243961097,-0.00377377238688936,,
0.005126953125,-0.246811844350807,-0.00431766978005443,,
0.00537109375,-0.264950781962241,-0.00475499732715656,,
0.005615234375,-0.27698240212911,-0.00510067088421984,,
0.005859375,-0.282433423088145,-0.00532328216772582,,
0.006103515625,-0.281162443456941,-0.0054196461080207,,
0.00634765625,-0.273672788710506,-0.00538422874160149,,
0.006591796875,-0.25948245321275,-0.00521606922645379,,
0.0068359375,-0.239277590554033,-0.00495817436465762,,
0.007080078125,-0.213302422521513,-0.00453217015826146,,
0.00732421875,-0.182467170946947,-0.00402557228723444,,
0.007568359375,-0.147363612978398,-0.00343966694199471,,
0.0078125,-0.108729638970688,-0.00279629199390463,,
0.008056640625,-0.067535045010052,-0.00202433297131099,,
0.00830078125,-0.0248278154760011,-0.00123365729358405,,
0.008544921875,0.0183317491962141,-0.00041394959194152,,
0.0087890625,0.0613840148979489,0.000434204810553673,,
0.009033203125,0.103017671580617,0.00126016406657126,,
0.00927734375,0.141979537246598,0.00204548821915251,,
0.009521484375,0.177764397025971,0.00278585956050925,,
0.009765625,0.209129845469889,0.00346556102616535,,
0.010009765625,0.235664414352422,0.00407708527772055,,
0.01025390625,0.256914648893976,0.00455574271433612,,
0.010498046875,0.271463269649684,0.00496408840807083,,
0.0107421875,0.280192367460346,0.00522574150002653,,
0.010986328125,0.282351782567127,0.00542386043407284,,
0.01123046875,0.277627828762413,0.00545768146486614,,
0.011474609375,0.266940291481852,0.00532221490333562,,
0.01171875,0.249497770840562,0.00512842583963469,,
0.011962890625,0.226368964584529,0.00478255312069775,,
0.01220703125,0.198020949797424,0.00430510889915814,,
0.012451171875,0.164956468807676,0.0037606185813317,,
0.0126953125,0.12803237387216,0.00314062919000069,,
0.012939453125,0.0879631828308212,0.00240136464134455,,
0.01318359375,0.045826970426631,0.00163406539845878,,
0.013427734375,0.00275996277938669,0.000807438722117748,,
0.013671875,-0.0405313463678879,-4.17631806119978E-05,,
0.013916015625,-0.0830592000143314,-0.000850599076482439,,
0.01416015625,-0.123512124830316,-0.00168114361654537,,
0.014404296875,-0.160948222461929,-0.00242682847505682,,
0.0146484375,-0.194607442984359,-0.00315920901636657,,
0.014892578125,-0.223585629290268,-0.00377517108096148,,
0.01513671875,-0.24753774521197,-0.00434508418386947,,
0.015380859375,-0.265839590651629,-0.00479254466139656,,
0.015625,-0.277450458899036,-0.00510530481849392,,
0.015869140625,-0.282699711141841,-0.00533731775867619,,
0.01611328125,-0.281267689751465,-0.00542683417929624,,
0.016357421875,-0.27327438296794,-0.0053918546649343,,
0.0166015625,-0.258991723703845,-0.00521663934632022,,
0.016845703125,-0.238336531931194,-0.0049288382768129,,
0.01708984375,-0.212375779282099,-0.00454436768276256,,
0.017333984375,-0.181090011986695,-0.00404228668139694,,
0.017578125,-0.145910178445652,-0.00342508403597241,,
0.017822265625,-0.10714348027663,-0.00274540385479138,,
0.01806640625,-0.0659279863426138,-0.00198141130713081,,
0.018310546875,-0.0231411223117759,-0.00119647787669797,,
0.0185546875,0.0200630880625044,-0.000372926806996077,,
0.018798828125,0.0631108985243779,0.000461071899296783,,
0.01904296875,0.104588575160176,0.0012676531611362,,
0.019287109375,0.143533226339154,0.00208069882210005,,
0.01953125,0.179123291835379,0.00281421048122432,,
0.019775390625,0.210316292173044,0.00347872395364046,,
0.02001953125,0.236775845079694,0.00410297936189163,,
0.020263671875,0.257403372378651,0.00460250774657567,,
0.0205078125,0.272378016698892,0.00497588608850608,,
0.020751953125,0.280473770673363,0.00525785977281901,,
0.02099609375,0.282234780037577,0.0054019799937608,,
0.021240234375,0.27741640313884,0.00541875216006993,,
0.021484375,0.266322249411885,0.00531347914666291,,
0.021728515625,0.248784745855857,0.00507452442698764,,
0.02197265625,0.225303812369743,0.00474768002871118,,
0.022216796875,0.196838421839278,0.00429899113291166,,
0.0224609375,0.163585444549432,0.00374887867304352,,
0.022705078125,0.126411832855822,0.00310663484276796,,
0.02294921875,0.0862917681069579,0.00237829227043207,,
0.023193359375,0.0441708341431295,0.00159425734890872,,
0.0234375,0.00099148913896495,0.000781482304841319,,
0.023681640625,-0.0422358138398318,-2.4043855165079E-05,,
0.02392578125,-0.0848040212295212,-0.000875083824344092,,
0.024169921875,-0.125022101255333,-0.00170211186507085,,
0.0244140625,-0.162413086667618,-0.00247158972600614,,
0.024658203125,-0.195801353963722,-0.00319221971678951,,
0.02490234375,-0.224818727719719,-0.00380802214782205,,
0.025146484375,-0.248324666531128,-0.0043600684542775,,
0.025390625,-0.266099160856738,-0.00480550842699801,,
0.025634765625,-0.277491512418176,-0.00512491086061884,,
0.02587890625,-0.282752707502913,-0.00532960669744353,,
0.026123046875,-0.281042082003098,-0.00544021299216046,,
0.0263671875,-0.272649249835576,-0.00536609436889179,,
0.026611328125,-0.258078609465057,-0.00520939198257864,,
0.02685546875,-0.2376095114286,-0.00494985517556712,,
0.027099609375,-0.211038180985745,-0.00451909388900607,,
0.02734375,-0.179731327110055,-0.00398402651233143,,
0.027587890625,-0.144440928977692,-0.00340417660023284,,
0.02783203125,-0.105604673084762,-0.00272104225282099,,
0.028076171875,-0.0642781946938886,-0.00194797643752676,,
0.0283203125,-0.0213918225308617,-0.00117027972859818,,
0.028564453125,0.0218104751226404,-0.000356410054387357,,
0.02880859375,0.0647981748351818,0.000486943178673371,,
0.029052734375,0.106211658695597,0.00131714260617688,,
0.029296875,0.145006277922808,0.00212382420911261,,
0.029541015625,0.180550438120357,0.00285199954628768,,
0.02978515625,0.211423430941496,0.00352983101878213,,
0.030029296875,0.237557541405506,0.00415240799414685,,
0.0302734375,0.258068439388724,0.00461089078909094,,
0.030517578125,0.272649529745934,0.00499544348040226,,
0.03076171875,0.280580883036938,0.00527339135829852,,
0.031005859375,0.282116284652786,0.00540883663535396,,
0.03125,0.277257227448719,0.00544063260038197,,
0.031494140625,0.26577773046256,0.00533340749655231,,
0.03173828125,0.24782577297012,0.00508898570743854,,
0.031982421875,0.224494125008152,0.00474516542002057,,
0.0322265625,0.195639659080381,0.00428120947435939,,
0.032470703125,0.162081392893655,0.00370938684997935,,
0.03271484375,0.124835214439792,0.00306994344848777,,
0.032958984375,0.0846090869911941,0.00234308166748454,,
0.033203125,0.0423889481313978,0.0015461787604969,,
0.033447265625,-0.000742462223997891,0.000732417028980858,,
0.03369140625,-0.0439643536025443,-8.63283103269552E-05,,
0.033935546875,-0.0863722656606813,-0.000932878775598667,,
0.0341796875,-0.126577096596225,-0.00172998844605754,,
0.034423828125,-0.163841749133701,-0.0025067030284962,,
0.03466796875,-0.197196240579967,-0.00321752847789814,,
0.034912109375,-0.225743738148712,-0.00383885423019592,,
0.03515625,-0.249094046801198,-0.00436816719701927,,
0.035400390625,-0.266890794000252,-0.00482055351019195,,
0.03564453125,-0.277963394629659,-0.00516851362799953,,
0.035888671875,-0.283010411638971,-0.00536496325107683,,
0.0361328125,-0.280584195309505,-0.00543014239484085,,
0.036376953125,-0.272433532253184,-0.00538905727679007,,
0.03662109375,-0.257380513032766,-0.0052184652502123,,
0.036865234375,-0.236543799393098,-0.00489951587184523,,
0.037109375,-0.209966497529278,-0.00450310012635446,,
0.037353515625,-0.17851894204708,-0.0040054797428235,,
0.03759765625,-0.142933331790716,-0.00339372896364143,,
0.037841796875,-0.103906550247595,-0.00269468599147826,,
0.0380859375,-0.0625804917222576,-0.00193109632852329,,
0.038330078125,-0.0196979916525133,-0.00113876654302381,,
0.03857421875,0.0235335799592395,-0.000327609119057382,,
0.038818359375,0.0665127424058687,0.000524183408345369,,
0.0390625,0.10782653152719,0.00135309816575013,,
0.039306640625,0.146535358229742,0.00214554957682056,,
0.03955078125,0.181797158853887,0.00287175153909836,,
0.039794921875,0.212604652651306,0.00353380817497007,,
0.0400390625,0.238425076907703,0.00412466520128918,,
0.040283203125,0.258828675920441,0.00462616392023119,,
0.04052734375,0.27295612489115,0.00500997469555653,,
0.040771484375,0.280924612956285,0.00528193251405673,,
0.041015625,0.282111619480156,0.00542298168931854,,
0.041259765625,0.277136865994876,0.00545670846029411,,
0.04150390625,0.265018240358464,0.00531714007636497,,
0.041748046875,0.247195601451317,0.00508212602520608,,
0.0419921875,0.223282486372797,0.00470423537457343,,
0.042236328125,0.194268284934189,0.00427642958939956,,
0.04248046875,0.160664486662598,0.00369055921151196,,
0.042724609375,0.123330602963299,0.00302358890255183,,
0.04296875,0.0830110087810678,0.00231409829379725,,
0.043212890625,0.0407158072936615,0.00152747274760134,,
0.04345703125,-0.00240419671465481,0.000724719650624817,,
0.043701171875,-0.0457145397662581,-0.00013798421086042,,
0.0439453125,-0.0880017171567415,-0.000960051448589905,,
0.044189453125,-0.128208600768242,-0.00175576090465723,,
0.04443359375,-0.165173329357362,-0.00252166145347044,,
0.044677734375,-0.19830449898985,-0.00324921497991149,,
0.044921875,-0.22686188672457,-0.00387667978293083,,
0.045166015625,-0.250135499939026,-0.00439059495240279,,
0.04541015625,-0.267329273575707,-0.00481705221405271,,
0.045654296875,-0.278200385399241,-0.00514589127170151,,
0.0458984375,-0.282741697695507,-0.00532888910657192,,
0.046142578125,-0.280193393798325,-0.00543234381768487,,
0.04638671875,-0.271791044678638,-0.00536088879443186,,
0.046630859375,-0.256648500795459,-0.00520740796544361,,
0.046875,-0.235484431992373,-0.00488003145529214,,
0.047119140625,-0.208887349796603,-0.00450306363868291,,
0.04736328125,-0.177168841088079,-0.00395406861375269,,
0.047607421875,-0.141385054298411,-0.00337513241376008,,
0.0478515625,-0.102316146246444,-0.00265184946519792,,
0.048095703125,-0.0608998632824509,-0.00192395690747649,,
0.04833984375,-0.0179054457213229,-0.0010959786669722,,
0.048583984375,0.0253054358498176,-0.000292629604695893,,
0.048828125,0.0682117749516991,0.000552801905318034,,
0.049072265625,0.109399860996516,0.00138618032119631,,
0.04931640625,0.148020562588096,0.00215970679334276,,
0.049560546875,0.183076559121686,0.0029085523963932,,
0.0498046875,0.21380005648591,0.00356950528020361,,
0.050048828125,0.239481085384135,0.00416459487641063,,
0.05029296875,0.259496728640997,0.00462368579921213,,
0.050537109375,0.273346319929888,0.00500516136356444,,
0.05078125,0.281084348467122,0.00528915403236407,,
0.051025390625,0.282207348822515,0.00540230534216457,,
0.05126953125,0.276571260465265,0.00542160732036079,,
0.051513671875,0.264599681070138,0.00530690224388453,,
0.0517578125,0.246082864475709,0.00505818707209693,,
0.052001953125,0.222180945811501,0.00469040958773403,,
0.05224609375,0.193039478463557,0.00423984461749427,,
0.052490234375,0.159375032947782,0.00365697839122259,,
0.052734375,0.121833665695782,0.00300504100289878,,
0.052978515625,0.0813806242504817,0.00226879276841574,,
0.05322265625,0.0389568506054041,0.00149134083094982,,
0.053466796875,-0.00418349355557718,0.000673235546211348,,
0.0537109375,-0.0474188206312968,-0.000164059213068946,,
0.053955078125,-0.0896425516740179,-0.000995418644460955,,
0.05419921875,-0.129690072988492,-0.00180328001543995,,
0.054443359375,-0.166585197201979,-0.0025681102592241,,
0.0546875,-0.199479376064884,-0.00326265308524221,,
0.054931640625,-0.22780028619901,-0.0038904477976236,,
0.05517578125,-0.250894616829312,-0.00443131519373896,,
0.055419921875,-0.267677901926315,-0.00486535124881282,,
0.0556640625,-0.278768463470345,-0.00519254532060698,,
0.055908203125,-0.282656045126028,-0.00534183006737887,,
0.05615234375,-0.280599637030909,-0.00542251647150804,,
0.056396484375,-0.271357183624087,-0.00535925901177414,,
0.056640625,-0.25590692495426,-0.00517419354218829,,
0.056884765625,-0.234623427731857,-0.0048570305394029,,
0.05712890625,-0.207654857839594,-0.00446612595262019,,
0.057373046875,-0.175861846324175,-0.00392528136129977,,
0.0576171875,-0.139901902616014,-0.00332615379611934,,
0.057861328125,-0.100664675135572,-0.00262002005313811,,
0.05810546875,-0.0591571880466708,-0.00186338737287217,,
0.058349609375,-0.01614089082591,-0.00106860075082871,,
0.05859375,0.0270095301079512,-0.000232656035391798,,
0.058837890625,0.0699600950463611,0.000582198805948231,,
0.05908203125,0.110972933881348,0.00141751106841337,,
0.059326171875,0.149544021362012,0.00219696070589137,,
0.0595703125,0.184465450991102,0.00291421102610689,,
0.059814453125,0.214952540732322,0.00359790181050812,,
0.06005859375,0.240411320806474,0.00415481618046254,,
0.060302734375,0.260086966282092,0.00465732439164812,,
0.060546875,0.273978917338459,0.00501815097460012,,
0.060791015625,0.281191647437603,0.00529248961366235,,
0.06103515625,0.282039589214755,0.00541404525045319,,
0.061279296875,0.276218386807564,0.00544079071362491,,
0.0615234375,0.263928269425289,0.00529988140777027,,
0.061767578125,0.245491693800088,0.00507271220597261,,
0.06201171875,0.221077165967342,0.00468848486306506,,
0.062255859375,0.191857323719221,0.00422261027401349,,
0.0625,0.157838138476692,0.00363197217372324,,
0.062744140625,0.120203444446238,0.00296935606022242,,
0.06298828125,0.079651734599822,0.00222853470425122,,
0.063232421875,0.0372514500989343,0.00145270950880372,,
0.0634765625,-0.00588721459990033,0.000641234338031538,,
0.063720703125,-0.0491710594709676,-0.000180940842392729,,
0.06396484375,-0.0912486773069302,-0.00102651830309197,,
0.064208984375,-0.131253605595296,-0.00183051198089723,,
0.064453125,-0.168054586625118,-0.00257951873783036,,
0.064697265625,-0.200689848407081,-0.00329584622402246,,
0.06494140625,-0.228831289350148,-0.00390015199790961,,
0.065185546875,-0.251480935725398,-0.00442435821104947,,
0.0654296875,-0.268404315956467,-0.00487486084818389,,
0.065673828125,-0.278907112400897,-0.00517302441638234,,
0.06591796875,-0.282803138019039,-0.00537108101732331,,
0.066162109375,-0.28024345110064,-0.00543245328069908,,
0.06640625,-0.270921829714295,-0.00536600923099195,,
0.066650390625,-0.25530567750576,-0.00518122350022088,,
0.06689453125,-0.233637770058679,-0.00488139214137329,,
0.067138671875,-0.206274339955048,-0.00443413842731744,,
0.0673828125,-0.174442514203351,-0.00391201201144975,,
0.067626953125,-0.138360016410211,-0.00331491559331321,,
0.06787109375,-0.09911975656756,-0.00260603311241603,,
0.068115234375,-0.0574618176613546,-0.00184494893623377,,
0.068359375,-0.0144282126501381,-0.00102426823001922,,
0.068603515625,0.0287053903363935,-0.000212222939381057,,
0.06884765625,0.0715359903606337,0.000632647572684331,,
0.069091796875,0.112752977149891,0.0014337876105186,,
0.0693359375,0.15082955633182,0.0022333997271109,,
0.069580078125,0.185740722581124,0.00296940471045115,,
0.06982421875,0.215981491207502,0.00361824976861946,,
0.070068359375,0.241245453672643,0.00420557053144721,,
0.0703125,0.260931175921141,0.00465179042814512,,
0.070556640625,0.274181945651299,0.00504160038478441,,
0.07080078125,0.281529405935984,0.00525259642621245,,
0.071044921875,0.281884705483453,0.00543649429031179,,
0.0712890625,0.275892384544208,0.00542740886012094,,
0.071533203125,0.263267494374035,0.00528958276250391,,
0.07177734375,0.244440350496286,0.00503849893271102,,
0.072021484375,0.220124351109476,0.00465901498709176,,
0.072265625,0.190629636890021,0.00419882943414684,,
0.072509765625,0.156580407935757,0.00360385234159377,,
0.07275390625,0.118702378500944,0.00295697457704458,,
0.072998046875,0.0779306357874536,0.00221923034803195,,
0.0732421875,0.035583347647638,0.00143797153017777,,
0.073486328125,-0.0075941079616116,0.000613274139464881,,
0.07373046875,-0.0509111688618014,-0.000188128913667818,,
0.073974609375,-0.0930240554028437,-0.001055513839336,,
0.07421875,-0.132842843303289,-0.00185191808148044,,
0.074462890625,-0.16928339309575,-0.00262144307232459,,
0.07470703125,-0.202009952306074,-0.00332670111119082,,
0.074951171875,-0.229990538096873,-0.00393790609562084,,
0.0751953125,-0.25244550681829,-0.00444991326394018,,
0.075439453125,-0.268873632323003,-0.00484563574367325,,
0.07568359375,-0.279253268210012,-0.00516887850471415,,
0.075927734375,-0.282868963604842,-0.00537291756345271,,
0.076171875,-0.27993312381732,-0.0054183082267345,,
0.076416015625,-0.270410200232008,-0.00535552510672899,,
0.07666015625,-0.254587987348425,-0.0051501360041466,,
0.076904296875,-0.232682156097236,-0.00484366388909541,,
0.0771484375,-0.205321478445456,-0.00441476195345869,,
0.077392578125,-0.1730870016441,-0.00389931430178558,,
0.07763671875,-0.136778149674973,-0.00327003575743179,,
0.077880859375,-0.0975563639159347,-0.00257455641451321,,
0.078125,-0.0558244820235504,-0.00182685105119562,,
0.078369140625,-0.0127476308620577,-0.00102177490580369,,
0.07861328125,0.0304470392341951,-0.000168802610357233,,
0.078857421875,0.0733184828448074,0.000651963233757158,,
0.0791015625,0.114248071674219,0.00147282637832902,,
0.079345703125,0.152469271207665,0.002262370938241,,
0.07958984375,0.187081119981056,0.0029724575122958,,
0.079833984375,0.217325620745537,0.00365125894872298,,
0.080078125,0.242019685722249,0.00422492115987172,,
0.080322265625,0.261328462022276,0.0046896767936655,,
0.08056640625,0.274730010131822,0.00505716845793547,,
0.080810546875,0.281395048964252,0.00528410657114708,,
0.0810546875,0.281684476274192,0.00539699334532973,,
0.081298828125,0.275254562142292,0.00541851803084503,,
0.08154296875,0.262643294276197,0.00529262340179093,,
0.081787109375,0.243564977504071,0.00499943279914694,,
0.08203125,0.219065356922561,0.00465747034233388,,
0.082275390625,0.189197615499644,0.0041709558937999,,
0.08251953125,0.15512674014438,0.00359257765111609,,
0.082763671875,0.116943235205781,0.00290495532011636,,
0.0830078125,0.0763200315888169,0.00216953718015844,,
0.083251953125,0.0337702982827406,0.00138945204906937,,
0.08349609375,-0.0093564235741623,0.000581833929233611,,
0.083740234375,-0.0525697310350702,-0.000260459641035382,,
0.083984375,-0.0947042639771138,-0.0010941421208428,,
0.084228515625,-0.134288813559828,-0.00191429983709979,,
0.08447265625,-0.170877622538457,-0.00265352789808437,,
0.084716796875,-0.203279998902751,-0.0033460760647297,,
0.0849609375,-0.230787909402721,-0.00392453944531379,,
0.085205078125,-0.253138938077951,-0.00448531998812163,,
0.08544921875,-0.269722133920871,-0.00489997652869745,,
0.085693359375,-0.279622796534001,-0.00520974317641665,,
0.0859375,-0.282848250238367,-0.00539155212132547,,
0.086181640625,-0.279677658964125,-0.00541785821212004,,
0.08642578125,-0.269799575786522,-0.00536125367114648,,
0.086669921875,-0.253638111549316,-0.00516123889850473,,
0.0869140625,-0.231621295841269,-0.00483476241758174,,
0.087158203125,-0.204081428908787,-0.00442168244847663,,
0.08740234375,-0.171683344503312,-0.00387093905595615,,
0.087646484375,-0.135424129970963,-0.00326041517472664,,
0.087890625,-0.0958683645033732,-0.0025350889165634,,
