Time domain (s),Current (AC) (A),Potential (AC) (V),Frequency (Hz),Column 5
0,0.373945851748549,0.0127480700186982,0.039811,0.4
0.0613249164803698,0.374597120172438,0.0127744734415711,,
0.12264983296074,0.374577924405683,0.012856457982882,,
0.183974749441109,0.374686854600161,0.0128764114057134,,
0.245299665921479,0.374461130885064,0.0129297628036582,,
0.306624582401849,0.374064264189256,0.0129517656560521,,
0.367949498882219,0.373975686133024,0.0129980857076886,,
0.429274415362588,0.373855192223633,0.0130049993129813,,
0.490599331842958,0.373320254771767,0.0130388940080066,,
0.551924248323328,0.372972186952892,0.0130413260958715,,
0.613249164803698,0.372298253647774,0.0130720969745619,,
0.674574081284067,0.371637965526253,0.0130862406141277,,
0.735898997764437,0.370813703927269,0.0131154403861338,,
0.797223914244807,0.370233436712945,0.013107216912037,,
0.858548830725177,0.369026878698943,0.0131250215613234,,
0.919873747205546,0.368332361981281,0.0131269937233442,,
0.981198663685916,0.367435017704048,0.0131091154859222,,
1.04252358016629,0.366125542627322,0.0131120258966653,,
1.10384849664666,0.364731421157435,0.0131284066155377,,
1.16517341312703,0.363262135540615,0.0130869323425977,,
1.2264983296074,0.362051877137842,0.0130779840253696,,
1.28782324608776,0.360193356877057,0.0130607644017573,,
1.34914816256813,0.358782352383397,0.0130573646299159,,
1.4104730790485,0.357134523008324,0.0130856666266737,,
1.47179799552887,0.355253106592011,0.0130156695925701,,
1.53312291200924,0.353766475402822,0.0130161994271427,,
1.59444782848961,0.351564975357724,0.0130047343956945,,
1.65577274496998,0.349539012505001,0.0129443185367806,,
1.71709766145035,0.347561617254913,0.0129149458326565,,
1.77842257793072,0.345156133278753,0.0128855363344655,,
1.83974749441109,0.342881088006809,0.0128337928372724,,
1.90107241089146,0.340612980963813,0.0127788629738297,,
1.96239732737183,0.338214666490898,0.0127019486550264,,
2.0237222438522,0.335593634868763,0.0126877130302923,,
2.08504716033257,0.332905764974433,0.0126196440053281,,
2.14637207681294,0.330385106397741,0.012564942265104,,
2.20769699329331,0.327554771535684,0.012500361317743,,
2.26902190977368,0.324811164535474,0.0124522935478981,,
2.33034682625405,0.322044892654034,0.0123879738384169,,
2.39167174273442,0.319047809022936,0.0122853515046182,,
2.45299665921479,0.3159760237935,0.0122200493935334,,
2.51432157569516,0.312601037959051,0.0121761172768808,,
2.57564649217553,0.309713347071027,0.0120742712979074,,
2.6369714086559,0.30654627683071,0.012035420441983,,
2.69829632513627,0.303005004775814,0.011927477686017,,
2.75962124161664,0.299700326328035,0.0118273095165233,,
2.82094615809701,0.296262202610162,0.0117588100009689,,
2.88227107457738,0.292535911116662,0.0116581892644447,,
2.94359599105775,0.288962491934309,0.0115893512434688,,
3.00492090753812,0.285314139879321,0.0114771477344804,,
3.06624582401849,0.281504358364151,0.0113882385496566,,
3.12757074049886,0.277933714473377,0.0112595329013727,,
3.18889565697923,0.273798067471964,0.0111622788220291,,
3.2502205734596,0.269892538397315,0.0110455238868852,,
3.31154548993997,0.265987703145562,0.0109260461907423,,
3.37287040642034,0.261999840420734,0.0108220367205969,,
3.43419532290071,0.257783016140633,0.0106974814431329,,
3.49552023938108,0.253615222011763,0.0105974898851637,,
3.55684515586145,0.249250382180778,0.0104630149270881,,
3.61817007234182,0.245190824423491,0.0103698965009369,,
3.67949498882219,0.240702513026525,0.010244840824154,,
3.74081990530255,0.23608208618668,0.0101256280452975,,
3.80214482178292,0.231641417295155,0.00997477236834987,,
3.86346973826329,0.226873900001619,0.00984593426142277,,
3.92479465474366,0.222498421552914,0.00971992193888349,,
3.98611957122403,0.217868541376128,0.00957944218898454,,
4.0474444877044,0.213154246080479,0.00943753482926413,,
4.10876940418477,0.208515577480359,0.00929641118318303,,
4.17009432066514,0.203663905251545,0.00917355947104603,,
4.23141923714551,0.198666530214831,0.00899246274998022,,
4.29274415362588,0.193887507024957,0.00888781306305964,,
4.35406907010625,0.189002039839311,0.00870131129347085,,
4.41539398658662,0.183843929165308,0.00855128348304302,,
4.47671890306699,0.178925649938597,0.00840978821687921,,
4.53804381954736,0.173764995247313,0.00825449149597857,,
4.59936873602773,0.168732003968667,0.008090091922766,,
4.6606936525081,0.163510321771931,0.00793362882992366,,
4.72201856898847,0.1583443188625,0.00778929306174536,,
4.78334348546884,0.153239863825693,0.00759385769255605,,
4.84466840194921,0.147729753669745,0.00745633618568764,,
4.90599331842958,0.142469419755913,0.00727377874014046,,
4.96731823490995,0.137095992710234,0.00713131579000015,,
5.02864315139032,0.131765351409732,0.00694383529821474,,
5.08996806787069,0.12637483897527,0.00676404844595391,,
5.15129298435106,0.120975017750302,0.00656809795981905,,
5.21261790083143,0.11539390638479,0.0063933886888794,,
5.2739428173118,0.109968442622003,0.00623940919559685,,
5.33526773379217,0.104480303524389,0.00606749627379122,,
5.39659265027254,0.0989690369969495,0.00586428263872207,,
5.45791756675291,0.0933666483959971,0.00568375990510983,,
5.51924248323328,0.087767266360922,0.00549307832944779,,
5.58056739971365,0.0822055820364627,0.00534148677114921,,
5.64189231619402,0.0765393617291917,0.00513370331289043,,
5.70321723267439,0.070868978484552,0.00495383919308789,,
5.76454214915476,0.0652550261686868,0.00479120941452438,,
5.82586706563513,0.0595335602134199,0.00456622105028037,,
5.8871919821155,0.0538000101760691,0.00439518750668899,,
5.94851689859587,0.0481215323309905,0.00419964911411075,,
6.00984181507624,0.0424220374340579,0.00400316511399623,,
6.07116673155661,0.0367629577207455,0.00379393932828975,,
6.13249164803698,0.0309792500699605,0.00359276776396955,,
6.19381656451734,0.0252478104105813,0.00344088185313041,,
6.25514148099771,0.0195108490773312,0.00321906145810225,,
6.31646639747808,0.0137881689319984,0.00302319559832265,,
6.37779131395845,0.00802296322507384,0.00284259191776215,,
6.43911623043882,0.00221844088744574,0.00262124248679863,,
6.50044114691919,-0.00356480421474281,0.00244388036358867,,
6.56176606339956,-0.00933978126076871,0.00225052385921609,,
6.62309097987993,-0.0151384639223658,0.00205357993325705,,
6.6844158963603,-0.020869383214574,0.0017933318140817,,
6.74574081284067,-0.0266251644938446,0.00164374185305727,,
6.80706572932104,-0.0323674740452419,0.00140857257032279,,
6.86839064580141,-0.0381394445253904,0.00124205365881958,,
6.92971556228178,-0.0438134703402276,0.00103407519200305,,
6.99104047876215,-0.0495608679261865,0.000845457763530622,,
7.05236539524252,-0.0552264522291373,0.000610240648507787,,
7.11369031172289,-0.0609222178280106,0.000417458131588777,,
7.17501522820326,-0.0666531949387933,0.000210421592901522,,
7.23634014468363,-0.0723641090042023,2.13589562116923E-05,,
7.297665061164,-0.0779516382314917,-0.00016448052016127,,
7.35898997764437,-0.0836497743919221,-0.000373939948196345,,
7.42031489412474,-0.0892533193643657,-0.000595795297588797,,
7.48163981060511,-0.094763429520314,-0.000778735401438801,,
7.54296472708548,-0.10030759481668,-0.00100827151243177,,
7.60428964356585,-0.105936059594761,-0.00116610334458667,,
7.66561456004622,-0.111366091024938,-0.00138242302651648,,
7.72693947652659,-0.116834398351477,-0.00158393677566471,,
7.78826439300696,-0.122265181423123,-0.00182274315197661,,
7.84958930948733,-0.127781073436528,-0.00198583101668071,,
7.9109142259677,-0.133254179704755,-0.00217689525064557,,
7.97223914244807,-0.138647265065786,-0.00238484060280131,,
8.03356405892844,-0.143699683385486,-0.00258267494519471,,
8.09488897540881,-0.149174177299503,-0.00277585667774671,,
8.15621389188918,-0.154406758297544,-0.00297348865276836,,
8.21753880836955,-0.159677962103393,-0.00316843650056287,,
8.27886372484992,-0.16480508202143,-0.00339841414036668,,
8.34018864133029,-0.169919481853062,-0.00361669126668973,,
8.40151355781066,-0.175017923758115,-0.00378404540352628,,
8.46283847429103,-0.180096013524921,-0.00398965065298595,,
8.5241633907714,-0.185142418712866,-0.0041776830557847,,
8.58548830725177,-0.190121812172891,-0.00435450062679443,,
8.64681322373213,-0.195021994185764,-0.00454434329771658,,
8.7081381402125,-0.199999017084232,-0.0047486975488793,,
8.76946305669287,-0.204886074280679,-0.00492620684835909,,
8.83078797317324,-0.209658419425191,-0.00513400502424455,,
8.89211288965361,-0.214263321977765,-0.00530144562713986,,
8.95343780613398,-0.218909564811153,-0.00548135573952724,,
9.01476272261435,-0.223674798270993,-0.00566902020165028,,
9.07608763909472,-0.228192972961722,-0.00587670063651968,,
9.13741255557509,-0.23278284268491,-0.00605444541803202,,
9.19873747205546,-0.237125248908964,-0.00621894433522652,,
9.26006238853583,-0.241738477336275,-0.00642799350940892,,
9.3213873050162,-0.245943044078569,-0.00655680218108179,,
9.38271222149657,-0.250303778790759,-0.00672996794088743,,
9.44403713797694,-0.254698857736241,-0.00690887909434101,,
9.50536205445731,-0.258793569186863,-0.00708937423240208,,
9.56668697093768,-0.262963386965843,-0.00726811981255171,,
9.62801188741805,-0.267207154701691,-0.00742746756028989,,
9.68933680389842,-0.271178539132768,-0.00759604326016872,,
9.75066172037879,-0.275102801425575,-0.00778387145589265,,
9.81198663685916,-0.278842506828374,-0.00792501165930437,,
9.87331155333953,-0.282683741648107,-0.00808678781550043,,
9.9346364698199,-0.286296246186865,-0.00825362683539144,,
9.99596138630027,-0.290228603080111,-0.00837612164507284,,
10.0572863027806,-0.293917659411592,-0.00856485865426482,,
10.118611219261,-0.297289927773037,-0.00870077777949163,,
10.1799361357414,-0.300864908056903,-0.00885978702180834,,
10.2412610522217,-0.304295168448635,-0.00901726563091465,,
10.3025859687021,-0.307482070460028,-0.00917746700101985,,
10.3639108851825,-0.31081161089487,-0.00930958713877228,,
10.4252358016629,-0.313870907312199,-0.00943986757314708,,
10.4865607181432,-0.317032137876486,-0.00957001370917521,,
10.5478856346236,-0.32007362617285,-0.00972990968851972,,
10.609210551104,-0.323307765959661,-0.009856317547285,,
10.6705354675843,-0.32604628492531,-0.0100068200011845,,
10.7318603840647,-0.32898624380474,-0.010130698267806,,
10.7931853005451,-0.331411386096252,-0.0102602152252791,,
10.8545102170254,-0.334023166746456,-0.0103833263355924,,
10.9158351335058,-0.336681202256312,-0.0105229377454976,,
10.9771600499862,-0.339229845023093,-0.0106610479574467,,
11.0384849664666,-0.341608327724932,-0.0107484706619414,,
11.0998098829469,-0.344057002176291,-0.0108644602804806,,
11.1611347994273,-0.346229130385511,-0.0109807295339328,,
11.2224597159077,-0.348261106369988,-0.011084707729121,,
11.283784632388,-0.350594895313689,-0.0112036721480213,,
11.3451095488684,-0.352376863781751,-0.0113002344988948,,
11.4064344653488,-0.354323962098768,-0.0114363578311965,,
11.4677593818291,-0.356118824108958,-0.0115079443690185,,
11.5290842983095,-0.35791802251224,-0.011632442615678,,
11.5904092147899,-0.359892584652175,-0.0117505644504314,,
11.6517341312703,-0.360911810484589,-0.0118078454547907,,
11.7130590477506,-0.362651224481772,-0.0119193609147161,,
11.774383964231,-0.364278007895705,-0.0119766253617448,,
11.8357088807114,-0.366009558566747,-0.0120798437594378,,
11.8970337971917,-0.36689296856751,-0.0121676196869811,,
11.9583587136721,-0.368135374097741,-0.0122165852320739,,
12.0196836301525,-0.369263530124634,-0.0123205634272621,,
12.0810085466328,-0.370516400816861,-0.0123525153955208,,
12.1423334631132,-0.371009419802168,-0.012442557837625,,
12.2036583795936,-0.371700987772528,-0.0125216062123457,,
12.264983296074,-0.372621690753885,-0.0125961086800208,,
12.3263082125543,-0.373025958227236,-0.0126369188200419,,
12.3876331290347,-0.373806740258148,-0.012713803703591,,
12.4489580455151,-0.374356941813699,-0.0127504653124961,,
12.5102829619954,-0.37454774310976,-0.012809232797184,,
12.5716078784758,-0.374874533693196,-0.0128572545744445,,
12.6329327949562,-0.374894192008548,-0.0129042056443396,,
12.6942577114365,-0.3750331878618,-0.0129519201911363,,
12.7555826279169,-0.375099332311101,-0.0130014726016068,,
12.8169075443973,-0.374909976479404,-0.0130358713753576,,
12.8782324608776,-0.375001561101513,-0.013083613517705,,
12.939557377358,-0.374605792958623,-0.0130865864783627,,
13.0008822938384,-0.374396720992999,-0.0131268539058875,,
13.0622072103188,-0.373627733951298,-0.0131479295477792,,
13.1235321267991,-0.372973921510129,-0.0131723755262585,,
13.1848570432795,-0.372437133863877,-0.0131710509398264,,
13.2461819597599,-0.372122196088227,-0.0132140999988581,,
13.3075068762402,-0.371644845936626,-0.0132212233303353,,
13.3688317927206,-0.370670892048096,-0.0132555448365443,,
13.430156709201,-0.369803093062465,-0.0132219150588053,,
13.4914816256813,-0.368634984400549,-0.0132442122637397,,
13.5528065421617,-0.367493877012954,-0.0132473618359215,,
13.6141314586421,-0.36625309040281,-0.0132265511113165,,
13.6754563751225,-0.365026122431988,-0.0132263303469111,,
13.7367812916028,-0.363534229752513,-0.0132223418699891,,
13.7981062080832,-0.362091309405694,-0.0131831341116095,,
13.8594311245636,-0.360618092125804,-0.0131770557316506,,
13.9207560410439,-0.358849537567041,-0.0131892272091956,,
13.9820809575243,-0.357235532058087,-0.0131433836407338,,
14.0434058740047,-0.355521269140839,-0.0131064994277197,,
14.104730790485,-0.353442113199518,-0.013113138917209,,
14.1660557069654,-0.351113123197506,-0.01304069875702,,
14.2273806234458,-0.349449856263024,-0.013002916768758,,
14.2887055399262,-0.347207189392836,-0.0130042542331132,,
14.3500304564065,-0.345154861270112,-0.0129482702196353,,
14.4113553728869,-0.342696473298226,-0.012921896232017,,
14.4726802893673,-0.340483582993938,-0.0128867358210676,,
14.5340052058476,-0.337741594913816,-0.0128241123181008,,
14.595330122328,-0.33527852363739,-0.0127796503668751,,
14.6566550388084,-0.332712766572538,-0.012702485848413,,
14.7179799552887,-0.330107924151281,-0.0126174032466144,,
14.7793048717691,-0.327433468166249,-0.0126202437486294,,
14.8406297882495,-0.324429446306203,-0.0125120986252911,,
14.9019547047299,-0.32162778945713,-0.0124602189900482,,
14.9632796212102,-0.318677885782875,-0.0123784331367021,,
15.0246045376906,-0.315520991611681,-0.012296029143021,,
15.085929454171,-0.31240087005391,-0.0122338766041183,,
15.1472543706513,-0.309286703809319,-0.0121722851747461,,
15.2085792871317,-0.30574664594449,-0.0120798731946916,,
15.2699042036121,-0.302586976481717,-0.0119851174325349,,
15.3312291200924,-0.298796911100472,-0.0119156815079613,,
15.3925540365728,-0.295211639110334,-0.0118250797960302,,
15.4538789530532,-0.291804968697024,-0.0117128726076352,,
15.5152038695335,-0.288403617592573,-0.011627436782788,,
15.5765287860139,-0.284552206703717,-0.0115392781969423,,
15.6378537024943,-0.280765379162648,-0.0114268796793962,,
15.6991786189747,-0.276781795012338,-0.0113081231469772,,
15.760503535455,-0.273020638918376,-0.0112193905736779,,
15.8218284519354,-0.268900545113521,-0.0111145734737499,,
15.8831533684158,-0.264807626038711,-0.0109880589121887,,
15.9444782848961,-0.261066475171548,-0.0108608250266067,,
16.0058032013765,-0.25656616642036,-0.0107831012383177,,
16.0671281178569,-0.252647512529285,-0.0106298465881656,,
16.1284530343372,-0.248216875160447,-0.0105142543455563,,
16.1897779508176,-0.243830989368321,-0.0103907293019829,,
16.251102867298,-0.239635037593637,-0.0102683227980638,,
16.3124277837784,-0.234818750332457,-0.0101414439752334,,
16.3737527002587,-0.230472181171034,-0.0100114266184415,,
16.4350776167391,-0.226018532009519,-0.00987100573905053,,
16.4964025332195,-0.221290128981676,-0.00975544293169506,,
16.5577274496998,-0.216676669280066,-0.00960803117946973,,
16.6190523661802,-0.212055577526614,-0.00947380642105333,,
16.6803772826606,-0.207177366572075,-0.00932377493121894,,
16.7417021991409,-0.202127145358209,-0.00918504657893493,,
16.8030271156213,-0.197451761963241,-0.00900357823778686,,
16.8643520321017,-0.192665540360834,-0.00888538097519476,,
16.9256769485821,-0.187566867181483,-0.00872317800781497,,
16.9870018650624,-0.182661308041176,-0.00857530816944863,,
17.0483267815428,-0.17741485058524,-0.00840610145131127,,
17.1096516980232,-0.172347804166175,-0.00824301542631023,,
17.1709766145035,-0.167388647207247,-0.00811067452415282,,
17.2323015309839,-0.162230305258946,-0.00794096556699309,,
17.2936264474643,-0.157042533656192,-0.00776467783055601,,
17.3549513639446,-0.151745484947512,-0.00761324816615438,,
17.416276280425,-0.146382465245255,-0.00741612026985772,,
17.4776011969054,-0.141116291655392,-0.00726464829227869,,
17.5389261133857,-0.135860178497503,-0.00710092756961256,,
17.6002510298661,-0.130499298082505,-0.00692949665009168,,
17.6615759463465,-0.124943569071226,-0.00675076394786567,,
17.7229008628269,-0.119618015805286,-0.00658856282018938,,
17.7842257793072,-0.114137566578089,-0.00642415220875669,,
17.8455506957876,-0.108644744175935,-0.00622662693653098,,
17.906875612268,-0.103015990304981,-0.00604852893197005,,
17.9682005287483,-0.0974575438206977,-0.00586945956402651,,
18.0295254452287,-0.0918385034702709,-0.0056738623009398,,
18.0908503617091,-0.0863696179579867,-0.00549906104483133,,
18.1521752781894,-0.0807539310848846,-0.00533054421546053,,
18.2135001946698,-0.0751536817711911,-0.0051453375970496,,
18.2748251111502,-0.0694227046604084,-0.00494035048792485,,
18.3361500276306,-0.0637537090615583,-0.00475397933727617,,
18.3974749441109,-0.0580948895318314,-0.00455127713974601,,
18.4587998605913,-0.0523670924426498,-0.00434148840480608,,
18.5201247770717,-0.0466331665845643,-0.00416289184063023,,
18.581449693552,-0.0409426624759764,-0.0039716951480222,,
18.6427746100324,-0.0352236538101284,-0.00380447163012576,,
18.7040995265128,-0.0294941221637098,-0.00361960535683936,,
18.7654244429931,-0.0237190294805348,-0.00339535471364982,,
18.8267493594735,-0.0179761995619665,-0.00319897557662774,,
18.8880742759539,-0.0122334274619727,-0.00301581654807626,,
18.9493991924343,-0.00644278158223998,-0.00280398390268388,,
19.0107241089146,-0.00066901872627993,-0.00259739257221403,,
19.072049025395,0.00512142478844183,-0.00241109684940355,,
19.1333739418754,0.0108720023960017,-0.00221152582702189,,
19.1946988583557,0.0166326115262485,-0.0020051423830334,,
19.2560237748361,0.022411953874654,-0.0018185504679793,,
19.3173486913165,0.0280966472164982,-0.00160789707245224,,
19.3786736077968,0.0338662471350896,-0.00141107640661975,,
19.4399985242772,0.0396758575072794,-0.00120529638533906,,
19.5013234407576,0.0452329163457736,-0.00101123159516581,,
19.562648357238,0.0509891023550662,-0.000798661228719411,,
19.6239732737183,0.0566791150057703,-0.000583506079027796,,
19.6852981901987,0.0624048017169804,-0.000435799974261908,,
19.7466231066791,0.0681290718731137,-0.000229738478364716,,
19.8079480231594,0.073710443422212,-8.10573308118734E-06,,
19.8692729396398,0.0793606768936161,0.000208464148507836,,
19.9305978561202,0.0850421613045721,0.000382500088011106,,
19.9919227726005,0.0905305316764843,0.00060450077397034,,
20.0532476890809,0.0961223105690042,0.000798184745544273,,
20.1145726055613,0.10162637868391,0.00101972918506599,,
20.1758975220416,0.107243337565653,0.00121542947154163,,
20.237222438522,0.11276824927669,0.00139601475506845,,
20.2985473550024,0.118310072920786,0.00161090682717724,,
20.3598722714828,0.123684598519382,0.00182379730201143,,
20.4211971879631,0.129136456461457,0.00202224978473975,,
20.4825221044435,0.134544574651874,0.002215345051233,,
20.5438470209239,0.139839599710445,0.00243690420838183,,
20.6051719374042,0.145251158106049,0.00259560438053086,,
20.6664968538846,0.150532104341712,0.00280185720557924,,
20.727821770365,0.155650927294299,0.00301041701866334,,
20.7891466868453,0.160960031175775,0.00319132976939107,,
20.8504716033257,0.166106809409164,0.00339820073477437,,
20.9117965198061,0.17133476492124,0.00361429965229876,,
20.9731214362865,0.176360124148043,0.00375685458760788,,
21.0344463527668,0.181453969476418,0.00394740370462676,,
21.0957712692472,0.186408096219359,0.00419548402566416,,
