Time domain (s),Current (AC) (A),Potential (AC) (V),Frequency (Hz),Column 5
0,-0.312087892267908,-0.00843137721416598,0.15849,0.5
0.0154041658779734,-0.317309586327592,-0.00862863026068661,,
0.0308083317559467,-0.322217635061699,-0.00882573734250691,,
0.0462124976339201,-0.327353053579029,-0.00900459883682192,,
0.0616166635118935,-0.332257480870618,-0.00918623137973951,,
0.0770208293898669,-0.336961947728241,-0.00933704940605873,,
0.0924249952678402,-0.341892719238935,-0.00954379243878067,,
0.107829161145814,-0.346750706855874,-0.0096921655563742,,
0.123233327023787,-0.351181861316362,-0.00985175742958511,,
0.13863749290176,-0.355990781937608,-0.00998874758127366,,
0.154041658779734,-0.36015650596409,-0.0101573938272845,,
0.169445824657707,-0.364566499838881,-0.0103338628689378,,
0.18484999053568,-0.368939143149658,-0.0105418055490381,,
0.200254156413654,-0.372851153173811,-0.0106742525494377,,
0.215658322291627,-0.376930459640585,-0.010815601115842,,
0.231062488169601,-0.38096602476243,-0.0109768738638016,,
0.246466654047574,-0.384805321901504,-0.0111010350867757,,
0.261870819925547,-0.388621328194577,-0.0112575274908093,,
0.277274985803521,-0.392437902557065,-0.0114025251747143,,
0.292679151681494,-0.396097618752426,-0.0115357362090909,,
0.308083317559468,-0.399633850858772,-0.0116625977790159,,
0.323487483437441,-0.403361096305802,-0.0118101498451719,,
0.338891649315414,-0.406594263379419,-0.0119534164789621,,
0.354295815193388,-0.409842413283849,-0.012057359310282,,
0.369699981071361,-0.413035744489762,-0.0121884150846343,,
0.385104146949334,-0.416371235066698,-0.0123229398013116,,
0.400508312827308,-0.418930671814512,-0.0124552431177096,,
0.415912478705281,-0.422118464343632,-0.0125715929485333,,
0.431316644583254,-0.424498320147732,-0.0126503226586188,,
0.446720810461228,-0.427310831819783,-0.0127832965003578,,
0.462124976339201,-0.429985586658776,-0.0128962344063175,,
0.477529142217175,-0.432253603796862,-0.0130026814445223,,
0.492933308095148,-0.434618760804858,-0.0130910265792235,,
0.508337473973121,-0.43707729422289,-0.0131693001496211,,
0.523741639851095,-0.439038908920437,-0.013280123848129,,
0.539145805729068,-0.441224840028102,-0.0133957256098642,,
0.554549971607041,-0.44362180892332,-0.0134619046364448,,
0.569954137485015,-0.444927516472948,-0.0135742449994138,,
0.585358303362988,-0.446716935129171,-0.0136367521015086,,
0.600762469240962,-0.448484128069545,-0.0137054467384665,,
0.616166635118935,-0.450143529838485,-0.0138058704520958,,
0.631570800996908,-0.451480765240628,-0.0138635447542002,,
0.646974966874882,-0.452648147887783,-0.0139128260860524,,
0.662379132752855,-0.453820075090256,-0.0140058420911546,,
0.677783298630828,-0.455323967856928,-0.014062401131723,,
0.693187464508802,-0.45632163976645,-0.0141385034772079,,
0.708591630386775,-0.456874939376342,-0.0141864734074577,,
0.723995796264749,-0.457806218173023,-0.0142281486100186,,
0.739399962142722,-0.458664855093303,-0.014294526057363,,
0.754804128020695,-0.459238108141386,-0.014371118753012,,
0.770208293898669,-0.459491467100331,-0.014345374229042,,
0.785612459776642,-0.459978799649444,-0.0144374597091814,,
0.801016625654615,-0.460173931493385,-0.0144753557944304,,
0.816420791532589,-0.460259212914263,-0.0144766877223179,,
0.831824957410562,-0.460181955473867,-0.0145127045120534,,
0.847229123288536,-0.460226193879535,-0.0145474623562514,,
0.862633289166509,-0.460291024801485,-0.014565069348194,,
0.878037455044482,-0.459986468586542,-0.0145735900375592,,
0.893441620922456,-0.459390563770549,-0.0146016517511423,,
0.908845786800429,-0.459086717642376,-0.0146288718870018,,
0.924249952678402,-0.458236246719932,-0.0146365738056278,,
0.939654118556376,-0.457792016437657,-0.0146514439594445,,
0.955058284434349,-0.456877495688708,-0.0146405490630053,,
0.970462450312323,-0.455903398659896,-0.0146640128885371,,
0.985866616190296,-0.454726145806661,-0.0146285092559504,,
1.00127078206827,-0.453536253408949,-0.0146203352327476,,
1.01667494794624,-0.452311850794296,-0.0146285822383003,,
1.03207911382422,-0.451014664285888,-0.0145959043910779,,
1.04748327970219,-0.449017048189186,-0.014603512801068,,
1.06288744558016,-0.447759910574513,-0.0145816728328239,,
1.07829161145814,-0.446176701115816,-0.0145558735720912,,
1.09369577733611,-0.444173120290261,-0.0144927620849105,,
1.10909994321408,-0.44238341759933,-0.0144534793350113,,
1.12450410909206,-0.440589241361759,-0.0144542456496866,,
1.13990827497003,-0.43835268106751,-0.0143913896007306,,
1.155312440848,-0.43644453590362,-0.0143340619647887,,
1.17071660672598,-0.434110054644017,-0.0143155997109314,,
1.18612077260395,-0.431589246616401,-0.0142702753908699,,
1.20152493848192,-0.429017596376172,-0.0142143709107536,,
1.2169291043599,-0.426123566743115,-0.0141606741467251,,
1.23233327023787,-0.423677814886912,-0.0141185428044768,,
1.24773743611584,-0.421015202531658,-0.0140264755699246,,
1.26314160199382,-0.417871435382175,-0.0139879431698118,,
1.27854576787179,-0.415061551031167,-0.0139021706629494,,
1.29394993374976,-0.412104181658374,-0.0138264149836269,,
1.30935409962774,-0.408868174237683,-0.0137648908625589,,
1.32475826550571,-0.405337054756069,-0.0136597962785281,,
1.34016243138368,-0.402338287324681,-0.0135843713004791,,
1.35556659726166,-0.398648250424312,-0.0134955677453923,,
1.37097076313963,-0.395072040432909,-0.0134503369339662,,
1.3863749290176,-0.391291254443546,-0.0133319960534064,,
1.40177909489558,-0.387515581078914,-0.013225569541488,,
1.41718326077355,-0.383443091445116,-0.0131253647749086,,
1.43258742665152,-0.379842312451528,-0.0130268386023795,,
1.4479915925295,-0.375822440247264,-0.0129292612004006,,
1.46339575840747,-0.371900489008354,-0.0127847743929457,,
1.47879992428544,-0.367381212779914,-0.0127257316717784,,
1.49420409016342,-0.363437177842509,-0.0125963704563654,,
1.50960825604139,-0.358894539759391,-0.0124694746759642,,
1.52501242191936,-0.35431362799946,-0.0123514074792168,,
1.54041658779734,-0.349900864786272,-0.0122430264087363,,
1.55582075367531,-0.345182551236666,-0.0120886687384409,,
1.57122491955328,-0.34036688479112,-0.011964361550767,,
1.58662908543126,-0.335478718486527,-0.0118539232902957,,
1.60203325130923,-0.330927062301451,-0.0117706116570475,,
1.6174374171872,-0.325720351072579,-0.0115690891430509,,
1.63284158306518,-0.320724535613905,-0.0114306598706477,,
1.64824574894315,-0.315567885502201,-0.0113019007596225,,
1.66364991482112,-0.310638747191074,-0.0111477780012663,,
1.6790540806991,-0.305142391569395,-0.0109955573454075,,
1.69445824657707,-0.299799414689679,-0.01085138071294,,
1.70986241245504,-0.294460130261157,-0.0107292629957665,,
1.72526657833302,-0.289065175029998,-0.0105379945019477,,
1.74067074421099,-0.283515704918047,-0.0103696789572107,,
1.75607491008896,-0.278086381487299,-0.0102123495368507,,
1.77147907596694,-0.272127333327369,-0.0100711446544479,,
1.78688324184491,-0.266453385004927,-0.00991360997122825,,
1.80228740772288,-0.260724760001324,-0.00972307358160807,,
1.81769157360086,-0.254997768197287,-0.00958117764757915,,
1.83309573947883,-0.248947828931008,-0.00940492527227743,,
1.8484999053568,-0.242985088319882,-0.00923126377040129,,
1.86390407123478,-0.237071769747833,-0.00904161913387025,,
1.87930823711275,-0.230910488876278,-0.00887191692448308,,
1.89471240299073,-0.224783008134896,-0.00867717948833979,,
1.9101165688687,-0.218711766265567,-0.00849020098828346,,
1.92552073474667,-0.212446528691127,-0.00831060967046815,,
1.94092490062465,-0.20610204543334,-0.00813995640983212,,
1.95632906650262,-0.199739099919576,-0.00794648248062346,,
1.97173323238059,-0.193367065295177,-0.00773643927726164,,
1.98713739825857,-0.186951573360555,-0.00756161005778555,,
2.00254156413654,-0.18042985244539,-0.00736702086704089,,
2.01794573001451,-0.174019757170208,-0.00718445779916044,,
2.03334989589249,-0.167503716949189,-0.00699074211591766,,
2.04875406177046,-0.160881447747626,-0.00679049679304633,,
2.06415822764843,-0.154131646962469,-0.00657786271625893,,
2.07956239352641,-0.147487791123149,-0.00639141333823989,,
2.09496655940438,-0.140936885641804,-0.00615728367867252,,
2.11037072528235,-0.134093282394549,-0.00597382429630633,,
2.12577489116033,-0.127294343605022,-0.0057563186476548,,
2.1411790570383,-0.120500233405521,-0.00555056315735669,,
2.15658322291627,-0.113590521080133,-0.00535712343862471,,
2.17198738879425,-0.106718869405528,-0.00515357566441521,,
2.18739155467222,-0.0998952195964634,-0.00492362652508493,,
2.20279572055019,-0.0929664769456839,-0.00474009416036836,,
2.21819988642817,-0.085955648264484,-0.00447206419921642,,
2.23360405230614,-0.0789669742904564,-0.00429061411217369,,
2.24900821818411,-0.0719592699910373,-0.00405019428631404,,
2.26441238406209,-0.0650594988804062,-0.00385087492700853,,
2.27981654994006,-0.0580648601775245,-0.00364510347182145,,
2.29522071581803,-0.0510418180039092,-0.00344613534007543,,
2.31062488169601,-0.0440000295396096,-0.00318828869744969,,
2.32602904757398,-0.0368662138301328,-0.0029752167265622,,
2.34143321345195,-0.0298273367215834,-0.00275816493690018,,
2.35683737932993,-0.0227690032355814,-0.00253223210751941,,
2.3722415452079,-0.0156652952050823,-0.00230429226351347,,
2.38764571108587,-0.00860894996203166,-0.00207525312286005,,
2.40304987696385,-0.00154308955628524,-0.00184455819514096,,
2.41845404284182,0.00554925708592036,-0.00163668621669233,,
2.43385820871979,0.0126605985491791,-0.00141032689670384,,
2.44926237459777,0.0197052628648905,-0.00118601792461126,,
2.46466654047574,0.02679079267412,-0.000964313510135373,,
2.48007070635371,0.0338788787957156,-0.000722616493149975,,
2.49547487223169,0.0409075661591393,-0.000494090509645329,,
2.51087903810966,0.0479630237937295,-0.000298315355713008,,
2.52628320398763,0.0549741365096367,-8.27072481621727E-05,,
2.54168736986561,0.061940655776492,0.000146949961767895,,
2.55709153574358,0.0689369631832792,0.000366859466573111,,
2.57249570162155,0.0759029498850583,0.000617156997368973,,
2.58789986749953,0.0828867952690611,0.000860370678815059,,
2.6033040333775,0.0898095731909865,0.00106160126341193,,
2.61870819925547,0.096824626888458,0.00126872517277299,,
2.63411236513345,0.103652856757179,0.00150693500184573,,
2.64951653101142,0.11053984630598,0.0017133929472628,,
2.66492069688939,0.117366620496825,0.00196019644805112,,
2.68032486276737,0.124172376119328,0.00216257650466067,,
2.69572902864534,0.131079816167057,0.00239444143067891,,
2.71113319452331,0.137757507640889,0.00261988390989476,,
2.72653736040129,0.144577713529127,0.00282906500924707,,
2.74194152627926,0.15121702481313,0.00304267522496593,,
2.75734569215723,0.157885023602574,0.00326572297082217,,
2.77274985803521,0.164542513107847,0.00347600336682152,,
2.78815402391318,0.171064198518674,0.00370441987680126,,
2.80355818979115,0.177695272796164,0.00392464411799098,,
2.81896235566913,0.184021329302313,0.00413049539762334,,
2.8343665215471,0.190432560716324,0.00433212282374829,,
2.84977068742507,0.196913948703048,0.0045613968763405,,
2.86517485330305,0.203379466250499,0.00477581902070368,,
2.88057901918102,0.209666574497404,0.00500054536061034,,
2.89598318505899,0.215859063682428,0.00520006542137841,,
2.91138735093697,0.22207175483601,0.00542731877515479,,
2.92679151681494,0.228367100089428,0.00561949498695169,,
2.94219568269291,0.234427264605171,0.00583648975915319,,
2.95759984857089,0.240163913589257,0.00602892597057192,,
2.97300401444886,0.246383705610523,0.00625292704837532,,
2.98840818032683,0.252438757501534,0.00644527203185685,,
3.00381234620481,0.258279363188505,0.00666239908456756,,
3.01921651208278,0.264065966776744,0.00683366585308365,,
3.03462067796075,0.269780496557996,0.00705699184414943,,
3.05002484383873,0.275483913481324,0.0072395024559655,,
3.0654290097167,0.281057207004353,0.00741900254584316,,
3.08083317559468,0.286768328369117,0.00761021630289926,,
3.09623734147265,0.291915889370186,0.00780772478764513,,
3.11164150735062,0.297585222128633,0.00797448945744383,,
3.12704567322859,0.302693302305382,0.00816944355993865,,
3.14244983910657,0.308289638144043,0.00836715274614708,,
3.15785400498454,0.313117944134066,0.00855476756106777,,
3.17325817086251,0.31839616110051,0.00874574868688338,,
3.18866233674049,0.323311665745684,0.00888644041213693,,
3.20406650261846,0.328195926573052,0.00906716295637766,,
3.21947066849643,0.333354280892999,0.0092497100593687,,
3.23487483437441,0.338105613477333,0.00943508522842329,,
3.25027900025238,0.342887905844767,0.00961817969903978,,
3.26568316613036,0.347437289752184,0.0097576261629464,,
3.28108733200833,0.352204244245421,0.00993616379808326,,
3.2964914978863,0.356455959779549,0.0100890253302031,,
3.31189566376428,0.36096870320972,0.0102498464998724,,
3.32729982964225,0.365097147680864,0.010395478217943,,
3.34270399552022,0.369523544560004,0.0105734821696455,,
3.3581081613982,0.373774976059425,0.0106865865665911,,
3.37351232727617,0.377752598100972,0.0108531870261026,,
3.38891649315414,0.381529123569725,0.011004369964172,,
3.40432065903212,0.38543346465678,0.0111581437756674,,
3.41972482491009,0.38925941216461,0.0112750295706237,,
3.43512899078806,0.392952147394699,0.011450784753666,,
3.45053315666604,0.396818711865678,0.0115659873931748,,
3.46593732254401,0.400368009568561,0.0117357443393247,,
3.48134148842198,0.403570500893786,0.0118712360721394,,
3.49674565429996,0.406800259550916,0.0120090449945676,,
3.51214982017793,0.410057853609364,0.0121077718685587,,
3.5275539860559,0.413116055303262,0.0122210222302046,,
3.54295815193388,0.416011505109855,0.0123399652151521,,
3.55836231781185,0.41921939309452,0.0124987976157831,,
3.57376648368982,0.421986743248104,0.0125739648749086,,
3.5891706495678,0.424670587197732,0.0126818145426526,,
3.60457481544577,0.427392491798143,0.0127979340229336,,
3.61997898132374,0.429946531886517,0.0129097384217696,,
3.63538314720172,0.432385821953128,0.0130063305620229,,
3.65078731307969,0.434645034015286,0.0131236496896827,,
3.66619147895766,0.437048251674065,0.0132207527063861,,
3.68159564483564,0.439155789202506,0.0133239451879197,,
3.69699981071361,0.441266735147435,0.0134041755975773,,
3.71240397659158,0.443227142697475,0.013491425997028,,
3.72780814246956,0.445106600355924,0.0135434031144341,,
3.74321230834753,0.446546656322123,0.0136306398296941,,
3.7586164742255,0.448136682613795,0.0137050818267159,,
3.77402064010348,0.449646895152706,0.0137940290658047,,
3.78942480598145,0.451221015500768,0.0138836924442027,,
3.80482897185942,0.452331875241163,0.0139470912993871,,
3.8202331377374,0.453727053723603,0.0139861368566487,,
3.83563730361537,0.454755259364163,0.0140959023110807,,
3.85104146949334,0.455594297889636,0.0141637576510134,,
3.86644563537132,0.456518546827311,0.0141812186782557,,
3.88184980124929,0.45692500049351,0.0142181842385418,,
3.89725396712726,0.458017113943221,0.014291403781201,,
3.91265813300524,0.458663860971828,0.0143395903778023,,
3.92806229888321,0.459146151904886,0.014366612092898,,
3.94346646476118,0.45909559372698,0.014418575526113,,
3.95887063063916,0.459541244182792,0.0144358723430682,,
3.97427479651713,0.459761939150393,0.0144647733536769,,
3.9896789623951,0.459608560408431,0.0144926161202101,,
4.00508312827308,0.459451489215273,0.0144923606819849,,
4.02048729415105,0.459765631601588,0.0145407981554149,,
4.03589146002902,0.459042763271415,0.0145724953023083,,
4.051295625907,0.458741686481638,0.0145965749164185,,
4.06669979178497,0.458161403574548,0.0145591714620328,,
4.08210395766294,0.457720013639347,0.014613233137811,,
4.09750812354092,0.456946871165975,0.0145872514212035,,
4.11291228941889,0.456071476197963,0.014618364709297,,
4.12831645529686,0.454982487130032,0.0145977289498282,,
4.14372062117484,0.453980980751962,0.014588697384013,,
4.15912478705281,0.452798828300025,0.0145897145755165,,
4.17452895293078,0.451709839232095,0.0145691928509701,,
4.18993311880876,0.450167246736548,0.014555581642691,,
4.20533728468673,0.448510756323358,0.0145273192276449,,
4.2207414505647,0.447004236235643,0.01449138910445,,
4.23614561644268,0.44530968517167,0.0144642077404642,,
4.25154978232065,0.443740961483047,0.0144393754958694,,
4.26695394819862,0.441881102219405,0.0144406526869947,,
4.2823581140766,0.439726982998961,0.0143893825861046,,
4.29776227995457,0.43780719241207,0.0143538584272318,,
4.31316644583254,0.435243495143646,0.014302570080754,,
4.32857061171052,0.433090228027324,0.0142549308517776,,
4.34397477758849,0.430575384728561,0.0142137870519532,,
4.35937894346646,0.42808922893524,0.0141527555617476,,
4.37478310934444,0.425411917783882,0.014084170398315,,
4.39018727522241,0.42260906329188,0.0140493943085298,,
4.40559144110038,0.419876933442005,0.0139804989701093,,
4.42099560697836,0.41705306038166,0.0139303646570417,,
4.43639977285633,0.41445272263599,0.013831669712828,,
4.45180393873431,0.410929840160889,0.013759088765732,,
4.46720810461228,0.407769101937642,0.0136939565797345,,
4.48261227049025,0.404407835211016,0.013608959510341,,
4.49801643636822,0.401085197204587,0.0135047452759069,,
4.5134206022462,0.397578788742512,0.0134470162370399,,
4.52882476812417,0.39419139082281,0.0133452788411104,,
4.54422893400215,0.390323406178295,0.0132356593513778,,
4.55963309988012,0.386644020579451,0.0131887681914891,,
4.57503726575809,0.382600786520508,0.0130641873200026,,
4.59044143163607,0.379034730769892,0.012942963636617,,
4.60584559751404,0.374797216971131,0.0128646900662188,,
4.62124976339201,0.370766764474018,0.0127391284944038,,
4.63665392926999,0.366514196835768,0.0126479917848146,,
4.65205809514796,0.362180111236512,0.0125415242203237,,
4.66746226102593,0.357838356700159,0.0124225401828046,,
4.68286642690391,0.35338298828087,0.012300842114144,,
4.69827059278188,0.349171889709891,0.0122093450542011,,
4.71367475865985,0.344282516257792,0.0120693284156852,,
4.72907892453783,0.339491418814431,0.0119349496637082,,
4.7444830904158,0.334681291045678,0.0118279575385767,,
4.75988725629377,0.329931662669588,0.01164340342096,,
4.77529142217175,0.324879253295477,0.0115430526896803,,
4.79069558804972,0.320060888520212,0.0113950809750119,,
4.80609975392769,0.314898273679654,0.0112528703045984,,
4.82150391980567,0.309660389641652,0.011100391929816,,
4.83690808568364,0.304354621308596,0.0109534967048104,,
4.85231225156161,0.299079528723933,0.0108330074063216,,
4.86771641743959,0.293594285960179,0.0106639437924971,,
4.88312058331756,0.288143340387335,0.010511597698224,,
4.89852474919553,0.282565431300312,0.0103388439143264,,
4.91392891507351,0.2770469564758,0.0102036988476741,,
4.92933308095148,0.271537535257583,0.0100221506905989,,
4.94473724682945,0.265763429196467,0.00987676984935604,,
4.96014141270743,0.259954031822965,0.00968311574497127,,
4.9755455785854,0.254180174292217,0.00952541913216232,,
4.99094974446337,0.248232771555287,0.00934391658905609,,
5.00635391034135,0.242188228948448,0.00919947995696635,,
5.02175807621932,0.236169817534684,0.00903665633406847,,
5.03716224209729,0.230050289765108,0.00887050745284812,,
5.05256640797527,0.22398955717995,0.00862931903161446,,
5.06797057385324,0.217798701194494,0.00844137579611859,,
5.08337473973121,0.211526114222001,0.00827132692056853,,
5.09877890560919,0.205307174304857,0.00812204152359985,,
5.11418307148716,0.198863846968917,0.0079381807383081,,
5.12958723736513,0.19236232802231,0.00773069191719733,,
5.14499140324311,0.186142216461998,0.00753093922518877,,
5.16039556912108,0.179528184266948,0.00734549107378424,,
5.17579973499905,0.172982639940705,0.00716748712208171,,
5.19120390087703,0.166549786384598,0.00697240530047427,,
5.206608066755,0.159904226337033,0.00676681402046375,,
5.22201223263297,0.153164082731925,0.00657937710002132,,
5.23741639851095,0.146458591361113,0.00639106439137871,,
5.25282056438892,0.139723844415445,0.00616153490056082,,
5.26822473026689,0.133002447101021,0.00596448255550319,,
5.28362889614487,0.126205780589153,0.0057818259789868,,
5.29903306202284,0.11942786036797,0.00556811541253666,,
5.31443722790081,0.112486904224775,0.00531662279575951,,
5.32984139377879,0.10571977732247,0.00513281218583383,,
