Time domain (s),Current (AC) (A),Potential (AC) (V),Frequency (Hz),Column 5
0,0.283072784997029,0.00951094386715479,0.039811,0.3
0.0613249164803698,0.28329279453824,0.00951869840171993,,
0.12264983296074,0.283597710221309,0.00951868684503676,,
0.183974749441109,0.283925578553716,0.00959386307059029,,
0.245299665921479,0.284162009502583,0.00961318584524484,,
0.306624582401849,0.283850935791643,0.00966760337823125,,
0.367949498882219,0.283844964370677,0.00968197122487524,,
0.429274415362588,0.283901133049137,0.00970826267962321,,
0.490599331842958,0.28356785311648,0.00973256349565466,,
0.551924248323328,0.283311641835663,0.00976938597815602,,
0.613249164803698,0.282790448749486,0.00977356083003622,,
0.674574081284067,0.282596190961191,0.00979763051239946,,
0.735898997764437,0.282389057296437,0.0098084591247507,,
0.797223914244807,0.281726229569226,0.00981194057562629,,
0.858548830725177,0.281012644763806,0.00980036944636664,,
0.919873747205546,0.280604162248359,0.00982334413297714,,
0.981198663685916,0.279817240929202,0.00980784662053003,,
1.04252358016629,0.279165049795586,0.00982956451781991,,
1.10384849664666,0.278343606198969,0.00986260218650603,,
1.16517341312703,0.277504994767076,0.00982490717440765,,
1.2264983296074,0.27619072233387,0.00982391329963495,,
1.28782324608776,0.275306578817112,0.00982390174295134,,
1.34914816256813,0.274303753308657,0.00980462519503078,,
1.4104730790485,0.273134661047684,0.00977194289435923,,
1.47179799552887,0.271486175647295,0.0097919330674805,,
1.53312291200924,0.270669210616403,0.00976415368974415,,
1.59444782848961,0.26933739713411,0.00977804482319744,,
1.65577274496998,0.267720448300697,0.00972048676149573,,
1.71709766145035,0.26622143503136,0.00973218501427287,,
1.77842257793072,0.264935900061552,0.00971342562793476,,
1.83974749441109,0.263030270345821,0.00961543650933816,,
1.90107241089146,0.261512596385965,0.00960980840451953,,
1.96239732737183,0.259821937825005,0.0095951083032273,,
2.0237222438522,0.258083134682507,0.00954844530480603,,
2.08504716033257,0.256265210212212,0.00952330951839908,,
2.14637207681294,0.254187902143712,0.00949989567781895,,
2.20769699329331,0.25238807854322,0.00945727174024791,,
2.26902190977368,0.249912364732153,0.00941001935097319,,
2.33034682625405,0.248096866151625,0.00933605657717651,,
2.39167174273442,0.245951446562733,0.00932299752492849,,
2.45299665921479,0.243736982418924,0.00925269821977137,,
2.51432157569516,0.241480531721448,0.0092121920444348,,
2.57564649217553,0.239183400718642,0.00915518581436547,,
2.6369714086559,0.236911461648036,0.00910265779911557,,
2.69829632513627,0.234334420287455,0.00906082260518737,,
2.75962124161664,0.23173237360158,0.00896665585962664,,
2.82094615809701,0.229524440699451,0.00892794097021765,,
2.88227107457738,0.226867531583452,0.00886575445681181,,
2.94359599105775,0.224143630588492,0.00876593071472476,,
3.00492090753812,0.221327172568561,0.00870039276313106,,
3.06624582401849,0.218863588206332,0.00863298262882584,,
3.12757074049886,0.215998612391053,0.00858517262957648,,
3.18889565697923,0.21307765450422,0.00851972713144988,,
3.2502205734596,0.210288441092445,0.00843633699316548,,
3.31154548993997,0.207265409228477,0.00835157738789727,,
3.37287040642034,0.204224276494705,0.00825769089190986,,
3.43419532290071,0.201142276848698,0.00818373678562612,,
3.49552023938108,0.198066435230563,0.00808215642766097,,
3.55684515586145,0.194906620505095,0.00800269267256359,,
3.61817007234182,0.191599386324532,0.0079435224535267,,
3.67949498882219,0.188461591213875,0.00783317924036897,,
3.74081990530255,0.185343949648978,0.00772949267685341,,
3.80214482178292,0.181843787254319,0.00763193115554284,,
3.86346973826329,0.178507792284495,0.00753012833142197,,
3.92479465474366,0.175138604611411,0.00746632099316846,,
3.98611957122403,0.17174609107518,0.00734277138004913,,
4.0474444877044,0.168023469923679,0.00724759053552004,,
4.10876940418477,0.164765873179895,0.00711363701816481,,
4.17009432066514,0.161151647314442,0.0070505259700866,,
4.23141923714551,0.157401804880648,0.00693367634417186,,
4.29274415362588,0.153653245369326,0.00683762874838711,,
4.35406907010625,0.150040372403936,0.00670607613200946,,
4.41539398658662,0.146415696551794,0.00659042840116886,,
4.47671890306699,0.142580154896794,0.00648684584780401,,
4.53804381954736,0.138833671387293,0.00635525278303417,,
4.59936873602773,0.135057680660909,0.00625565728544419,,
4.6606936525081,0.131194544509806,0.0061449587042719,,
4.72201856898847,0.127307336067933,0.00601689620628276,,
4.78334348546884,0.123385208808928,0.00590625251935695,,
4.84466840194921,0.119527507583938,0.00579874069363395,,
4.90599331842958,0.115457984195701,0.0056763785297349,,
4.96731823490995,0.111483070508393,0.00552652301601331,,
5.02864315139032,0.107370627531964,0.00543438157921994,,
5.08996806787069,0.103356363113525,0.00528502300288514,,
5.15129298435106,0.0993644448719816,0.00516546911305316,,
5.21261790083143,0.09524901618507,0.00501541713571418,,
5.2739428173118,0.0911339607119688,0.00487595974788668,,
5.33526773379217,0.0869444490836994,0.00474824972874144,,
5.39659265027254,0.0828426427008662,0.0046588934526488,,
5.45791756675291,0.0785656124340659,0.00450940775279651,,
5.51924248323328,0.0743753543781759,0.00438218889269582,,
5.58056739971365,0.0702154899219675,0.00423843530781287,,
5.64189231619402,0.0659662874099027,0.00410740852053015,,
5.70321723267439,0.0616543616518331,0.00393194628555271,,
5.76454214915476,0.0573974849307926,0.00380418426133211,,
5.82586706563513,0.0531409814235625,0.00367838687329058,,
5.8871919821155,0.0488370797624158,0.00354692093203823,,
5.94851689859587,0.044490258513077,0.00338622524928223,,
6.00984181507624,0.04016249449393,0.00327055440507484,,
6.07116673155661,0.0358985033846294,0.0030919111929899,,
6.13249164803698,0.0315305955550049,0.00296877762047343,,
6.19381656451734,0.0272168037278835,0.00282659285536235,,
6.25514148099771,0.0228567333882766,0.00268051637711464,,
6.31646639747808,0.0184824809238759,0.00256093937391633,,
6.37779131395845,0.0141333970658117,0.00239269717689661,,
6.43911623043882,0.00980472333800193,0.00224114571988521,,
6.50044114691919,0.00540954757435749,0.00211043674139644,,
6.56176606339956,0.00103828082043965,0.00193081987873445,,
6.62309097987993,-0.00332734107459639,0.00180025535878814,,
6.6844158963603,-0.00771493593271776,0.00162865305606807,,
6.74574081284067,-0.0120585382129422,0.0015019542467205,,
6.80706572932104,-0.0164066657106173,0.00135438695631374,,
6.86839064580141,-0.0208150672386666,0.00124279562134832,,
6.92971556228178,-0.025099375174769,0.00104397444003723,,
6.99104047876215,-0.0295195329378449,0.000917798570613915,,
7.05236539524252,-0.0338351908340181,0.00073683535433533,,
7.11369031172289,-0.038148749402508,0.000591380047820778,,
7.17501522820326,-0.0424142566929132,0.000449544872382912,,
7.23634014468363,-0.0467868296951674,0.000267446211959843,,
7.297665061164,-0.0510511706924152,0.000133827838423084,,
7.35898997764437,-0.0553537661052256,-1.19943927896493E-05,,
7.42031489412474,-0.0596365811860866,-0.000148166793358495,,
7.48163981060511,-0.0639715995486725,-0.000319147924345842,,
7.54296472708548,-0.0682553943157857,-0.000456221746220287,,
7.60428964356585,-0.0723614926574381,-0.000627191320524023,,
7.66561456004622,-0.0765995220810551,-0.000756464381099775,,
7.72693947652659,-0.0808582648711475,-0.000906897728991662,,
7.78826439300696,-0.0849572721504029,-0.00105062820050783,,
7.84958930948733,-0.0890824043963841,-0.00120450544005424,,
7.9109142259677,-0.0933553293112703,-0.00138114790132482,,
7.97223914244807,-0.097385292035608,-0.0015129417634685,,
8.03356405892844,-0.10145574845837,-0.00168332194691834,,
8.09488897540881,-0.105530496839952,-0.0017909247815231,,
8.15621389188918,-0.109573895261463,-0.00193962607148945,,
8.21753880836955,-0.113682419492883,-0.00211880089101113,,
8.27886372484992,-0.117610914712527,-0.00223901351179689,,
8.34018864133029,-0.121670501283062,-0.00241593477805413,,
8.40151355781066,-0.125474623000402,-0.00254185640044247,,
8.46283847429103,-0.129312473915854,-0.00268910010371437,,
8.5241633907714,-0.133199262492189,-0.00280792592249135,,
8.58548830725177,-0.137097107527657,-0.00297874525991082,,
8.64681322373213,-0.140864327729497,-0.00311647781273949,,
8.7081381402125,-0.144677126667928,-0.00327912513040562,,
8.76946305669287,-0.148222984428493,-0.00340426234290758,,
8.83078797317324,-0.152051038481423,-0.00352242943073078,,
8.89211288965361,-0.155579961665343,-0.00370571842954481,,
8.95343780613398,-0.159345875618847,-0.00384029600780389,,
9.01476272261435,-0.163054874466269,-0.00395981522758504,,
9.07608763909472,-0.166553613983276,-0.00413036876128636,,
9.13741255557509,-0.169853710449716,-0.00425104364940809,,
9.19873747205546,-0.173549833420681,-0.00438393250730451,,
9.26006238853583,-0.176960447826715,-0.00454734689983161,,
9.3213873050162,-0.180397560413286,-0.00466561655322018,,
9.38271222149657,-0.183684081227373,-0.0048049193704065,,
9.44403713797694,-0.186861017136392,-0.00493398585526661,,
9.50536205445731,-0.190119220352618,-0.00507653754507542,,
9.56668697093768,-0.193508001750746,-0.00518059247787495,,
9.62801188741805,-0.196590934431279,-0.005315564427955,,
9.68933680389842,-0.199742725059824,-0.00544740307224734,,
9.75066172037879,-0.202770422096422,-0.00557180932452361,,
9.81198663685916,-0.205809315547332,-0.00567942660498266,,
9.87331155333953,-0.208889075910476,-0.00581257115449985,,
9.9346364698199,-0.211860977482425,-0.00594445602552529,,
9.99596138630027,-0.21462611860343,-0.00604857018632687,,
10.0572863027806,-0.217692303314223,-0.00615505346722678,,
10.118611219261,-0.220341514895383,-0.00628491447407109,,
10.1799361357414,-0.223144863780225,-0.00640737198060837,,
10.2412610522217,-0.225683464118338,-0.00650799457843609,,
10.3025859687021,-0.228298479984123,-0.00662246352756934,,
10.3639108851825,-0.231011137913046,-0.00675355243202524,,
10.4252358016629,-0.233527532029442,-0.00684779574061345,,
10.4865607181432,-0.235825409459869,-0.00698153979308147,,
10.5478856346236,-0.238321230164969,-0.00707111564615914,,
10.609210551104,-0.240739375745786,-0.00716482012438302,,
10.6705354675843,-0.242847660560547,-0.00727353240059481,,
10.7318603840647,-0.24509268158508,-0.00737573826404914,,
10.7931853005451,-0.247457737501373,-0.00747719438766747,,
10.8545102170254,-0.2495576250054,-0.00757990007767928,,
10.9158351335058,-0.251622990231968,-0.00766541953488131,,
10.9771600499862,-0.253441287916074,-0.00774870855218612,,
11.0384849664666,-0.255674459402128,-0.00785174794143106,,
11.0998098829469,-0.257274940176159,-0.00792821851552628,,
11.1611347994273,-0.259170866332821,-0.00802695881854465,,
11.2224597159077,-0.26090775675454,-0.00812159649895339,,
11.283784632388,-0.262774758840899,-0.00820377607465117,,
11.3451095488684,-0.264301436583929,-0.00830489705445103,,
11.4064344653488,-0.265820276836942,-0.00839567480260239,,
11.4677593818291,-0.267563325286533,-0.00845107754284946,,
11.5290842983095,-0.268917531597448,-0.00854474446185227,,
11.5904092147899,-0.270213889767756,-0.00860053868474964,,
11.6517341312703,-0.271565110368188,-0.00868721525487759,,
11.7130590477506,-0.272894684567618,-0.00874370432336447,,
11.774383964231,-0.273889672586055,-0.00881822181796421,,
11.8357088807114,-0.275125896681168,-0.00888953811126081,,
11.8970337971917,-0.276111461050894,-0.00896813367051719,,
11.9583587136721,-0.277356502322276,-0.00900019335486979,,
12.0196836301525,-0.278220119079464,-0.00906963746545486,,
12.0810085466328,-0.279101416840919,-0.00914762196507635,,
12.1423334631132,-0.27980025970083,-0.00921463917214549,,
12.2036583795936,-0.280730914988705,-0.00923854995011197,,
12.264983296074,-0.281344618448127,-0.00928810500855537,,
12.3263082125543,-0.281870103493123,-0.0093244276644997,,
12.3876331290347,-0.282384205516903,-0.00938009620846492,,
12.4489580455151,-0.283013630608086,-0.00945633564889192,,
12.5102829619954,-0.28327805259273,-0.00948774671438857,,
12.5716078784758,-0.283717465202711,-0.00950694236552563,,
12.6329327949562,-0.283777972491716,-0.00956652862516494,,
12.6942577114365,-0.284010857909385,-0.00960017013055881,,
12.7555826279169,-0.284270381462769,-0.00962929297274151,,
12.8169075443973,-0.284187388041688,-0.00967110505330293,,
12.8782324608776,-0.284350109263008,-0.00971722777677497,,
12.939557377358,-0.284281624528806,-0.00969969484346311,,
13.0008822938384,-0.284133272039185,-0.00974747161724787,,
13.0622072103188,-0.284164621999256,-0.00973652743806275,,
13.1235321267991,-0.283804657279157,-0.00976145664875405,,
13.1848570432795,-0.283367250693408,-0.00979873706483536,,
13.2461819597599,-0.282942906591021,-0.00982209312199833,,
13.3075068762402,-0.282652546246556,-0.00984393525363503,,
13.3688317927206,-0.281875141879563,-0.00988253457620969,,
13.430156709201,-0.281571532444829,-0.00985697263710206,,
13.4914816256813,-0.280621330083636,-0.00986622809592452,,
13.5528065421617,-0.280130927136815,-0.00988904098896715,,
13.6141314586421,-0.279231481853831,-0.00987964540535868,,
13.6754563751225,-0.278221425327801,-0.0098997424778009,,
13.7367812916028,-0.277685257037483,-0.00987753053229534,,
13.7981062080832,-0.276390018508606,-0.00985760681010373,,
13.8594311245636,-0.275509607129951,-0.00985765303683728,,
13.9207560410439,-0.274133754418035,-0.00986744299226761,,
13.9820809575243,-0.272970213712491,-0.00984090740258248,,
14.0434058740047,-0.271877303720559,-0.00981072134552718,,
14.104730790485,-0.27050980166765,-0.00980176491588747,,
14.1660557069654,-0.26922580620481,-0.00979053326420276,,
14.2273806234458,-0.267563511893438,-0.00976702552557018,,
14.2887055399262,-0.26615052440739,-0.00976200992497223,,
14.3500304564065,-0.26461288350868,-0.00973010047750345,,
14.4113553728869,-0.262950215983497,-0.00967836120589638,,
14.4726802893673,-0.261621014997877,-0.00968677591600109,,
14.5340052058476,-0.259530457839109,-0.00962271577529794,,
14.595330122328,-0.257954189311026,-0.00958120561309039,,
14.6566550388084,-0.255934542776227,-0.0095491589300063,,
14.7179799552887,-0.253955389939854,-0.0095197356140555,,
14.7793048717691,-0.252134899624612,-0.00948102072464652,,
14.8406297882495,-0.249841640715089,-0.00940647000458172,,
14.9019547047299,-0.24788875280062,-0.00936694325816356,,
14.9632796212102,-0.245663325501131,-0.00934422426317338,,
15.0246045376906,-0.243543844272059,-0.00930861812160044,,
15.085929454171,-0.241328633700629,-0.00923547587232632,,
15.1472543706513,-0.238765401251031,-0.00917355516263862,,
15.2085792871317,-0.23643710689506,-0.00910695399617145,,
15.2699042036121,-0.234092577738337,-0.00904800335411915,,
15.3312291200924,-0.231640003183514,-0.00901339108731936,,
15.3925540365728,-0.229060582584892,-0.0089467075794829,,
15.4538789530532,-0.226343399438518,-0.00887777340755358,,
15.5152038695335,-0.223727310583028,-0.00880701183506094,,
15.5765287860139,-0.220909173100951,-0.0087474833588379,,
15.6378537024943,-0.218208971182949,-0.0086427220237657,,
15.6991786189747,-0.215391206914682,-0.00857388897281597,,
15.760503535455,-0.212419258691007,-0.00852051009675048,,
15.8218284519354,-0.209431168970033,-0.00842118040287865,,
15.8831533684158,-0.206528311953003,-0.00832406959222087,,
15.9444782848961,-0.20350028835432,-0.00826796189428647,,
16.0058032013765,-0.200364079402358,-0.0081702140214559,,
16.0671281178569,-0.197372957319175,-0.00812745573744023,,
16.1284530343372,-0.194018931457138,-0.00801732054458393,,
16.1897779508176,-0.19100243083485,-0.00794477924284687,,
16.251102867298,-0.187702987492579,-0.00785738615834752,,
16.3124277837784,-0.18439822585351,-0.00772419682668257,,
16.3737527002587,-0.180956867959846,-0.00764097714947853,,
16.4350776167391,-0.177555164033534,-0.00756532709990498,,
16.4964025332195,-0.17420034509215,-0.0074566480491578,,
16.5577274496998,-0.170833070139844,-0.00736679483567881,,
16.6190523661802,-0.16731249761493,-0.00726554673236146,,
16.6803772826606,-0.163717655541754,-0.00714297654816098,,
16.7417021991409,-0.160244387867304,-0.00705148228563823,,
16.8030271156213,-0.156460746257808,-0.00692568778676739,,
16.8643520321017,-0.153007072308403,-0.00682171375075225,,
16.9256769485821,-0.149131573449831,-0.00672783736686222,,
16.9870018650624,-0.145457843307488,-0.00659829850256832,,
17.0483267815428,-0.141542877088469,-0.00647028656506876,,
17.1096516980232,-0.137908287744489,-0.00636520164286125,,
17.1709766145035,-0.134064558711524,-0.00624787530375581,,
17.2323015309839,-0.130191159180635,-0.00612371174183046,,
17.2936264474643,-0.126221050621135,-0.00600230878265418,,
17.3549513639446,-0.122399574461613,-0.00587820155956065,,
17.416276280425,-0.118543576024633,-0.00574943699305441,,
17.4776011969054,-0.114411865885244,-0.00564756482883322,,
17.5389261133857,-0.110472780723731,-0.00552999868854753,,
17.6002510298661,-0.106369294878751,-0.00539227769240203,,
17.6615759463465,-0.102333873902437,-0.00527859459774049,,
17.7229008628269,-0.0981972186800603,-0.00516892022763527,,
17.7842257793072,-0.0941267622572979,-0.00499654218254175,,
17.8455506957876,-0.0899758782584015,-0.0048850086309935,,
17.906875612268,-0.085841229060256,-0.00472849646763018,,
17.9682005287483,-0.0817211352007149,-0.00461773721387049,,
18.0295254452287,-0.0774153674705163,-0.00448581911738,,
18.0908503617091,-0.073290981652156,-0.0043199792659232,,
18.1521752781894,-0.0690281801618759,-0.00420845727105812,,
18.2135001946698,-0.0648342832713348,-0.0040661121569654,,
18.2748251111502,-0.060572788029391,-0.00390871157356543,,
18.3361500276306,-0.0562993499455154,-0.00379762873266998,,
18.3974749441109,-0.0520071112159427,-0.00364431632602491,,
18.4587998605913,-0.0476929928267373,-0.00349692383045452,,
18.5201247770717,-0.0433581144193302,-0.00335065088858855,,
18.581449693552,-0.0390448824129243,-0.00322274007206946,,
18.6427746100324,-0.0347300175960981,-0.00308360049303591,,
18.7040995265128,-0.0304296148144236,-0.00295252458984852,,
18.7654244429931,-0.0260380079078408,-0.00280321079566193,,
18.8267493594735,-0.0217272017912024,-0.00264856070291275,,
18.8880742759539,-0.0173600403891986,-0.00249085675657312,,
18.9493991924343,-0.0130176977055841,-0.00233345472858781,,
19.0107241089146,-0.00863710060640713,-0.00220505997595088,,
19.072049025395,-0.00425071869316945,-0.00204606312565581,,
19.1333739418754,7.16570515903719E-05,-0.00191069969292501,,
19.1946988583557,0.00448528357298481,-0.00175712292714714,,
19.2560237748361,0.00883133506883975,-0.00161283773482701,,
19.3173486913165,0.0132556215096928,-0.00146813794649026,,
19.3786736077968,0.017587514206617,-0.00134501159690048,,
19.4399985242772,0.0219621632106912,-0.00115980563322671,,
19.5013234407576,0.0262673244684479,-0.00101493971756561,,
19.562648357238,0.0306218199267624,-0.000897375021865265,,
19.6239732737183,0.0349360082935573,-0.000709047309086497,,
19.6852981901987,0.039245111622186,-0.000580513876248467,,
19.7466231066791,0.0435016151294161,-0.000418061577614814,,
19.8079480231594,0.0479115095127069,-0.000288430259853367,,
19.8692729396398,0.0521512183984705,-0.000120500093285347,,
19.9305978561202,0.0564609048736779,3.71085104156066E-05,,
19.9919227726005,0.0607649931417297,0.000176496558142336,,
20.0532476890809,0.0650362385944693,0.000324640238134499,,
20.1145726055613,0.0692749911198439,0.00049395720671086,,
20.1758975220416,0.0735012876342975,0.000647869116307653,,
20.237222438522,0.0777156179809562,0.000793610450736448,,
20.2985473550024,0.0819504750871851,0.000952075693595233,,
20.3598722714828,0.0860250368618615,0.00108942687587188,,
20.4211971879631,0.0901552074942826,0.00124273783793116,,
20.4825221044435,0.0943857726416922,0.00139154169346289,,
20.5438470209239,0.0984857129554736,0.00156179475339524,,
20.6051719374042,0.102511943541708,0.00170351436199923,,
20.6664968538846,0.106572673079537,0.00184203276929962,,
20.727821770365,0.110613295723334,0.00198593659106683,,
20.7891466868453,0.114498101601302,0.00213092385190361,,
20.8504716033257,0.118633823789152,0.00228923019036564,,
