Time domain (s),Current (AC) (A),Potential (AC) (V),Frequency (Hz),Column 5
0,-0.424087463943569,-0.0100527965132371,6.3096,0.5
0.000386935186065678,-0.426518517003667,-0.0101178222385947,,
0.000773870372131355,-0.429217130758076,-0.0102196666184997,,
0.00116080555819703,-0.431782816269451,-0.0103185980697842,,
0.00154774074426271,-0.43416473132518,-0.0103841665242004,,
0.00193467593032839,-0.436389788213781,-0.010476566146461,,
0.00232161111639407,-0.43856982560127,-0.0105601973023655,,
0.00270854630245974,-0.440534777706627,-0.0106179301059952,,
0.00309548148852542,-0.442854844204833,-0.0106651984149599,,
0.0034824166745911,-0.444350286938962,-0.0107657707736331,,
0.00386935186065678,-0.446260633371834,-0.0108397875690622,,
0.00425628704672246,-0.447907466604974,-0.0108745561493917,,
0.00464322223278813,-0.449622681193906,-0.0109772337032035,,
0.00503015741885381,-0.451323836064824,-0.0110304720318148,,
0.00541709260491949,-0.452669024438772,-0.0110919360977237,,
0.00580402779098517,-0.453500962096562,-0.0111432918349128,,
0.00619096297705084,-0.454952947520469,-0.0111839286731903,,
0.00657789816311652,-0.455832603009092,-0.0112501416183637,,
0.0069648333491822,-0.456799457152867,-0.011287672604801,,
0.00735176853524788,-0.457517780927723,-0.0113234609221511,,
0.00773870372131355,-0.45848839853137,-0.0113224581454134,,
0.00812563890737923,-0.459079971818076,-0.0114021227151109,,
0.00851257409344491,-0.459260049822528,-0.0114323120190063,,
0.00889950927951059,-0.45984856973613,-0.011470218251707,,
0.00928644446557626,-0.460214690473888,-0.0115123157943655,,
0.00967337965164194,-0.460286267220137,-0.011531088707708,,
0.0100603148377076,-0.460175777718983,-0.011571931189418,,
0.0104472500237733,-0.460320635419725,-0.0116115143701085,,
0.010834185209839,-0.459772448434564,-0.0116008463520467,,
0.0112211203959047,-0.459813633467128,-0.0116017282867671,,
0.0116080555819703,-0.459467182132854,-0.0116186037684392,,
0.011994990768036,-0.459106174019828,-0.0116354453295453,,
0.0123819259541017,-0.458552022305814,-0.0116396345194678,,
0.0127688611401674,-0.457808348433328,-0.011662904027864,,
0.013155796326233,-0.456856335103012,-0.0116683652390179,,
0.0135427315122987,-0.456405856057175,-0.0116480977007285,,
0.0139296666983644,-0.455096385047675,-0.0116540337998092,,
0.0143166018844301,-0.453605202834155,-0.0116421107207985,,
0.0147035370704958,-0.452826592692668,-0.011640838699567,,
0.0150904722565614,-0.451276118233992,-0.0116318158289643,,
0.0154774074426271,-0.449924965131189,-0.0116302385226374,,
0.0158643426286928,-0.448255977190877,-0.011608938527115,,
0.0162512778147585,-0.446405207037869,-0.0116194348223106,,
0.0166382130008241,-0.444909764303739,-0.0115591070953687,,
0.0170251481868898,-0.443313773283213,-0.0115219831557254,,
0.0174120833729555,-0.441163346513964,-0.0115105498048891,,
0.0177990185590212,-0.439125681523528,-0.0114918256523606,,
0.0181859537450869,-0.436974331641481,-0.0114510361715352,,
0.0185728889311525,-0.434818579221469,-0.0114330434312144,,
0.0189598241172182,-0.432211921703561,-0.0113956968878561,,
0.0193467593032839,-0.429771211463414,-0.01137849704077,,
0.0197336944893496,-0.427391355659313,-0.0113032082241094,,
0.0201206296754152,-0.424338834659562,-0.011260232986801,,
0.0205075648614809,-0.422019762282832,-0.0112180018819132,,
0.0208945000475466,-0.418793838094252,-0.0111596224674906,,
0.0212814352336123,-0.415806148016451,-0.0111235839859649,,
0.021668370419678,-0.412818954999387,-0.0110442946625313,,
0.0220553056057436,-0.409537217990815,-0.0109916838643938,,
0.0224422407918093,-0.406503727316456,-0.0109326133184355,,
0.022829175977875,-0.403181657379442,-0.0109094264914194,,
0.0232161111639407,-0.399771820717861,-0.010824760758247,,
0.0236030463500063,-0.396257956344718,-0.0107469469794417,,
0.023989981536072,-0.392627495724213,-0.0106498832793318,,
0.0243769167221377,-0.388632831600225,-0.0105732397600597,,
0.0247638519082034,-0.385021046261727,-0.0104976986591878,,
0.0251507870942691,-0.381010476194128,-0.0104328594969445,,
0.0255377222803347,-0.376845675280445,-0.0103489400162275,,
0.0259246574664004,-0.372860952371214,-0.0102447339169029,,
0.0263115926524661,-0.368624574711282,-0.0102037260724326,,
0.0266985278385318,-0.364332526248712,-0.0101075443070435,,
0.0270854630245974,-0.360012855410854,-0.0100053077205922,,
0.0274723982106631,-0.355881073531899,-0.0099421306660914,,
0.0278593333967288,-0.351124912357541,-0.00980821227083295,,
0.0282462685827945,-0.346443452311212,-0.00972851802064012,,
0.0286332037688602,-0.341915655041552,-0.00964054291222993,,
0.0290201389549258,-0.336986800765133,-0.00950611570847881,,
0.0294070741409915,-0.332189525566887,-0.0094435492241689,,
0.0297940093270572,-0.327146134294734,-0.00930708678644709,,
0.0301809445131229,-0.322222960712461,-0.00921187387722933,,
0.0305678796991885,-0.317144420145275,-0.00909642099018226,,
0.0309548148852542,-0.311896949935901,-0.00897140674354446,,
0.0313417500713199,-0.306875145301505,-0.00885138094016957,,
0.0317286852573856,-0.301509942705939,-0.00873384617837347,,
0.0321156204434513,-0.296171297355509,-0.00866234162487656,,
0.0325025556295169,-0.290705688490899,-0.00850693243091083,,
0.0328894908155826,-0.285208409756422,-0.00840858186932181,,
0.0332764260016483,-0.27959503183532,-0.00825307303369271,,
0.033663361187714,-0.273850997948843,-0.00813428533098337,,
0.0340502963737796,-0.268185641676299,-0.00800346642745886,,
0.0344372315598453,-0.262464614601117,-0.00786766756081292,,
0.034824166745911,-0.256761197677789,-0.00775486471799791,,
0.0352111019319767,-0.250684772175051,-0.00760395211908582,,
0.0355980371180424,-0.244634335848035,-0.00745587188744912,,
0.035984972304108,-0.238924386126438,-0.00732230965813496,,
0.0363719074901737,-0.232617324441343,-0.00720611475870259,,
0.0367588426762394,-0.226588474752084,-0.00702284405969467,,
0.0371457778623051,-0.220409015659259,-0.00688636042161939,,
0.0375327130483707,-0.214245746544753,-0.00675290207403911,,
0.0379196482344364,-0.207936483590676,-0.00662195172832059,,
0.0383065834205021,-0.201605065929426,-0.00647361921247303,,
0.0386935186065678,-0.195295518940641,-0.00629616165049329,,
0.0390804537926334,-0.188785727483184,-0.00614034752976877,,
0.0394673889786991,-0.182385289388051,-0.00601599473417158,,
0.0398543241647648,-0.175845390251616,-0.00587666600860759,,
0.0402412593508305,-0.16931202391345,-0.00571589948522178,,
0.0406281945368962,-0.162782918095894,-0.00555096073219596,,
0.0410151297229618,-0.156039934143713,-0.00535186396903198,,
0.0414020649090275,-0.149430162469273,-0.00521114450025539,,
0.0417890000950932,-0.142696054601696,-0.00504547645505671,,
0.0421759352811589,-0.135920619684202,-0.00492098797719454,,
0.0425628704672245,-0.129169682760215,-0.00470384547282565,,
0.0429498056532902,-0.122305700022709,-0.00458839470581385,,
0.0433367408393559,-0.115472890094332,-0.00441258653136423,,
0.0437236760254216,-0.108695324916533,-0.00424435748341967,,
0.0441106112114873,-0.101846893079253,-0.00408226805795264,,
0.0444975463975529,-0.0948668111551223,-0.003899130921174,,
0.0448844815836186,-0.0879412638948004,-0.00373275266412154,,
0.0452714167696843,-0.0809644483698041,-0.00354321726054785,,
0.04565835195575,-0.0739967929641195,-0.00338650636485527,,
0.0460452871418156,-0.0669791474499435,-0.00323347585059208,,
0.0464322223278813,-0.0599612179010602,-0.00304828227948928,,
0.046819157513947,-0.0530472450550623,-0.00287686681835941,,
0.0472060927000127,-0.0460397537816736,-0.00271494699572328,,
0.0475930278860784,-0.038885274547238,-0.00251897304468285,,
0.047979963072144,-0.0318847421241791,-0.00234948681575453,,
0.0483668982582097,-0.0247911883344673,-0.00218531127546751,,
0.0487538334442754,-0.0177755310632427,-0.00198604702950833,,
0.0491407686303411,-0.0106480351260042,-0.00184233831083747,,
0.0495277038164067,-0.00358657725822149,-0.00165141852415696,,
0.0499146390024724,0.00353385331567206,-0.00147906812742216,,
0.0503015741885381,0.0105538066118451,-0.00130593543762947,,
0.0506885093746038,0.0176944746586364,-0.00110629806544216,,
0.0510754445606695,0.0247544058398672,-0.000950263461037437,,
0.0514623797467351,0.0318316986425839,-0.00074860569512758,,
0.0518493149328008,0.0388774635927863,-0.000571574260260554,,
0.0522362501188665,0.045932885723038,-0.000388674567445069,,
0.0526231853049322,0.0529065058575768,-0.000209981024835493,,
0.0530101204909978,0.0598925880148999,-5.14023779674133E-05,,
0.0533970556770635,0.0668253426559205,0.00014562523065953,,
0.0537839908631292,0.0740020476062052,0.000315109339553032,,
0.0541709260491949,0.0809248255281306,0.000475549377489504,,
0.0545578612352606,0.0878385143394212,0.000666000636349917,,
0.0549447964213262,0.0947831629338115,0.000875629735310746,,
0.0553317316073919,0.101739172916495,0.00104967616035445,,
0.0557186667934576,0.108555721857877,0.0012301335724052,,
0.0561056019795233,0.115420272664798,0.00140439624105859,,
0.0564925371655889,0.122299593276501,0.00158787682356953,,
0.0568794723516546,0.129016765574653,0.00174711692147778,,
0.0572664075377203,0.135882701050772,0.00193061022420116,,
0.057653342723786,0.142619116700346,0.00210528417971911,,
0.0580402779098517,0.149266984529908,0.00228709841441699,,
0.0584272130959173,0.155863442077441,0.00245670124529163,,
0.058814148281983,0.16268677234746,0.00263832891687565,,
0.0592010834680487,0.169137200551084,0.00281549603400721,,
0.0595880186541144,0.175737315045475,0.0029935959667089,,
0.05997495384018,0.182343678303427,0.00315310742914665,,
0.0603618890262457,0.188512912146787,0.00330669975278663,,
0.0607488242123114,0.195151655361375,0.00349397519863892,,
0.0611357593983771,0.201356109508445,0.00367592511560133,,
0.0615226945844428,0.207740925694674,0.00384786846554208,,
0.0619096297705084,0.214153577282222,0.00400337730117117,,
0.0622965649565741,0.220312301841411,0.0041772880439499,,
0.0626835001426398,0.226423592604475,0.00432674205851713,,
0.0630704353287055,0.232482052911974,0.00452388838912565,,
0.0634573705147711,0.238723183040628,0.00471143519950701,,
0.0638443057008368,0.244727889779764,0.00484920357902663,,
0.0642312408869025,0.250709980255327,0.00500043842331754,,
0.0646181760729682,0.256648293881623,0.00514677174579647,,
0.0650051112590339,0.26235820809888,0.00532751748265969,,
0.0653920464450995,0.268073305949547,0.00549644190221077,,
0.0657789816311652,0.273930385649544,0.00562769753302517,,
0.0661659168172309,0.279486956629178,0.00575491237639314,,
0.0665528520032966,0.285212244224971,0.00595341976971975,,
0.0669397871893622,0.29052937394632,0.00610497261931897,,
0.0673267223754279,0.295883144144916,0.00625372278213776,,
0.0677136575614936,0.301173858638482,0.00641218270702382,,
0.0681005927475593,0.306455768056122,0.00654216207653535,,
0.068487527933625,0.311816355087694,0.00670313212331886,,
0.0688744631196906,0.316972437129983,0.00684066305887532,,
0.0692613983057563,0.322137892317614,0.00699643901896296,,
0.069648333491822,0.327169283123382,0.00713173119715149,,
0.0700352686778877,0.331963220913816,0.00730518825235826,,
0.0704222038639533,0.336792947077375,0.00740036936104493,,
0.070809139050019,0.341473555019582,0.00756814048134613,,
0.0711960742360847,0.34614336964291,0.00770093949792106,,
0.0715830094221504,0.350620608734664,0.00785424349674901,,
0.0719699446082161,0.354941344702675,0.0079675890686226,,
0.0723568797942817,0.359567133946365,0.00808061239511737,,
0.0727438149803474,0.364015401497971,0.00818820419095356,,
0.0731307501664131,0.368462248876039,0.00833360893793333,,
0.0735176853524788,0.372361761373069,0.00847290374293097,,
0.0739046205385444,0.376474015865895,0.00860290431279642,,
0.0742915557246101,0.380503616258885,0.00872355976668082,,
0.0746784909106758,0.384572697476195,0.00885418786702052,,
0.0750654260967415,0.388210045938353,0.00896328912805133,,
0.0754523612828071,0.391808197610899,0.00907200454264201,,
0.0758392964688728,0.395345565856074,0.00919436026490583,,
0.0762262316549385,0.399091699611142,0.00928716269388996,,
0.0766131668410042,0.40252965570875,0.00939177371997335,,
0.0770001020270699,0.405971304257552,0.00949355661885232,,
0.0773870372131355,0.409062453977501,0.00957851067683713,,
0.0777739723992012,0.412417471940566,0.00969984454204509,,
0.0781609075852669,0.415224870987885,0.00979787497829054,,
0.0785478427713326,0.418345844352105,0.00988647549713972,,
0.0789347779573983,0.421260608518797,0.00999871865061275,,
0.0793217131434639,0.424070563878483,0.0100809590633038,,
0.0797086483295296,0.426725152253254,0.0101632503568441,,
0.0800955835155953,0.429312992471802,0.0102574604893246,,
0.080482518701661,0.431613957635939,0.0103348205805571,,
0.0808694538877266,0.434001269351107,0.0104204827303613,,
0.0812563890737923,0.436300814341708,0.0104847155624843,,
0.081643324259858,0.438583885319283,0.0105962972649167,,
0.0820302594459237,0.440727779290263,0.0106421748306684,,
0.0824171946319893,0.442500439898753,0.0107004503633572,,
0.082804129818055,0.44436626389125,0.0107704284913761,,
0.0831910650041207,0.446024174477976,0.0108411528718508,,
0.0835780001901864,0.447653965628676,0.0108980715818925,,
0.0839649353762521,0.449072718991824,0.0109611977555439,,
0.0843518705623177,0.450810159296605,0.0110365692535845,,
0.0847388057483834,0.452082918820182,0.0111185552620294,,
0.0851257409344491,0.453607049059753,0.0111542566579286,,
0.0855126761205148,0.454279075177312,0.0112138211721318,,
0.0858996113065805,0.455440777130321,0.0112644772976433,,
0.0862865464926461,0.456219600297839,0.0112901594063084,,
0.0866734816787118,0.457025406762554,0.0113426642026768,,
0.0870604168647775,0.457869273878052,0.0113813209279039,,
0.0874473520508432,0.458301006633205,0.0114134267437884,,
0.0878342872369088,0.458870212186708,0.0114667625940279,,
0.0882212224229745,0.45916759652529,0.0114680388553299,,
0.0886081576090402,0.459593364551588,0.0115148492366517,,
0.0889950927951059,0.459683119519107,0.011552178819727,,
0.0893820279811716,0.459744186981184,0.0115770044340962,,
0.0897689631672372,0.459634833618859,0.0116039543239221,,
0.0901558983533029,0.459253090972198,0.0115949484136029,,
0.0905428335393686,0.459313874399568,0.0116390663499844,,
0.0909297687254343,0.45884436502834,0.0116781131617225,,
0.0913167039114999,0.458088548672116,0.011674496381354,,
0.0917036390975656,0.457980615483328,0.0116684033996548,,
0.0920905742836313,0.456931107239718,0.0116888999017659,,
0.092477509469697,0.456316740167748,0.0116770913046662,,
0.0928644446557627,0.455470884809298,0.0116764001731307,,
0.0932513798418283,0.45422709682587,0.0116727452321252,,
0.093638315027894,0.453090389927107,0.0116846598309941,,
0.0940252502139597,0.452015318559836,0.0116443197976706,,
0.0944121854000254,0.450504253916803,0.0116422676034169,,
0.094799120586091,0.449593922679788,0.0116344531529844,,
0.0951860557721567,0.447269098600234,0.0116199690712278,,
0.0955729909582224,0.446035819900977,0.0116159494841361,,
0.0959599261442881,0.444102395648134,0.0115788743053069,,
0.0963468613303538,0.442378020939891,0.0115588950918295,,
0.0967337965164194,0.44028326497328,0.0115053302777688,,
0.0971207317024851,0.438132554169324,0.011504316900854,,
0.0975076668885508,0.435864537031238,0.0114765020365906,,
0.0978946020746165,0.433883963016977,0.0114339953271028,,
0.0982815372606821,0.431438140152098,0.0114049974830941,,
0.0986684724467478,0.428961357504119,0.0113425285204118,,
0.0990554076328135,0.426276377415662,0.0112802376407024,,
0.0994423428188792,0.423506754984419,0.0112706720410412,,
0.0998292780049448,0.420810413507668,0.0112061381638933,,
0.100216213191011,0.417976599232567,0.0111597687499319,,
0.100603148377076,0.414621013200087,0.0110892987737037,,
0.100990083563142,0.411908481745018,0.0110544284316756,,
0.101377018749208,0.408929525734468,0.0109846877476198,,
0.101763953935273,0.405427661827709,0.0109290580190931,,
0.102150889121339,0.40202293779086,0.0108531777125598,,
0.102537824307405,0.398371387593336,0.0107971451773095,,
0.10292475949347,0.395232520042554,0.0107317463257242,,
0.103311694679536,0.391519902382952,0.010641886505856,,
0.103698629865602,0.387821770493424,0.0105787603322045,,
0.104085565051667,0.383862610707853,0.0104768756716269,,
0.104472500237733,0.380076712093758,0.0104275254879131,,
0.104859435423799,0.375814771310165,0.0103253397823111,,
0.105246370609864,0.371649686361775,0.0102166752485697,,
0.10563330579593,0.367830555686922,0.0101572421765606,,
0.106020240981996,0.36365496145436,0.0100926786189173,,
0.106407176168061,0.35871332561611,0.0100063507780019,,
0.106794111354127,0.354575507999625,0.00989928051087086,,
0.107181046540193,0.350325496673741,0.00979831594565095,,
0.107567981726258,0.345407719750907,0.00968809530593617,,
0.107954916912324,0.340904065431371,0.00961608194394703,,
0.10834185209839,0.336166934582404,0.00949880158639704,,
0.108728787284455,0.331214505425276,0.00940266222171537,,
0.109115722470521,0.326268040997002,0.00927995881364829,,
0.109502657656587,0.321236650191233,0.00918280607205269,,
0.109889592842652,0.316291037867081,0.00908020059944414,,
0.110276528028718,0.310906307885386,0.00897318121316237,,
0.110663463214784,0.305828335387614,0.00883565027760591,,
0.11105039840085,0.300506093041533,0.00871038162672155,,
0.111437333586915,0.29526082410114,0.00855282483690978,,
0.111824268772981,0.289857631863468,0.00845195779331798,,
0.112211203959047,0.284334576979299,0.00834714324383734,,
0.112598139145112,0.278845038190597,0.00821902102532368,,
0.112985074331178,0.273031380296484,0.00808052759370215,,
0.113372009517244,0.267391622651938,0.00796787739343507,,
0.113758944703309,0.261605267594068,0.00784743818315992,,
0.114145879889375,0.255825480838806,0.00770078685537356,,
0.114532815075441,0.249939145563953,0.00756953122455961,,
0.114919750261506,0.243934332311802,0.00742314702123137,,
0.115306685447572,0.237804863327469,0.00727781859552579,,
0.115693620633638,0.231674542239014,0.00713282089534006,,
0.116080555819703,0.225664367831763,0.00697882152490559,,
0.116467491005769,0.219594581640309,0.0068399507269854,,
0.116854426191835,0.213292419553915,0.00670759267777088,,
0.1172413613779,0.206984505764697,0.00656044526170385,,
0.117628296563966,0.200790596406137,0.00639647324481407,,
0.118015231750032,0.194183949113478,0.00623323052009717,,
0.118402166936097,0.187873550020571,0.0061081314720437,,
0.118789102122163,0.181417760661846,0.00593803679295979,,
0.119176037308229,0.174742057430966,0.00580852807130361,,
0.119562972494294,0.168258965235998,0.00563170015983339,,
0.11994990768036,0.161697195427098,0.0054797360233696,,
0.120336842866426,0.155070665704925,0.00533308469558325,,
0.120723778052491,0.148355517154063,0.00515844042056068,,
0.121110713238557,0.14171620587006,0.00500501769975115,,
0.121497648424623,0.134897668685727,0.00484289011364725,,
0.121884583610688,0.128049023822417,0.00465923144816394,,
0.122271518796754,0.12136852750585,0.00451752828296792,,
0.12265845398282,0.114580950104617,0.00432879425277033,,
0.123045389168886,0.107703333701158,0.00418531025785063,,
0.123432324354951,0.100795325584014,0.00400015908745521,,
0.123819259541017,0.0938870334321632,0.00385656909076593,,
0.124206194727083,0.0869088687423071,0.00369139289377696,,
0.124593129913148,0.0799971681739678,0.0035082218364324,,
0.124980065099214,0.0729684453062057,0.00334357140821906,,
0.12536700028528,0.0659826116792515,0.00316470826277859,,
0.125753935471345,0.0590146367345211,0.00296189719761841,,
0.126140870657411,0.0520416201737355,0.00281472010105599,,
0.126527805843477,0.0449961747625789,0.00263010317957812,,
0.126914741029542,0.0379040766507423,0.00247983507142324,,
0.127301676215608,0.0308821706159562,0.00228407948402731,,
0.127688611401674,0.0238395300475346,0.00212602660593531,,
0.128075546587739,0.0167869482643562,0.00193841195442168,,
0.128462481773805,0.00968892092800388,0.00175432504178996,,
0.128849416959871,0.00258748517516349,0.00158331450741889,,
0.129236352145936,-0.00448036347353429,0.00139637826722883,,
0.129623287332002,-0.0115549579465313,0.00122027964793148,,
0.130010222518068,-0.0186949514108927,0.00105776621538745,,
