Time domain (s),Current (AC) (A),Potential (AC) (V),Frequency (Hz),Column 5
0,-0.250303836609334,-0.00570918644548923,0.0050119,0.4
0.48712189987829,-0.254657517455428,-0.00596876307293215,,
0.974243799756579,-0.258623409121921,-0.00625231471478926,,
1.46136569963487,-0.262874866728186,-0.00652745891221196,,
1.94848759951316,-0.266685920251997,-0.00679478988939053,,
2.43560949939145,-0.271063422350811,-0.00707685137151204,,
2.92273139926974,-0.274727963606676,-0.00733894471317509,,
3.40985329914803,-0.278770349247318,-0.00761074984896748,,
3.89697519902632,-0.282547174174987,-0.00788134813934471,,
4.38409709890461,-0.2865137018458,-0.0081280431637385,,
4.8712189987829,-0.289960151438411,-0.00840170456023914,,
5.35834089866119,-0.293618448288223,-0.00866797586827239,,
5.84546279853948,-0.297071836109781,-0.00894672772401783,,
6.33258469841777,-0.300621202765116,-0.00919255624812099,,
6.81970659829605,-0.303959878534739,-0.00944319743625988,,
7.30682849817434,-0.307410953613314,-0.00970271519319477,,
7.79395039805263,-0.310683484933636,-0.00993954940748587,,
8.28107229793092,-0.313764983683598,-0.010203524765704,,
8.76819419780921,-0.317005136602164,-0.0104611549869738,,
9.2553160976875,-0.320116007188005,-0.0107055577409594,,
9.74243799756579,-0.323163739890422,-0.0109279263675943,,
10.2295598974441,-0.325883352182189,-0.0111717238591691,,
10.7166817973224,-0.328654654279615,-0.0114109736039949,,
11.2038036972007,-0.33123058741359,-0.0116420863407822,,
11.690925597079,-0.334072717264858,-0.0118624515304386,,
12.1780474969572,-0.336409975323032,-0.0121089865006394,,
12.6651693968355,-0.339114496966838,-0.0123133996223102,,
13.1522912967138,-0.341487891634115,-0.0125734453741142,,
13.6394131965921,-0.34381907874196,-0.0127815526201673,,
14.1265350964704,-0.346244221033472,-0.0129833036910512,,
14.6136569963487,-0.348175823972506,-0.0132123817159031,,
15.100778896227,-0.350546848078226,-0.0134323200943762,,
15.5879007961053,-0.352369058274185,-0.0136479940404208,,
16.0750226959836,-0.354516902682088,-0.0138145810209487,,
16.5621445958618,-0.356162245858456,-0.0140110797386903,,
17.0492664957401,-0.358114143117161,-0.014209515664088,,
17.5363883956184,-0.359712479792408,-0.0144175327646754,,
18.0235102954967,-0.361283294826163,-0.0146055688468807,,
18.510632195375,-0.362675103553067,-0.0147852692330832,,
18.9977540952533,-0.364225335174277,-0.0149677236552415,,
19.4848759951316,-0.365899298545053,-0.0151639537762898,,
19.9719978950099,-0.367037168092473,-0.0153432144733849,,
20.4591197948882,-0.368071195479975,-0.0155054027231376,,
20.9462416947665,-0.369145869325396,-0.0156615714634394,,
21.4333635946447,-0.370044890341292,-0.0158551671292515,,
21.920485494523,-0.371173046368184,-0.0159970450537177,,
22.4076073944013,-0.371477229888965,-0.0161669894929095,,
22.8947292942796,-0.372526694835876,-0.0163281180735169,,
23.3818511941579,-0.373070247255352,-0.0164450790554391,,
23.8689730940362,-0.373683528875753,-0.0166039558391127,,
24.3560949939145,-0.374099591338315,-0.0167306598901216,,
24.8432168937928,-0.374662050431674,-0.0169074038729966,,
25.3303387936711,-0.374714087148781,-0.0170278382148954,,
25.8174606935494,-0.375171316436433,-0.0171318918379217,,
26.3045825934276,-0.375026596544299,-0.0172875160260242,,
26.7917044933059,-0.37533875902837,-0.0174015334825426,,
27.2788263931842,-0.375394727408548,-0.0175059844814984,,
27.7659482930625,-0.374749240842116,-0.0176028706201667,,
28.2530701929408,-0.374753635053783,-0.0177327389609849,,
28.7401920928191,-0.374281835485341,-0.0178423852822789,,
29.2273139926974,-0.374074151165507,-0.017938785739255,,
29.7144358925757,-0.373705499934087,-0.0180319483182871,,
30.201557792454,-0.372774909976479,-0.018148408900891,,
30.6886796923322,-0.372119247340924,-0.0182243812915646,,
31.1758015922105,-0.37168213891722,-0.0182824276125286,,
31.6629234920888,-0.370799943106523,-0.0183888507735053,,
32.1500453919671,-0.369667913235134,-0.0184572435862642,,
32.6371672918454,-0.368666495523686,-0.0185307434155986,,
33.1242891917237,-0.367481677293721,-0.0185911445568858,,
33.611411091602,-0.366420070446151,-0.0186925637246755,,
34.0985329914803,-0.365239472972129,-0.0187517285852934,,
34.5856548913586,-0.363648999623023,-0.0188027104452884,,
35.0727767912369,-0.362291188217962,-0.0188418298979056,,
35.5598986911151,-0.360836241607634,-0.0188622873994624,,
36.0470205909934,-0.359301274090109,-0.0189277219691903,,
36.5341424908717,-0.357236977522451,-0.0189500780446323,,
37.02126439075,-0.355606898449768,-0.0189891239091149,,
37.5083862906283,-0.353721955100408,-0.0190230038865131,,
37.9955081905066,-0.351727503370823,-0.0190425783304486,,
38.4826300903849,-0.349667543196257,-0.0190377215135324,,
38.9697519902632,-0.347530857773245,-0.0190438146111185,,
39.4568738901415,-0.345444011961507,-0.0190860247654099,,
39.9439957900197,-0.342988804011221,-0.0190657144401229,,
40.431117689898,-0.340682074160416,-0.0190837435332218,,
40.9182395897763,-0.338325562516912,-0.0190766937898794,,
41.4053614896546,-0.335674754328877,-0.0190733823238003,,
41.8924833895329,-0.333126805384991,-0.019054911701891,,
42.3796052894112,-0.330589032510228,-0.0190254175773443,,
42.8667271892895,-0.327768642442997,-0.0190058431334088,,
43.3538490891678,-0.324613598466189,-0.0189975276741428,,
43.8409709890461,-0.321976377643176,-0.0189602626425298,,
44.3280928889244,-0.31864070843943,-0.0189073674910225,,
44.8152147888026,-0.315696124074036,-0.0188596676618529,,
45.3023366886809,-0.31275824666329,-0.018856665265941,,
45.7894585885592,-0.309548390677796,-0.0187682859156899,,
46.2765804884375,-0.306364668688004,-0.0187198943580507,,
46.7637023883158,-0.302857856503549,-0.0186717088471893,,
47.2508242881941,-0.299244484686172,-0.0185927487782309,,
47.7379461880724,-0.296027632653156,-0.018527211185114,,
48.2250680879507,-0.292389861397313,-0.0184506206541055,,
48.712189987829,-0.288709651307741,-0.0184132231638494,,
49.1993118877073,-0.285124957503348,-0.0183057256161003,,
49.6864337875855,-0.281231165599336,-0.0182258089013856,,
50.1735556874638,-0.277328874364863,-0.0181256407318924,,
50.6606775873421,-0.273620390992329,-0.0180647980617943,,
51.1477994872204,-0.269136271442018,-0.0179557993160895,,
51.6349213870987,-0.265439351784397,-0.0178637111238298,,
52.122043286977,-0.261302201500045,-0.0177525783222068,,
52.6091651868553,-0.257113419228608,-0.0176283173972829,,
53.0962870867336,-0.25295580116886,-0.0175262212186502,,
53.5834089866119,-0.248656874512879,-0.0174009889303428,,
54.0705308864901,-0.244478904314885,-0.017305133025566,,
54.5576527863684,-0.240075441676091,-0.0171585013075726,,
55.0447746862467,-0.23554570327045,-0.0170237172793302,,
55.531896586125,-0.231103328730975,-0.0169055347343652,,
56.0190184860033,-0.226451072765832,-0.0167591532160309,,
56.5061403858816,-0.221710470018756,-0.0166218230383137,,
56.9932622857599,-0.217145520101206,-0.0164742641098186,,
57.4803841856382,-0.212464065755908,-0.0163345349588973,,
57.9675060855165,-0.20757723983376,-0.0161749664467536,,
58.4546279853948,-0.202856931406356,-0.0160365177293831,,
58.941749885273,-0.197905811229292,-0.0158530477909604,,
59.4288717851513,-0.193097618568551,-0.0157039582292553,,
59.9159936850296,-0.188251959471492,-0.0155480396886127,,
60.4031155849079,-0.183043893549066,-0.0153516918265479,,
60.8902374847862,-0.178041893026386,-0.0152132136739236,,
61.3773593846645,-0.172955939933439,-0.0150225909687696,,
61.8644812845428,-0.167765682131979,-0.0148420056852427,,
62.3516031844211,-0.162819649989477,-0.0146500142407757,,
62.8387250842994,-0.157591000654506,-0.0144542550837921,,
63.3258469841777,-0.152244170153127,-0.0142871952994961,,
63.8129688840559,-0.146914916498415,-0.0140884208686765,,
64.3000907839342,-0.141714713902129,-0.0138825323048968,,
64.7872126838125,-0.136291794156624,-0.0136611957518569,,
65.2743345836908,-0.131077021279548,-0.013477021207041,,
65.7614564835691,-0.125625886069655,-0.0132580357949172,,
66.2485783834474,-0.120121557771163,-0.0130610403572637,,
66.7357002833257,-0.114636251783703,-0.0128583915111316,,
67.222822183204,-0.109244727524186,-0.0126205859334569,,
67.7099440830823,-0.103645576763409,-0.0124150395545057,,
68.1970659829606,-0.0981393404519562,-0.0121870487943494,,
68.6841878828388,-0.0925344656522976,-0.0119635597883581,,
69.1713097827171,-0.087001459340822,-0.0117402381953737,,
69.6584316825954,-0.0812970787743387,-0.0115279787387981,,
70.1455535824737,-0.0756764195038241,-0.0112799131353878,,
70.632675482352,-0.0700271400389003,-0.0110353503272083,,
71.1197973822303,-0.0643428225177908,-0.0108010898579418,,
71.6069192821086,-0.0586604130096418,-0.0105509030765374,,
72.0940411819869,-0.0529613517520184,-0.0103125970995444,,
72.5811630818652,-0.0472985427406467,-0.0100529045707884,,
73.0682849817434,-0.0415491793231526,-0.0098606187737813,,
73.5554068816217,-0.0357556425146917,-0.00957079926251714,,
74.0425287815,-0.0300436877149406,-0.00931949762086592,,
74.5296506813783,-0.0243217881203644,-0.00907827387431626,,
75.0167725812566,-0.0185819647676734,-0.00880857335918739,,
75.5038944811349,-0.0127885435963616,-0.00856996935024723,,
75.9910163810132,-0.0070228753408405,-0.00830330250598799,,
76.4781382808915,-0.0012398615129502,-0.00805982880220757,,
76.9652601807698,0.00452372527388659,-0.00774194277621776,,
77.4523820806481,0.0102669599224769,-0.00748528207862798,,
77.9395039805263,0.0160557556078235,-0.00724497266465685,,
78.4266258804046,0.0218336814011522,-0.00696710386653265,,
78.9137477802829,0.0275711631015734,-0.00669922649745081,,
79.4008696801612,0.0332958668970159,-0.00644239102804045,,
79.8879915800395,0.0390682421071864,-0.00615493921502308,,
80.3751134799178,0.0447636029760377,-0.00588649153789422,,
80.8622353797961,0.0504672897196262,-0.005616862771197,,
81.3493572796744,0.0561529370679507,-0.00532008366205616,,
81.8364791795527,0.0619021559390083,-0.00502624623861614,,
82.3236010794309,0.0675091989352131,-0.00477008410064172,,
82.8107229793092,0.0732612220071371,-0.00450444749027357,,
83.2978448791875,0.0787690194201028,-0.00420666574279194,,
83.7849667790658,0.0844241385610576,-0.00393955553001879,,
84.2720886789441,0.0901569947755136,-0.00364815939296026,,
84.7592105788224,0.0956585477824264,-0.00334959945094981,,
85.2463324787007,0.101210952225668,-0.00305732209597354,,
85.733454378579,0.106753903331969,-0.00273905341168135,,
86.2205762784573,0.112267020053794,-0.00249143117678496,,
86.7076981783355,0.117812052628779,-0.00219778324279218,,
87.1948200782138,0.123139687363404,-0.00192630189479415,,
87.6819419780921,0.128676394063651,-0.00163149310797062,,
88.1690638779704,0.133871739899673,-0.00134585340278015,,
88.6561857778487,0.139330015703525,-0.0010510298983295,,
89.143307677727,0.14465582915305,-0.000758149120645424,,
89.6304295776053,0.149923130205117,-0.000492775587860095,,
90.1175514774836,0.155240762326342,-0.000193404336660485,,
90.6046733773619,0.160319806099628,0.000107630006392245,,
91.0917952772402,0.165653222691709,0.000369780378860263,,
91.5789171771185,0.170954983614216,0.000646247323011107,,
92.0660390769967,0.175829725454281,0.000975808106634002,,
92.553160976875,0.1811430500917,0.0012582982396423,,
93.0402828767533,0.185909613378756,0.00153267896016329,,
93.5274047766316,0.191052459949073,0.00180601840857264,,
94.0145266765099,0.195980452696311,0.00209573121704087,,
94.5016485763882,0.200712527203639,0.0023976044648335,,
94.9887704762665,0.205582267737004,0.00267486616084334,,
95.4758923761448,0.210301882341514,0.00292654494168687,,
95.9630142760231,0.215044855650147,0.00323689186323639,,
96.4501361759013,0.219745505762199,0.00352684383314372,,
96.9372580757796,0.224433464697135,0.00381950752582938,,
97.4243799756579,0.229114861223857,0.00410486391669984,,
97.9115018755362,0.233549112253606,0.00440209743257469,,
98.3986237754145,0.23795555254899,0.00464797746837275,,
98.8857456752928,0.242353030965316,0.00495601372248,,
99.3728675751711,0.246634149500332,0.00519311469376094,,
99.8599894750494,0.251015872355089,0.00549796090221166,,
100.347111374928,0.255283345706508,0.00575625893580733,,
100.834233274806,0.259402109684149,0.00601104681535869,,
101.321355174684,0.263531049730912,0.00629421395920993,,
101.808477074563,0.267461325155474,0.00656295782858241,,
102.295598974441,0.2716880942304,0.00683968233120646,,
102.782720874319,0.275223353153541,0.00710826062727499,,
103.269842774197,0.279146459074857,0.00735307363511373,,
103.756964674076,0.283128539942228,0.00764391234204886,,
104.244086573954,0.286680913163439,0.00789470070645804,,
104.731208473832,0.290582510575017,0.00812727968683724,,
105.218330373711,0.294005601463504,0.00840850410392191,,
105.705452273589,0.297775141250778,0.00866020496120612,,
106.192574173467,0.301136250627332,0.00892294403875482,,
106.679696073345,0.304525344193974,0.00917584806204763,,
107.166817973224,0.307757402512101,0.00941273194833014,,
107.653939873102,0.311033171672599,0.0096723803242047,,
108.14106177298,0.314129009429053,0.00990637587618437,,
108.628183672859,0.317181830166032,0.0101363829512424,,
109.115305572737,0.320181226540113,0.0103971167521095,,
109.602427472615,0.323439187579645,0.0106254349794668,,
110.089549372493,0.326135383348713,0.0108803884323221,,
110.576671272372,0.32887552123445,0.0110911595688656,,
111.06379317225,0.331385541193422,0.0113355163302669,,
111.550915072128,0.334096769791876,0.0115342079744343,,
112.038036972007,0.336700224567344,0.0117781195276185,,
112.525158871885,0.339062922798327,0.0120082590613193,,
113.012280771763,0.341804910878449,0.012225358777481,,
113.499402671641,0.343944198137317,0.0124543209010204,,
113.98652457152,0.34619680980233,0.0126336110333694,,
114.473646471398,0.348161947514611,0.0128639418962213,,
114.960768371276,0.350604897927088,0.0130709306026211,,
115.447890271155,0.352748348123325,0.0132461881051666,,
115.935012171033,0.354398721515679,0.0134728837141451,,
116.422134070911,0.356343275815415,0.0136470079594107,,
116.90925597079,0.35775497413197,0.0138497579892283,,
117.396377870668,0.35960886890679,0.0140448695706232,,
117.883499770546,0.360958585711411,0.0142614541698394,,
118.370621670424,0.36261104057245,0.0144121185176358,,
118.857743570303,0.363778513230046,0.014602652917028,,
119.344865470181,0.365432818285471,0.0147713316402962,,
119.831987370059,0.366628043858858,0.0149288985551648,,
120.319109269938,0.36776822614926,0.0151423887733002,,
120.806231169816,0.368808729217113,0.0152930126476223,,
121.293353069694,0.369815234963123,0.0154217035782791,,
121.780474969572,0.370431118419379,0.0156131504705463,,
122.267596869451,0.37136315384135,0.0157712619376147,,
122.754718769329,0.372279693885339,0.0159221433704095,,
123.241840669207,0.37255537284886,0.0160959475072873,,
123.728962569086,0.373274173367839,0.0162118524994712,,
124.216084468964,0.37378066408102,0.0163688711827334,,
124.703206368842,0.374182156262792,0.0164782525867406,,
125.19032826872,0.374365788055608,0.0166410148239473,,
125.677450168599,0.374389609308328,0.0167751659942281,,
126.164572068477,0.374523517127018,0.0168883114313458,,
126.651693968355,0.37471293077729,0.0169996061268658,,
127.138815868234,0.374625046543953,0.0171171153403948,,
127.625937768112,0.374727038509483,0.0172592912968077,,
128.11305966799,0.37425547021534,0.0173597795746887,,
128.600181567868,0.373875023994708,0.0174630384458565,,
129.087303467747,0.373233469091346,0.0175615582411237,,
129.574425367625,0.37266545941483,0.0176721023376656,,
130.061547267503,0.372294264166129,0.0177639403302661,,
130.548669167382,0.371667048269259,0.0178276529376324,,
131.03579106726,0.371152462955639,0.0179190604396426,,
131.522912967138,0.369953768267779,0.0180040694533061,,
132.010034867016,0.36907839504888,0.0181048447249141,,
132.497156766895,0.367673866235571,0.0181536079026356,,
132.984278666773,0.366990219409927,0.0182111354272476,,
133.471400566651,0.365658773274867,0.0183022522561238,,
133.95852246653,0.364552819580607,0.0183327361410877,,
134.445644366408,0.36296650916887,0.0183808738196611,,
134.932766266286,0.361484272191347,0.0184638518007958,,
135.419888166165,0.360141031067076,0.0184802030844144,,
135.907010066043,0.358384965320419,0.0185239144366616,,
136.394131965921,0.356675154433413,0.0185817731078815,,
136.881253865799,0.354918857412457,0.0185994452985248,,
137.368375765678,0.352904920823244,0.0186424796399294,,
137.855497665556,0.35130357758212,0.0186622454130161,,
138.342619565434,0.349232747515536,0.0186829825494863,,
138.829741465313,0.346974585267365,0.0187117113574282,,
139.316863365191,0.344535797792256,0.018707870056776,,
139.803985265069,0.342209409626099,0.0187201298400832,,
140.291107164947,0.340141123576796,0.0187222491783738,,
140.778229064826,0.337839944309149,0.0187112256757365,,
141.265350964704,0.334959191650073,0.0186936233938213,,
141.752472864582,0.332228073461968,0.0187231579918423,,
142.239594764461,0.329567262660533,0.0186737693149723,,
142.726716664339,0.326936980066468,0.0186683532282292,,
143.213838564217,0.324334219113896,0.0186316474664432,,
143.700960464095,0.321043879672608,0.0186205356580436,,
144.188082363974,0.318124735480021,0.0185836091318521,,
144.675204263852,0.3151306584148,0.0185407955548529,,
145.16232616373,0.311882410895795,0.0185099915615017,,
145.649448063609,0.308693138322845,0.0184667695703524,,
146.136569963487,0.305351455987345,0.0183842735915025,,
146.623691863365,0.302249142550539,0.0183652731350206,,
147.110813763243,0.298876238184774,0.0183256974359658,,
147.597935663122,0.295019739261356,0.0182071616679522,,
148.085057563,0.291438688027161,0.0181560915021954,,
148.572179462878,0.288013978218587,0.0180827351697244,,
149.059301362757,0.284279592124648,0.0180120353689306,,
149.546423262635,0.280587297952991,0.0179454491448885,,
150.033545162513,0.276579776912812,0.0178774389904319,,
150.520667062392,0.272724434360885,0.017765470963476,,
151.00778896227,0.268782363947112,0.0176815804894659,,
151.494910862148,0.26493696619001,0.017570300511573,,
151.982032762026,0.260697708302979,0.0174585790048694,,
152.469154661905,0.256562292575864,0.0173671236705717,,
152.956276561783,0.252399817755853,0.0172497542744994,,
153.443398461661,0.248111992266187,0.0171464438916376,,
153.93052036154,0.243761953990291,0.0170364038738207,,
154.417642261418,0.23921093834921,0.0169323355331672,,
154.904764161296,0.234979775062618,0.0167990085499996,,
155.391886061174,0.230307571689251,0.0166622670773631,,
155.879007961053,0.225943888229757,0.0165145021020892,,
156.366129860931,0.221135464294717,0.0163923053243549,,
156.853251760809,0.21656250650459,0.0162553835607873,,
157.340373660688,0.21188032942711,0.0160837613121152,,
157.827495560566,0.207135708289102,0.0159885382653004,,
158.314617460444,0.202071552798766,0.0158009473913125,,
158.801739360322,0.197223320775139,0.015640363362905,,
159.288861260201,0.19250370617063,0.0154560729167761,,
159.775983160079,0.187385403585214,0.0153159574281454,,
160.263105059957,0.18248767886176,0.0151389779632383,,
160.750226959836,0.177501173717064,0.0149799208886341,,
161.237348859714,0.172281544079725,0.0148358831524029,,
161.724470759592,0.167124589777213,0.0146012988953421,,
162.21159265947,0.162139674643317,0.0144339447585056,,
162.698714559349,0.15674176143131,0.0142550630403062,,
163.185836459227,0.151581338014325,0.0140684140944476,,
163.672958359105,0.14635060721067,0.0138774124103977,,
164.160080258984,0.140940667735154,0.0136878788096433,,
164.647202158862,0.135584557352557,0.0134882047638722,,
165.13432405874,0.130231482445124,0.0132831403872054,,
165.621445958618,0.124886704503142,0.0130894748126651,,
166.108567858497,0.119427041053501,0.012841379774001,,
166.595689758375,0.113857262128602,0.0126531155685767,,
167.082811658253,0.108424368678984,0.0124433268336368,,
167.569933558132,0.10285901287504,0.012223195286309,,
168.05705545801,0.0973694861316367,0.011994229483363,,
168.544177357888,0.0917289372714721,0.0117465649352893,,
169.031299257767,0.0861753475474517,0.0115419752020935,,
169.518421157645,0.0805336712250831,0.0113279956228602,,
