Time domain (s),Current (AC) (A),Potential (AC) (V),Frequency (Hz),Column 5
0,-0.3417036416451,-0.00707930330262174,79.433,0.4
0.000239736239975829,-0.321057785039791,-0.00680032581388668,,
0.000479472479951657,-0.296681705277911,-0.00640527033122762,,
0.000719208719927486,-0.267408392250461,-0.00592865337311466,,
0.000958944959903315,-0.234450879651793,-0.00536409899224299,,
0.00119868119987914,-0.198182212924995,-0.0047275768510211,,
0.00143841743985497,-0.159144499025179,-0.00406285455034094,,
0.0016781536798308,-0.11783544024219,-0.00325600113694469,,
0.00191788991980663,-0.0748533431856184,-0.00248445006262754,,
0.00215762615978246,-0.0305907381581777,-0.00158975978171627,,
0.00239736239975829,0.013903256804668,-0.000751534994416492,,
0.00263709863973412,0.058298642188595,8.9198087573461E-05,,
0.00287683487970994,0.102119600034229,0.000969674698572565,,
0.00311657111968577,0.144103748493826,0.00183503078033231,,
0.0033563073596616,0.184101482005703,0.00270072949477473,,
0.00359604359963743,0.221351908128598,0.00349459824679332,,
0.00383577983961326,0.255644798525395,0.0042390124402476,,
0.00407551607958909,0.286116112417811,0.0049316257861185,,
0.00431525231956492,0.312509135334781,0.00555375735468511,,
0.00455498855954074,0.334381439543742,0.00607268200052191,,
0.00479472479951657,0.351268163705199,0.00655843086447128,,
0.0050344610394924,0.363480603024605,0.00687882221654146,,
0.00527419727946823,0.370373733484124,0.00715814233795831,,
0.00551393351944406,0.372204732103417,0.00730943328852307,,
0.00575366975941989,0.368098919486479,0.0073826002632611,,
0.00599340599939572,0.359742516541894,0.00729287146745694,,
0.00623314223937154,0.345547825212136,0.00712898876581924,,
0.00647287847934737,0.3268416661463,0.00688271035263144,,
0.0067126147193232,0.303006999516637,0.00651912121271714,,
0.00695235095929903,0.275456680011194,0.00606636564150964,,
0.00719208719927486,0.243439759983533,0.00551745318743713,,
0.00743182343925069,0.208314744661611,0.00492063174613966,,
0.00767155967922652,0.16978953460673,0.00421702808455793,,
0.00791129591920234,0.128996940241034,0.00349295956874762,,
0.00815103215917817,0.0862611214028174,0.00267275279141366,,
0.008390768399154,0.0423989967320942,0.00186069843735659,,
0.00863050463912983,-0.00205443850069498,0.00100127139070727,,
0.00887024087910566,-0.0464270144569564,0.000117577011909287,,
0.00910997711908149,-0.0905510861797418,-0.000781120581677008,,
0.00934971335905732,-0.133290807771742,-0.00162731716524211,,
0.00958944959903315,-0.173822091089695,-0.00247701642312936,,
0.00982918583900897,-0.212035080841931,-0.00327666151525907,,
0.0100689220789848,-0.246840706357962,-0.00404661674061568,,
0.0103086583189606,-0.278419592864725,-0.00476470035729148,,
0.0105483945589365,-0.306329543903956,-0.00537774471124131,,
0.0107881307989123,-0.329252758524192,-0.00597131859059408,,
0.0110278670388881,-0.34794689132652,-0.00642369801070464,,
0.0112676032788639,-0.361613178703338,-0.00679879141535311,,
0.0115073395188398,-0.369768777738461,-0.00707517681336123,,
0.0117470757588156,-0.372888205473338,-0.00728230571833111,,
0.0119868119987914,-0.370334012123399,-0.00735099612258994,,
0.0122265482387673,-0.362694790777706,-0.00732355571386201,,
0.0124662844787431,-0.350347981091013,-0.00719740916062728,,
0.0127060207187189,-0.332273027403692,-0.00694634692482721,,
0.0129457569586947,-0.309553738895943,-0.00661694470563967,,
0.0131854931986706,-0.282854450989507,-0.00621802901890289,,
0.0134252294386464,-0.251873697636608,-0.00570281374427806,,
0.0136649656786222,-0.21723343324383,-0.00506973096481778,,
0.0139047019185981,-0.179507969712318,-0.00440468279066275,,
0.0141444381585739,-0.13933932449403,-0.00369480932342281,,
0.0143841743985497,-0.0970244537879261,-0.00288847358331834,,
0.0146239106385255,-0.0533256376810589,-0.0020428710205449,,
0.0148636468785014,-0.00885991600117487,-0.00120931832780968,,
0.0151033831184772,0.0355350357434428,-0.000309268824835396,,
0.015343119358453,0.0798136565160377,0.000523820196498104,,
0.0155828555984289,0.122721745797168,0.00141911567100594,,
0.0158225918384047,0.163892733824097,0.00226424525170676,,
0.0160623280783805,0.202808797443031,0.00307556964917977,,
0.0163020643183563,0.238605433327089,0.00387053706034246,,
0.0165418005583322,0.270858715687567,0.00457226741497641,,
0.016781536798308,0.299416466036213,0.00523762656553339,,
0.0170212730382838,0.323872797979588,0.00581189383809377,,
0.0172610092782597,0.343152748579398,0.00629549752351055,,
0.0175007455182355,0.357737599650313,0.00671785934123958,,
0.0177404817582113,0.367338720868111,0.00703674608892246,,
0.0179802179981871,0.37177988121752,0.00720713881152335,,
0.018219954238163,0.37092856052564,0.00734008029224453,,
0.0184596904781388,0.364898777021511,0.00735923792830562,,
0.0186994267181146,0.353795297962242,0.00723529055549399,,
0.0189391629580905,0.337266123865889,0.00704532680305237,,
0.0191788991980663,0.315823989851684,0.00672407142073972,,
0.0194186354380421,0.29019000918159,0.00631858798688079,,
0.0196583716780179,0.260301275246481,0.005828444486355,,
0.0198981079179938,0.226747537506909,0.00523713496211986,,
0.0201378441579696,0.189984868879037,0.00458798010287298,,
0.0203775803979454,0.150227198088749,0.0038726971359484,,
0.0206173166379213,0.108448652480301,0.0030816439307535,,
0.0208570528778971,0.0650955914493266,0.00227158578449771,,
0.0210967891178729,0.0207510575017288,0.00142746175623376,,
0.0213365253578487,-0.0236454553444021,0.000567155782269069,,
0.0215762615978246,-0.0681209483633874,-0.000317938921404526,,
0.0218159978378004,-0.111537841100681,-0.00117924299926964,,
0.0220557340777762,-0.153247698242547,-0.00206347367270077,,
0.0222954703177521,-0.192636486527116,-0.00286743891604146,,
0.0225352065577279,-0.229516179949906,-0.00367865903400233,,
0.0227749427977037,-0.263042858596581,-0.00439952840335556,,
0.0230146790376796,-0.292763918665455,-0.00509605595519425,,
0.0232544152776554,-0.318173100717644,-0.00566248922941615,,
0.0234941515176312,-0.339145516632091,-0.00618530014920937,,
0.023733887757607,-0.35507794522037,-0.00660395259572555,,
0.0239736239975829,-0.366130833026895,-0.00696930331453949,,
0.0242133602375587,-0.372075970137863,-0.0071805885029157,,
0.0244530964775345,-0.372463817136038,-0.00729338914074873,,
0.0246928327175104,-0.367576297390995,-0.00734689942747568,,
0.0249325689574862,-0.357404853753698,-0.00728477863247257,,
0.025172305197462,-0.342075993265292,-0.00710197851007832,,
0.0254120414374378,-0.321788843096578,-0.00680625484899755,,
0.0256517776774137,-0.297291055235241,-0.00645106393406669,,
0.0258915139173895,-0.268181773503829,-0.00595876035793497,,
0.0261312501573653,-0.235368576067273,-0.00538954319316964,,
0.0263709863973412,-0.199174610938812,-0.00477186584947287,,
0.026610722637317,-0.160287167514287,-0.0040583854283982,,
0.0268504588772928,-0.118901441301427,-0.00330417640935243,,
0.0270901951172686,-0.0758346400331185,-0.00252383792401556,,
0.0273299313572445,-0.0316813699301783,-0.00164172263497075,,
0.0275696675972203,0.0128104568361213,-0.000802914999684212,,
0.0278094038371961,0.0571677397794106,7.82636358866995E-05,,
0.028049140077172,0.100914198391719,0.000983514079521797,,
0.0282888763171478,0.143037313795281,0.00182701615498182,,
0.0285286125571236,0.183117409866624,0.00265770674753973,,
0.0287683487970994,0.220515649175392,0.00346006310698099,,
0.0290080850370753,0.254811979777375,0.0041872786294932,,
0.0292478212770511,0.285360076736812,0.00491020007067178,,
0.0294875575170269,0.311707076068429,0.00549543903760119,,
0.0297272937570028,0.33386454148714,0.00604607582788974,,
0.0299670299969786,0.35096843221466,0.00652728108453049,,
0.0302067662369544,0.363273381253368,0.00686834957412241,,
0.0304465024769302,0.370457223505795,0.00712572630680075,,
0.0306862387169061,0.372120085710255,0.0073090906558404,,
0.0309259749568819,0.368604716376764,0.00736785216085023,,
0.0311657111968577,0.360014726390941,0.0073040703421916,,
0.0314054474368336,0.346212738819622,0.00714340540835234,,
0.0316451836768094,0.327359026751498,0.00687830081898122,,
0.0318849199167852,0.303946898264749,0.00652984338111118,,
0.032124656156761,0.275957388866918,0.00610959322350002,,
0.0323643923967369,0.2443856718634,0.00556047593467213,,
0.0326041286367127,0.209197489748767,0.00490698602714135,,
0.0328438648766885,0.170869816853883,0.0042497718513248,,
0.0330836011166644,0.130164152715045,0.00350094439995186,,
0.0333233373566402,0.0874753114686612,0.00268665548492342,,
0.033563073596616,0.0435424457719589,0.00188979242120313,,
0.0338028098365918,-0.000881444169228029,0.00100892848630219,,
0.0340425460765677,-0.0453000148015551,0.000134425601633126,,
0.0342822823165435,-0.0894590089433771,-0.000743397468212503,,
0.0345220185565193,-0.132200060362592,-0.00160857664722913,,
0.0347617547964952,-0.172798471045614,-0.00247072985826335,,
0.035001491036471,-0.211065347709344,-0.00324721000165651,,
0.0352412272764468,-0.246195913614424,-0.00399615849174895,,
0.0354809635164226,-0.277980865520934,-0.00473136070759894,,
0.0357206997563985,-0.30539149535023,-0.00536515668443593,,
0.0359604359963743,-0.328955108502337,-0.00594402529046301,,
0.0362001722363501,-0.347719779965633,-0.00642445589930052,,
0.036439908476326,-0.361149878465356,-0.0067982104295008,,
0.0366796447163018,-0.36975900639936,-0.00706523860344133,,
0.0369193809562776,-0.372552857740866,-0.00726776617494407,,
0.0371591171962534,-0.370646463700343,-0.00735548014160559,,
0.0373988534362293,-0.363128892635533,-0.00730988020071743,,
0.0376385896762051,-0.35051819897453,-0.00718404648601867,,
0.0378783259161809,-0.333070172091205,-0.00697704979257319,,
0.0381180621561568,-0.310601411467042,-0.00664564950345081,,
0.0383577983961326,-0.283710628441651,-0.00621843310201164,,
0.0385975346361084,-0.252852450466827,-0.00569034489405817,,
0.0388372708760842,-0.217952465037108,-0.00510527538133543,,
0.0390770071160601,-0.180488572736923,-0.00442759448915542,,
0.0393167433560359,-0.140224179959157,-0.00374629360820222,,
0.0395564795960117,-0.0980873904627105,-0.00292967888762963,,
0.0397962158359876,-0.0544385296042666,-0.00211148507730385,,
0.0400359520759634,-0.00998922839955873,-0.00122613898552126,,
0.0402756883159392,0.0344182121571648,-0.000367978190089158,,
0.040515424555915,0.0787345306403754,0.000505720252630404,,
0.0407551607958909,0.121656987837285,0.00138195119778439,,
0.0409948970358667,0.162936645875107,0.00223075663128292,,
0.0412346332758425,0.201690123662367,0.00303601791998709,,
0.0414743695158184,0.237721040410558,0.00382533934042906,,
0.0417141057557942,0.270161192404027,0.00455093108196847,,
0.04195384199577,0.298916682277682,0.00522204422702632,,
0.0421935782357458,0.323101035646308,0.00580530933176471,,
0.0424333144757217,0.342853479637454,0.0063014861469135,,
0.0426730507156975,0.357596753602675,0.00669305943872578,,
0.0429127869556733,0.367215914215737,0.00700449392556957,,
0.0431525231956492,0.371906388258666,0.00722527972234221,,
0.043392259435625,0.370981753614239,0.00732990931555699,,
0.0436319956756008,0.364932311794758,0.00735369621709658,,
0.0438717319155766,0.353759219171714,0.00722218485539683,,
0.0441114681555525,0.337207380194132,0.0070191489212732,,
0.0443512043955283,0.316401250500131,0.00674182873192519,,
0.0445909406355041,0.290875968750217,0.00633716463708955,,
0.04483067687548,0.261102409415639,0.00582793798586811,,
0.0450704131154558,0.227587988306771,0.00528021357337893,,
0.0453101493554316,0.190860473372234,0.00457385767753449,,
0.0455498855954074,0.151244602636064,0.00390371284223034,,
0.0457896218353833,0.109601554857107,0.0031163727325163,,
0.0460293580753591,0.0662859602624501,0.00229728695993625,,
0.0462690943153349,0.0219705668764325,0.00142856041537787,,
0.0465088305553108,-0.0225191495118956,0.0005907955752118,,
0.0467485667952866,-0.0669879355762315,-0.000309715737029759,,
0.0469883030352624,-0.110433737600807,-0.00115752306662831,,
0.0472280392752382,-0.152180136081797,-0.00203600160769213,,
0.0474677755152141,-0.191772214474533,-0.0028588284077653,,
0.0477075117551899,-0.228525400856177,-0.00362602767459075,,
0.0479472479951657,-0.261772468876261,-0.00437608041022974,,
0.0481869842351416,-0.291781696720762,-0.0050418901972491,,
0.0484267204751174,-0.31754380335209,-0.00566269592630597,,
0.0486664567150932,-0.338255804406701,-0.00617816631330825,,
0.048906192955069,-0.354465357422864,-0.00660676814254968,,
0.0491459291950449,-0.365743217303018,-0.00692323970224917,,
0.0493856654350207,-0.371899739122592,-0.00718519356065084,,
0.0496254016749965,-0.372631664457997,-0.00729598123147568,,
0.0498651379149724,-0.367525417045378,-0.00733218111921108,,
0.0501048741549482,-0.357489962695456,-0.00726533981415622,,
0.050344610394924,-0.342347682747169,-0.00708988022455248,,
0.0505843466348998,-0.322648027114599,-0.00680817657143296,,
0.0508240828748757,-0.298012688864374,-0.00644395803017783,,
0.0510638191148515,-0.268899880199914,-0.00597139307595951,,
0.0513035553548273,-0.23622961027968,-0.00542043972286699,,
0.0515432915948032,-0.200240785453772,-0.00478177240311251,,
0.051783027834779,-0.161200990085271,-0.0040919932254071,,
0.0520227640747548,-0.119994443634984,-0.00335753772534808,,
0.0522625003147306,-0.0770678524099938,-0.00254265292739397,,
0.0525022365547065,-0.0328412105359319,-0.00168522022641193,,
0.0527419727946823,0.0116270262519456,-0.000793915305372206,,
0.0529817090346581,0.0560351895408511,6.68524778597579E-05,,
0.053221445274634,0.0998602814145661,0.000936469122538419,,
0.0534611815146098,0.141930232638817,0.00180619004672922,,
0.0537009177545856,0.182214052457636,0.00264762142902253,,
0.0539406539945614,0.219556323386226,0.00345163136358284,,
0.0541803902345373,0.253823975975226,0.00421162044700729,,
0.0544201264745131,0.284751362783802,0.00488617481596165,,
0.0546598627144889,0.311038462072171,0.00550309613319655,,
0.0548995989544648,0.332992868657013,0.00606139001908002,,
0.0551393351944406,0.350660837397979,0.00650112182409268,,
0.0553790714344164,0.362916987559755,0.00687964155556431,,
0.0556188076743922,0.370148241043325,0.00712684358728666,,
0.0558585439143681,0.37223086609912,0.00729188453636143,,
0.0560982801543439,0.369059170372837,0.00734343213370181,,
0.0563380163943197,0.360230736585513,0.00731298251619883,,
0.0565777526342956,0.346368386422348,0.00714909609029268,,
0.0568174888742714,0.327820881525115,0.00689214019993045,,
0.0570572251142472,0.304510976278195,0.00655943269264014,,
0.057296961354223,0.277084157248021,0.0061062562791161,,
0.0575366975941989,0.245229591777736,0.00555976087516141,,
0.0577764338341747,0.210015998399582,0.00495798988131213,,
0.0580161700741505,0.171921189813755,0.00426953654311601,,
0.0582559063141264,0.131182684724564,0.0035255692618561,,
0.0584956425541022,0.0885692388994119,0.00272097834144303,,
0.058735378794078,0.0447228408809701,0.00189779214948071,,
0.0589751150340538,0.000257408293958886,0.00103581770332406,,
0.0592148512740297,-0.0441478062476439,0.000171027710343719,,
0.0594545875140055,-0.0883177281000585,-0.000711756084858628,,
0.0596943237539813,-0.131133654573334,-0.00159013407067876,,
0.0599340599939572,-0.171962414457419,-0.00243359145491961,,
0.060173796233933,-0.210201769479656,-0.00325139794134355,,
0.0604135324739088,-0.24522317391596,-0.00403094501967027,,
0.0606532687138846,-0.27700535053089,-0.00473979245099754,,
0.0608930049538605,-0.304920389604683,-0.00535603967567289,,
0.0611327411938363,-0.328346105456455,-0.00593656371895301,,
0.0613724774338121,-0.346812548712149,-0.0064075197892719,,
0.061612213673788,-0.360845116758829,-0.00677239566387922,,
0.0618519499137638,-0.369237771949665,-0.00707946530829195,,
0.0620916861537396,-0.372739496099559,-0.00726346092080599,,
0.0623314223937154,-0.370612928927095,-0.00733152564799289,,
0.0625711586336913,-0.36338121289493,-0.00732278106605833,,
0.0628108948736671,-0.351288342387722,-0.00721351103456014,,
0.0630506311136429,-0.333233683020072,-0.00698409610816952,,
0.0632903673536188,-0.311071360841098,-0.00666218525463869,,
0.0635301035935946,-0.284596409003971,-0.00623203226765634,,
0.0637698398335704,-0.253408202605536,-0.00569840421062784,,
0.0640095760735463,-0.219283217349273,-0.00511431976686705,,
0.0642493123135221,-0.181587819476534,-0.00444956767204063,,
0.0644890485534979,-0.141377082335963,-0.00370721858535017,,
0.0647287847934737,-0.099182936813549,-0.00293909383785573,,
0.0649685210334496,-0.0556263544001092,-0.00212922935355042,,
0.0652082572734254,-0.0111634080118042,-0.0012666590244681,,
0.0654479935134012,0.0332030969941279,-0.000385854677859676,,
0.0656877297533771,0.0775074181231166,0.000513094303836059,,
0.0659274659933529,0.120642560946559,0.00136639865342358,,
0.0661672022333287,0.161775880172161,0.0022361791659069,,
0.0664069384733045,0.200966003834528,0.00304431558972729,,
0.0666466747132804,0.236792011554464,0.00382517919689285,,
0.0668864109532562,0.269191690545738,0.00454065210150034,,
0.067126147193232,0.29802442603501,0.00521420836655384,,
0.0673658834332078,0.322506429425492,0.0058024341966485,,
0.0676056196731837,0.342262342531112,0.00629588484741239,,
0.0678453559131595,0.357621037403992,0.00671057467247271,,
0.0680850921531353,0.36702465037108,0.00701809495334826,,
0.0683248283931112,0.371519235083386,0.00721610312528664,,
0.068564564633087,0.37107310696205,0.00730291209475498,,
0.0688043008730628,0.365620121557771,0.00734319750479973,,
0.0690440371130387,0.35430872690437,0.00723016968660106,,
0.0692837733530145,0.337758738121174,0.00705338611962203,,
0.0695235095929903,0.316869580954099,0.0067438994250919,,
0.0697632458329661,0.291536256871738,0.00632453191906457,,
0.070002982072942,0.261772642331985,0.00586720667067109,,
0.0702427183129178,0.228558415262254,0.0052835244478846,,
0.0704824545528936,0.19171225661271,0.00463697657643802,,
0.0707221907928695,0.152308666773053,0.00389940758809226,,
0.0709619270328453,0.110531711175405,0.00314560079002169,,
0.0712016632728211,0.0672943162028461,0.0023344514331578,,
0.0714413995127969,0.0230452985404279,0.00147513611455707,,
0.0716811357527728,-0.0214160289277892,0.000600957241228883,,
0.0719208719927486,-0.0657797586421423,-0.000265383909492822,,
0.0721606082327244,-0.109355074273741,-0.00115747837540869,,
0.0724003444727002,-0.151254402884453,-0.00200169551037988,,
0.0726400807126761,-0.190951653264321,-0.0028476704999818,,
0.0728798169526519,-0.227837186363142,-0.00362781532336776,,
0.0731195531926277,-0.261344148875891,-0.00436073642489321,,
0.0733592894326036,-0.291143148383277,-0.00505364212582426,,
0.0735990256725794,-0.316952434971449,-0.00565371485333532,,
0.0738387619125552,-0.338069628596604,-0.00615815954407806,,
0.0740784981525311,-0.354556016947781,-0.00660103090725572,,
0.0743182343925069,-0.365703033393696,-0.00692855981949503,,
0.0745579706324827,-0.371787339813639,-0.00717819007413967,,
0.0747977068724585,-0.372562571261393,-0.00730064587750334,,
0.0750374431124344,-0.367748596743195,-0.00736566973963493,,
0.0752771793524102,-0.35828508373286,-0.00728988832856059,,
0.075516915592386,-0.343062551603078,-0.00708690080992413,,
0.0757566518323619,-0.323025466769352,-0.00679576730950515,,
0.0759963880723377,-0.29871663000969,-0.00645308807388023,,
0.0762361243123135,-0.269887884002063,-0.00598709459105162,,
0.0764758605522893,-0.237263579848608,-0.00542136334140153,,
0.0767155967922652,-0.201257698543203,-0.00481439699329389,,
0.076955333032241,-0.162220389373409,-0.00410228524081413,,
0.0771950692722168,-0.121042752210404,-0.00336628230728264,,
0.0774348055121927,-0.0780805447434821,-0.00255126343567014,,
0.0776745417521685,-0.0340061391762472,-0.00170166659516058,,
0.0779142779921443,0.0105525547715357,-0.000844684530640905,,
0.0781540142321201,0.0549250729092225,1.40423535706091E-05,,
0.078393750472096,0.0986470164459154,0.000917251898184812,,
0.0786334867120718,0.140867989786927,0.00179300613699818,,
0.0788732229520476,0.181145565199694,0.00263269456173409,,
0.0791129591920234,0.21858306332059,0.00341610184413854,,
