Time domain (s),Current (AC) (A),Potential (AC) (V),Frequency (Hz),Column 5
0,-0.271881891835891,-0.00415372763179667,2511.9,0.5
1.24407818782595E-05,-0.328213430211891,-0.0049184933194617,,
2.4881563756519E-05,-0.371876523579922,-0.00553881927529298,,
3.73223456347785E-05,-0.401500704477083,-0.00595773365233754,,
4.97631275130379E-05,-0.414879875331486,-0.00609561153255944,,
6.22039093912974E-05,-0.412245453420935,-0.0060255417420727,,
7.46446912695569E-05,-0.393856123355137,-0.00574836232944742,,
8.70854731478164E-05,-0.360710480156412,-0.00519712386127047,,
9.95262550260759E-05,-0.313295856373874,-0.00447018885383299,,
0.000111967036904335,-0.254082288831201,-0.00357984811372569,,
0.000124407818782595,-0.185079394091482,-0.00256307709947956,,
0.000136848600660854,-0.109014757449272,-0.00142125824777173,,
0.000149289382539114,-0.0292187568567754,-0.000243970020722184,,
0.000161730164417373,0.0503521817344949,0.000917654597704765,,
0.000174170946295633,0.129875047451548,0.00208366866724896,,
0.000186611728173892,0.204695718588637,0.00319892927892207,,
0.000199052510052152,0.271605987622051,0.00414299442777377,,
0.000211493291930411,0.327806266458924,0.00496665878717817,,
0.000223934073808671,0.371458744029768,0.00553748664068143,,
0.00023637485568693,0.40017177709013,0.0059303013001677,,
0.00024881563756519,0.413902440894863,0.00612397982012025,,
0.000261256419443449,0.411197365350862,0.00603264969910455,,
0.000273697201321709,0.393906433002674,0.00572977070276703,,
0.000286137983199968,0.360219171121396,0.00521946781607729,,
0.000298578765078228,0.313443873960735,0.00450302902351796,,
0.000311019546956487,0.254407757101471,0.00358798645834391,,
0.000323460328834747,0.185649948809845,0.00256201236564024,,
0.000335901110713006,0.109833380980155,0.00142722934383377,,
0.000348341892591266,0.0303467296882875,0.000276240042608844,,
0.000360782674469525,-0.0494264061102682,-0.000914190778102508,,
0.000373223456347785,-0.129535981019665,-0.00208992655452267,,
0.000385664238226044,-0.204847641652724,-0.00317132863011338,,
0.000398105020104304,-0.271897513744795,-0.00414290512751636,,
0.000410545801982563,-0.328333292858388,-0.00494823889176255,,
0.000422986583860823,-0.371846131866237,-0.0055467223480794,,
0.000435427365739082,-0.400720603153382,-0.00592872995909888,,
0.000447868147617342,-0.41468083801032,-0.00610056597953657,,
0.000460308929495601,-0.412393506512135,-0.00602269272039679,,
0.00047274971137386,-0.393909734906147,-0.00570958712726632,,
0.00048519049325212,-0.360643092922097,-0.00517860092709599,,
0.00049763127513038,-0.313371551623379,-0.00447705123515707,,
0.000510072057008639,-0.253928910089239,-0.00357506368070082,,
0.000522512838886898,-0.185050848603394,-0.00252725052310732,,
0.000534953620765158,-0.108945594998035,-0.00143420163316721,,
0.000547394402643417,-0.0292728654685231,-0.000238830103979737,,
0.000559835184521677,0.0503159673093094,0.000924815791429001,,
0.000572275966399936,0.129838833026363,0.00208829510751096,,
0.000584716748278196,0.204774041159185,0.00319273664952879,,
0.000597157530156455,0.27157215198754,0.00412203290964541,,
0.000609598312034715,0.327714452239777,0.00492901872865437,,
0.000622039093912974,0.3711072155751,0.00553399706138968,,
0.000634479875791234,0.400216512556535,0.0059510189599008,,
0.000646920657669493,0.41374615079715,0.00609577467726075,,
0.000659361439547753,0.411530893105952,0.00605677107249747,,
0.000671802221426012,0.393378874038134,0.00570071033821096,,
0.000684243003304272,0.3605232302756,0.00522302608787495,,
0.000696683785182531,0.313511012664682,0.0044825414836791,,
0.000709124567060791,0.25445398375009,0.00357996660829807,,
0.00072156534893905,0.185582206532145,0.00253169836285405,,
0.00073400613081731,0.109840410839162,0.00144658002270237,,
0.000746446912695569,0.0303899739724796,0.000250511264581643,,
0.000758887694573829,-0.0494049614898643,-0.000923872986787533,,
0.000771328476452088,-0.129558987830959,-0.00208911598295458,,
0.000783769258330348,-0.204759093832712,-0.00317554463265335,,
0.000796210040208607,-0.272052028625586,-0.00413439069142907,,
0.000808650822086867,-0.328196956198866,-0.00496599590449787,,
0.000821091603965126,-0.3717778925278,-0.00554629645454341,,
0.000833532385843386,-0.401187485203567,-0.00593943740343228,,
0.000845973167721645,-0.414583414105703,-0.00608500369235987,,
0.000858413949599905,-0.412417720470935,-0.00600281654385926,,
0.000870854731478164,-0.394171117845574,-0.00570197084569157,,
0.000883295513356424,-0.360644300069603,-0.00520875693711886,,
0.000895736295234683,-0.313522232035621,-0.00446541987662163,,
0.000908177077112943,-0.253883606553419,-0.00357671573546403,,
0.000920617858991202,-0.184932832182496,-0.00256620947774122,,
0.000933058640869462,-0.108907321321222,-0.0014240214038157,,
0.000945499422747721,-0.0292894104902254,-0.000269614650429961,,
0.00095794020462598,0.050336275790884,0.000920148135663545,,
0.00097038098650424,0.129797612489461,0.00209566924800253,,
0.000982821768382499,0.204813450974828,0.00319000268780023,,
0.000995262550260759,0.271306331005811,0.00413255660152556,,
0.00100770333213902,0.327762099061933,0.00493179734051186,,
0.00102014411401728,0.371189940683612,0.00555275011545842,,
0.00103258489589554,0.4003675835165,0.0059408524690503,,
0.0010450256777738,0.414140888031672,0.00612288417465345,,
0.00105746645965206,0.411385467335796,0.0060271233870175,,
0.00106990724153032,0.393646186202077,0.00573317441642685,,
0.00108234802340858,0.360527064744149,0.00519902492636692,,
0.00109478880528683,0.313464786016062,0.00449094257713156,,
0.00110722958716509,0.254376868327048,0.00358255631576476,,
0.00111967036904335,0.185806274411895,0.00254834255699654,,
0.00113211115092161,0.10988195091511,0.00143462065745226,,
0.00114455193279987,0.0303802457837533,0.000254725549809098,,
0.00115699271467813,-0.0494137665657917,-0.000911542682005884,,
0.00116943349655639,-0.12946880681138,-0.00207953166109043,,
0.00118187427843465,-0.204843168106084,-0.00318263541655917,,
0.00119431506031291,-0.271891904059325,-0.00414243630116484,,
0.00120675584219117,-0.328230543303008,-0.00496564042078074,,
0.00121919662406943,-0.37201541655181,-0.00556452229363069,,
0.00123163740594769,-0.401159223750187,-0.00592220932299092,,
0.00124407818782595,-0.414631700005951,-0.00611081833601901,,
0.00125651896970421,-0.412403873778953,-0.0060263797906428,,
0.00126895975158247,-0.393975346923542,-0.005739506148144,,
0.00128140053346073,-0.360454067824364,-0.00518399500610967,,
0.00129384131533899,-0.313244375083169,-0.00448529777047213,,
0.00130628209721725,-0.254198530035179,-0.00357396803523402,,
0.00131872287909551,-0.185098566434227,-0.00254952063347025,,
0.00133116366097377,-0.109035705008938,-0.00137488221982984,,
0.00134360444285202,-0.0292392783643805,-0.000257497292416087,,
0.00135604522473028,0.050266225731187,0.00092161472066099,,
0.00136848600660854,0.129906255765017,0.00208487765535015,,
0.0013809267884868,0.204790195633165,0.00318906160047172,,
0.00139336757036506,0.271710796429059,0.00414597224789803,,
0.00140580835224332,0.327641739354699,0.00495056413308204,,
0.00141824913412158,0.37109755839505,0.00555044548189043,,
0.00143068991599984,0.400358458901527,0.00595329611646633,,
0.0014431306978781,0.41402138042856,0.00610886059960514,,
0.00145557147975636,0.41160832806804,0.00603114189860365,,
0.00146801226163462,0.393626161755209,0.00573711736625659,,
0.00148045304351288,0.360428433692027,0.0052045615423304,,
0.00149289382539114,0.313418843402151,0.00448729843970197,,
0.0015053346072694,0.254576154178584,0.00359625703603594,,
0.00151777538914766,0.185599923197015,0.00257010090819199,,
0.00153021617102592,0.109925195199302,0.0014246224632406,,
0.00154265695290418,0.0303505286524982,0.000285738498841059,,
0.00155509773478244,-0.0493651966308371,-0.00093228781874144,,
0.0015675385166607,-0.129447646225683,-0.00211184118116847,,
0.00157997929853895,-0.204776419949859,-0.00320820791913601,,
0.00159242008041721,-0.271746123245784,-0.00414230750271649,,
0.00160486086229547,-0.328228200016673,-0.0049574642952841,,
0.00161730164417373,-0.371809988449729,-0.00553199810947236,,
0.00162974242605199,-0.401072948207833,-0.00594326701062764,,
0.00164218320793025,-0.414633120179487,-0.00611116008123513,,
0.00165462398980851,-0.412448325210651,-0.00602118320258338,,
0.00166706477168677,-0.394003892411629,-0.00574051764529138,,
0.00167950555356503,-0.360579185112946,-0.00521490835100824,,
0.00169194633544329,-0.313360971330531,-0.00447862085891337,,
0.00170438711732155,-0.253858256455789,-0.00358468921806843,,
0.00171682789919981,-0.185107087475447,-0.00254445112654622,,
0.00172926868107807,-0.108920244900405,-0.00141268542305451,,
0.00174170946295633,-0.0293149736138858,-0.000263234833958848,,
0.00175415024483459,0.0503353881824236,0.000901037880564726,,
0.00176659102671285,0.129887083422272,0.00209181216380516,,
0.00177903180859111,0.20480287068198,0.00317110194484416,,
0.00179147259046937,0.271806480621093,0.00413099041239473,,
0.00180391337234763,0.327777436936129,0.00495966589009322,,
0.00181635415422589,0.371427251681592,0.00556335967297095,,
0.00182879493610414,0.400091714806999,0.00594419779408017,,
0.0018412357179824,0.414138864284382,0.00610659374691558,,
0.00185367649986066,0.411881817986867,0.00602254159688398,,
0.00186611728173892,0.393589947330024,0.00572571097567742,,
0.00187855806361718,0.3602527227212,0.00520223973563594,,
0.00189099884549544,0.313541901439104,0.00448789606450184,,
0.0019034396273737,0.254422242871545,0.00360012785873476,,
0.00191588040925196,0.185600207231722,0.00255993441734148,,
0.00192832119113022,0.109977919141852,0.00142446790510276,,
0.00194076197300848,0.0303552507295076,0.000265434711455015,,
0.00195320275488674,-0.0493643445267151,-0.000922578133054408,,
0.001965643536765,-0.129535057906866,-0.00211668228551076,,
0.00197808431864326,-0.204632769396624,-0.00320318134502795,,
0.00199052510052152,-0.271880755697062,-0.00414551200810953,,
0.00200296588239978,-0.328090159148907,-0.00494221627632108,,
0.00201540666427804,-0.371911814892309,-0.00554005917502165,,
0.0020278474461563,-0.400828394324816,-0.00593808416106878,,
0.00204028822803456,-0.415038224680827,-0.00609585367364218,,
0.00205272900991282,-0.412267253084723,-0.00604168619823575,,
0.00206516979179107,-0.394027751327046,-0.00570037717955829,,
0.00207761057366933,-0.360603967141161,-0.00521463701561053,,
0.00209005135554759,-0.313424524096297,-0.00447703749665607,,
0.00210249213742585,-0.254173819015641,-0.00358260955245671,,
0.00211493291930411,-0.185074139449396,-0.00253659098657621,,
0.00212737370118237,-0.10892912098501,-0.00142580053971431,,
0.00213981448306063,-0.0293205832993557,-0.000266511466482822,,
0.00215225526493889,0.050304783442708,0.000909995383314044,,
0.00216469604681715,0.129792890412451,0.00207899757685803,,
0.00217713682869541,0.204697493805558,0.00316156055579597,,
0.00218957761057367,0.271629846537468,0.0041447495212954,,
0.00220201839245193,0.327912246909099,0.00494683413001962,,
0.00221445917433019,0.371100753785508,0.00554557518323318,,
0.00222689995620845,0.400218571808164,0.00594146383235161,,
0.00223934073808671,0.413893635818935,0.00610640827715025,,
0.00225178151996497,0.411546479510517,0.00602934558957857,,
0.00226422230184323,0.393574076890752,0.00571633101401803,,
0.00227666308372149,0.360638690384133,0.00518856992699224,,
0.00228910386559975,0.313406771927089,0.00449381735849741,,
0.00230154464747801,0.254378324004923,0.00360421506282682,,
0.00231398542935626,0.18560812469919,0.00256145595634338,,
0.00232642621123452,0.109891963138544,0.00141767765090961,,
0.00233886699311278,0.0303990985874528,0.000283674289043301,,
0.00235130777499104,-0.0494767512621437,-0.00089352978968682,,
0.0023637485568693,-0.129526607874323,-0.00212444110403487,,
0.00237618933874756,-0.204669835925931,-0.00317389086057762,,
0.00238863012062582,-0.27179824361458,-0.00413774975495995,,
0.00240107090250408,-0.328442504203359,-0.00494757085714426,,
0.00241351168438234,-0.372064057495442,-0.00553644079728155,,
0.0024259524662606,-0.400915237936584,-0.00593106550429434,,
0.00243839324813886,-0.41469766706673,-0.00607870974152069,,
0.00245083403001712,-0.412237784483837,-0.00602756130174154,,
0.00246327481189538,-0.394130500882425,-0.00572827148882915,,
0.00247571559377364,-0.360666596794129,-0.00518339909862231,,
0.0024881563756519,-0.313261133130902,-0.00450265636667435,,
0.00250059715753016,-0.253871819113065,-0.00358416200308653,,
0.00251303793940842,-0.184907482084866,-0.00256589692684006,,
0.00252547872128668,-0.108937357991522,-0.00142980187817399,,
0.00253791950316494,-0.0293043933210375,-0.000233674731423328,,
0.0025503602850432,0.0502623912626379,0.00090780065775542,,
0.00256280106692145,0.129826761551301,0.0020997701905956,,
0.00257524184879971,0.204704559168903,0.00319395937613143,,
0.00258768263067797,0.271674866038581,0.0041634991407391,,
0.00260012341255623,0.327636413703936,0.0049350018459049,,
0.00261256419443449,0.371554996291217,0.00555625686787664,,
0.00262500497631275,0.400536832697735,0.00593619511716081,,
0.00263744575819101,0.413664597331806,0.00610759322287402,,
0.00264988654006927,0.411573001251315,0.00602541637824983,,
0.00266232732194753,0.393549933940628,0.00573501194095538,,
0.00267476810382579,0.36053444964654,0.00518822989908907,,
0.00268720888570405,0.313349077377161,0.00449030030220277,,
0.00269964966758231,0.254400691738126,0.00358299938242679,,
0.00271209044946057,0.18566464760595,0.00254178242269765,,
0.00272453123133883,0.109775082856475,0.00141612520027978,,
0.00273697201321709,0.0303661150570633,0.000257617504300978,,
0.00274941279509535,-0.0494408208716656,-0.000911911904224461,,
0.00276185357697361,-0.129512477147633,-0.00209385748316393,,
0.00277429435885187,-0.204826694093058,-0.00317880580936381,,
0.00278673514073012,-0.271845677410706,-0.00415079274448882,,
0.00279917592260838,-0.328538152891054,-0.00492218210702022,,
0.00281161670448664,-0.372044885152696,-0.00554818893307685,,
0.0028240574863649,-0.401209284867355,-0.00595104300227822,,
0.00283649826824316,-0.414848631513679,-0.00609022947473425,,
0.00284893905012142,-0.412402950666154,-0.00602630938082438,,
0.00286137983199968,-0.393987418398604,-0.0057331143104844,,
0.00287382061387794,-0.360389946989182,-0.00520236509945926,,
0.0028862613957562,-0.313458395235147,-0.00447691041552067,,
0.00289870217763446,-0.254140586954882,-0.00358199818915583,,
0.00291114295951272,-0.184884617290925,-0.00253955335088651,,
0.00292358374139098,-0.108935937817986,-0.00142217014078572,,
0.00293602452326924,-0.0292920378112683,-0.000238232479179867,,
0.0029484653051475,0.0503430216151832,0.000929703263212733,,
0.00296090608702576,0.129749362093552,0.00206697638835252,,
0.00297334686890402,0.204793781571345,0.00318206870338678,,
0.00298578765078228,0.271595975398618,0.00412718828220138,,
0.00299822843266054,0.32788576067264,0.0049378766272703,,
0.0030106692145388,0.371353970727099,0.00556512163574308,,
0.00302310999641706,0.400287805268077,0.00594147757085262,,
0.00303555077829531,0.414130875808238,0.00609722752375719,,
0.00304799156017357,0.411606233312073,0.00603101138284279,,
0.00306043234205183,0.393466037188948,0.00574084736931857,,
0.00307287312393009,0.360585966441583,0.00521313093242215,,
0.00308531390580835,0.313527770712414,0.00448598641284192,,
0.00309775468768661,0.254448409568959,0.00358470982581993,,
0.00311019546956487,0.185704376960638,0.00257460026731815,,
0.00312263625144313,0.109887525096242,0.00142748694073047,,
0.00313507703332139,0.0303584816243036,0.000269592325365497,,
0.00314751781519965,-0.0494125594182856,-0.00091779370002909,,
0.00315995859707791,-0.129501825846107,-0.00208585480624457,,
0.00317239937895617,-0.204664226240461,-0.00320087499414745,,
0.00318484016083443,-0.271790006608067,-0.00416060375162219,,
0.00319728094271269,-0.328193760808408,-0.00494214414919014,,
0.00320972172459095,-0.372175896161456,-0.00556248556083538,,
0.00322216250646921,-0.401244576179742,-0.00593670344170327,,
0.00323460328834747,-0.414706117099273,-0.00611849300622369,,
0.00324704407022573,-0.412307586013165,-0.00602104238294654,,
0.00325948485210399,-0.393794629840999,-0.00573785409338079,,
0.00327192563398224,-0.36050327683741,-0.00520034382247747,,
0.0032843664158605,-0.313226977957345,-0.00447803697261495,,
0.00329680719773876,-0.253922661325678,-0.00358391986200379,,
0.00330924797961702,-0.185012645935257,-0.00253992429041761,,
0.00332168876149528,-0.108933523522973,-0.00141677262714657,,
0.00333412954337354,-0.0293120622581356,-0.000246774392269167,,
0.0033465703252518,0.0502856110999628,0.000909167638619923,,
0.00335901110713006,0.12986649090599,0.00210017204175461,,
0.00337145188900832,0.20478110652253,0.00317176139289943,,
0.00338389267088658,0.271686937513643,0.0041533463883896,,
0.00339633345276484,0.327851321464375,0.00495227114184971,,
0.0034087742346431,0.371194662760621,0.00556595281506267,,
0.00342121501652136,0.400047866949054,0.00594663637803405,,
0.00343365579839962,0.413852095742987,0.00608772735021246,,
0.00344609658027788,0.411684875421667,0.00602517251985413,,
0.00345853736215614,0.393424213078293,0.00572967109863365,,
0.0034709781440344,0.360401379386153,0.00522165910701045,,
0.00348341892591266,0.31362050804436,0.00448264108781204,,
0.00349585970779092,0.254404845745721,0.00358602185267953,,
0.00350830048966918,0.185584265783773,0.00256319731136445,,
0.00352074127154743,0.109742134830423,0.00143007664819672,,
0.00353318205342569,0.030345238506074,0.000278704386252659,,
0.00354562283530395,-0.0494137665657917,-0.000928757023946236,,
0.00355806361718221,-0.129497778351528,-0.00208077156081909,,
0.00357050439906047,-0.20469049945089,-0.0031940967611428,,
0.00358294518093873,-0.271802078083129,-0.004138122411804,,
0.00359538596281699,-0.328358642956017,-0.00493650621178077,,
0.00360782674469525,-0.371742530206736,-0.00554935670567458,,
0.00362026752657351,-0.401151625821766,-0.00592939971103013,,
0.00363270830845177,-0.414535696274871,-0.0061260697896075,,
0.00364514909033003,-0.412397340980684,-0.00603913770627251,,
0.00365758987220829,-0.394159614439927,-0.00573342686138556,,
0.00367003065408655,-0.360643092922097,-0.00519918807106823,,
0.00368247143596481,-0.313214338412868,-0.0044620882900932,,
0.00369491221784307,-0.254096703592599,-0.00357937757006166,,
0.00370735299972133,-0.185067393625097,-0.00257256181721033,,
0.00371979378159959,-0.108941192460071,-0.00142278322139955,,
0.00373223456347785,-0.0293308795574966,-0.000246477297181968,,
0.00374467534535611,0.0502829837789199,0.000907261421585481,,
0.00375711612723437,0.129766972245407,0.00208707238090833,,
0.00376955690911262,0.204811995296953,0.00317428240786022,,
0.00378199769099088,0.271363421981986,0.00415602196148868,,
0.00379443847286914,0.327769199929616,0.00494723254655316,,
0.0038068792547474,0.371352763579593,0.00554852209172951,,
0.00381932003662566,0.40000309597831,0.0059378643450505,,
0.00383176081850392,0.413831822765751,0.00610975703680516,,
0.00384420160038218,0.411410178355334,0.00601408211480159,,
0.00385664238226044,0.393602018805086,0.00570764484666597,,
0.0038690831641387,0.360203549212492,0.00519183282101521,,
0.00388152394601696,0.313624910582324,0.00445994164928809,,
0.00389396472789522,0.254378927578677,0.00358526623511635,,
0.00390640550977348,0.185643451515915,0.00254711983039435,,
0.00391884629165174,0.109765958241501,0.00139137872508455,,
0.00393128707353,0.0303823405397199,0.00025941037870103,,
0.00394372785540826,-0.0493899076503754,-0.000907069082569212,,
0.00395616863728652,-0.129531862516408,-0.00210187389858429,,
0.00396860941916478,-0.204850908051858,-0.00316953403840081,,
0.00398105020104304,-0.271881891835891,-0.00414200869031633,,
0.0039934909829213,-0.328263846372444,-0.00493390104850056,,
0.00400593176479956,-0.372001001790413,-0.00553380815699889,,
0.00401837254667781,-0.401053846873765,-0.00595744857843883,,
0.00403081332855607,-0.414728271806445,-0.0061116289075871,,
