Time domain (s),Current (AC) (A),Potential (AC) (V),Frequency (Hz),Column 5
0,-0.293941624902913,-0.00655458420367694,3.9811,0.5
0.000613249164803697,-0.299274660567873,-0.00668414480283364,,
0.00122649832960739,-0.304931992859936,-0.00685730616545177,,
0.00183974749441109,-0.310047031887014,-0.00700031891113762,,
0.00245299665921479,-0.315004218625491,-0.00716371485889944,,
0.00306624582401849,-0.320288400320789,-0.00731578516696052,,
0.00367949498882218,-0.325337614304442,-0.00745492536969694,,
0.00429274415362588,-0.330204051953924,-0.00761192705004454,,
0.00490599331842958,-0.335078371566535,-0.00774917964616417,,
0.00551924248323328,-0.33990774268671,-0.00789631858193918,,
0.00613249164803697,-0.344697846008595,-0.00803569473550292,,
0.00674574081284067,-0.349273858169825,-0.00815956891972647,,
0.00735898997764437,-0.353830342944926,-0.00829870912246289,,
0.00797223914244807,-0.358465789368666,-0.00844525818117026,,
0.00858548830725176,-0.362777081182658,-0.00854263213812567,,
0.00919873747205546,-0.367091994439169,-0.00867611541978297,,
0.00981198663685916,-0.371172082001388,-0.00884054660179823,,
0.0104252358016629,-0.375514688641864,-0.00895946581865292,,
0.0110384849664666,-0.379200323004269,-0.00907855020108661,,
0.0116517341312702,-0.383554362041715,-0.00918376067488724,,
0.0122649832960739,-0.387240564473535,-0.00929258119634202,,
0.0128782324608776,-0.390891191558261,-0.00940026915382708,,
0.0134914816256813,-0.39463192865389,-0.00948755031415427,,
0.014104730790485,-0.39833652233301,-0.00963499303661886,,
0.0147179799552887,-0.401683942367654,-0.00975544593384958,,
0.0153312291200924,-0.405292035254956,-0.00986464397662834,,
0.0159444782848961,-0.408547357035746,-0.00995347946302871,,
0.0165577274496998,-0.411722865063774,-0.0100594685745588,,
0.0171709766145035,-0.414555259165338,-0.0101667554156375,,
0.0177842257793072,-0.417792899785596,-0.0102549066446396,,
0.0183974749441109,-0.420672230622549,-0.010358845933359,,
0.0190107241089146,-0.423399247847692,-0.0104497548376523,,
0.0196239732737183,-0.426275667328894,-0.0105367027174359,,
0.020237222438522,-0.428937072536642,-0.0106211731135351,,
0.0208504716033257,-0.431261044512073,-0.0107251802381176,,
0.0214637207681294,-0.433668735717492,-0.010832938980851,,
0.0220769699329331,-0.435981417313307,-0.0108924900202236,,
0.0226902190977368,-0.438383569841933,-0.0109639418294378,,
0.0233034682625405,-0.440282341860481,-0.0110356915265717,,
0.0239167174273442,-0.44211202243647,-0.0110915882775098,,
0.0245299665921479,-0.444276934975792,-0.0111597780665393,,
0.0251432157569516,-0.445967509553862,-0.0112503595890603,,
0.0257564649217553,-0.447977907212394,-0.0113162370599844,,
0.026369714086559,-0.449411359371647,-0.0113966019116925,,
0.0269829632513627,-0.45068220166095,-0.0114484167133218,,
0.0275962124161664,-0.45220746803935,-0.0114858621095815,,
0.0282094615809701,-0.453653204699695,-0.0115236378369992,,
0.0288227107457738,-0.454689576338091,-0.0116135351021214,,
0.0294359599105775,-0.455787938551363,-0.0116480783032076,,
0.0300492090753812,-0.456820830764594,-0.0116681577185931,,
0.0306624582401849,-0.457189507814718,-0.0117347430419987,,
0.0312757074049886,-0.458190659149404,-0.0117782081337343,,
0.0318889565697923,-0.459119452642396,-0.0118181280642933,,
0.032502205734596,-0.459313732382215,-0.0118438467044464,,
0.0331154548993997,-0.460057974324115,-0.0118725383250209,,
0.0337287040642034,-0.459936904530112,-0.0119179352641532,,
0.0343419532290071,-0.460138569172321,-0.0119621288540679,,
0.0349552023938107,-0.46025814778411,-0.0119386281516896,,
0.0355684515586144,-0.46035280235033,-0.0119888620827773,,
0.0361817007234181,-0.460155611254762,-0.0120053786406737,,
0.0367949498882218,-0.459778697198125,-0.0120108055096968,,
0.0374081990530255,-0.45979204682937,-0.0120415499024671,,
0.0380214482178292,-0.459127973683616,-0.0120541732717165,,
0.0386346973826329,-0.458839678455669,-0.0120840446464268,,
0.0392479465474366,-0.45795860279351,-0.0120658056474925,,
0.0398611957122403,-0.457082639756082,-0.0120439566009036,,
0.040474444877044,-0.456174012727311,-0.0120605911342135,,
0.0410876940418477,-0.45507451437521,-0.0120334803841806,,
0.0417009432066514,-0.45418917819244,-0.0120477790043023,,
0.0423141923714551,-0.453095360534485,-0.0120023112799217,,
0.0429274415362588,-0.45163705533834,-0.0120351113942729,,
0.0435406907010625,-0.450092829643225,-0.0119894047696798,,
0.0441539398658662,-0.448358726746256,-0.0119751297446404,,
0.0447671890306699,-0.447141140964579,-0.011985653151529,,
0.0453804381954736,-0.445077344781068,-0.0119489657473015,,
0.0459936873602773,-0.443272588250649,-0.0119195869199431,,
0.046606936525081,-0.441415001264665,-0.0118961599521983,,
0.0472201856898847,-0.439170843041995,-0.0118508573933962,,
0.0478334348546884,-0.437049316804218,-0.0118203489514532,,
0.0484466840194921,-0.435193221000447,-0.0117857349651187,,
0.0490599331842958,-0.432488074447769,-0.0117422934684654,,
0.0496731823490995,-0.429906482992783,-0.0116895319141426,,
0.0502864315139032,-0.42758904381562,-0.0116412799700019,,
0.0508996806787069,-0.424915425115457,-0.011586893304357,,
0.0515129298435106,-0.422144950580091,-0.0115400806602621,,
0.0521261790083143,-0.419465651185781,-0.0114969282033721,,
0.052739428173118,-0.416236744632774,-0.0114434381508701,,
0.0533526773379217,-0.41316341809071,-0.0113876829704282,,
0.0539659265027254,-0.409995934043164,-0.0113025991021787,,
0.0545791756675291,-0.406929779377461,-0.0112803489391839,,
0.0551924248323328,-0.403466260156194,-0.0112203466438543,,
0.0558056739971365,-0.399917530522725,-0.0111411173055016,,
0.0564189231619402,-0.396508829999973,-0.0110485036564825,,
0.0570321723267439,-0.393054683924047,-0.010950870153617,,
0.0576454214915475,-0.388985886741444,-0.010884656452764,,
0.0582586706563513,-0.385363308084068,-0.0108166082342307,,
0.0588719198211549,-0.381414941617376,-0.0107445046108565,,
0.0594851689859586,-0.377763675454558,-0.0106591376016145,,
0.0600984181507623,-0.373239570636094,-0.0105802828352002,,
0.060711667315566,-0.369367609505676,-0.0104742937236701,,
0.0613249164803697,-0.364979060251288,-0.0103775538845623,,
0.0619381656451734,-0.360513679608566,-0.01027550810123,,
0.0625514148099771,-0.356154598955065,-0.0101729638717756,,
0.0631646639747808,-0.35136492168524,-0.0100713840913267,,
0.0637779131395845,-0.346832579860263,-0.00994368455431882,,
0.0643911623043882,-0.342533359521333,-0.00984305447594913,,
0.0650044114691919,-0.337504880071315,-0.00976238288816633,,
0.0656176606339956,-0.332897553083601,-0.00964424230904104,,
0.0662309097987993,-0.327772714859119,-0.00954662945187268,,
0.066844158963603,-0.322845280756237,-0.00943943699112459,,
0.0674574081284067,-0.31747674075286,-0.00934687348165619,,
0.0680706572932104,-0.312579982398369,-0.00916825870554705,,
0.0686839064580141,-0.307300345258389,-0.00905000015100832,,
0.0692971556228178,-0.301933225428548,-0.00894545328890883,,
0.0699104047876215,-0.296544802995657,-0.0088219536766232,,
0.0705236539524252,-0.291219507276472,-0.00870142999414458,,
0.0711369031172289,-0.285593205776187,-0.00857068964085261,,
0.0717501522820326,-0.280144070924603,-0.00843407411196573,,
0.0723634014468363,-0.274611074825677,-0.00829292832719908,,
0.07297665061164,-0.268807677685367,-0.00817039906268979,,
0.0735898997764437,-0.262919354167563,-0.00801842313495937,,
0.0742031489412474,-0.257129306658498,-0.00789879901500878,,
0.0748163981060511,-0.251445843173361,-0.00774365544742484,,
0.0754296472708548,-0.245436449861554,-0.00761183266971344,,
0.0760428964356585,-0.239679066343833,-0.00746264096174309,,
0.0766561456004622,-0.233359294105584,-0.007319300834284,,
0.0772693947652659,-0.22724487896074,-0.007174356241201,,
0.0778826439300696,-0.221107741039309,-0.00700338627189012,,
0.0784958930948733,-0.214676414169753,-0.00686464423617394,,
0.079109142259677,-0.208459107452176,-0.00671772060552911,,
0.0797223914244806,-0.202384457166359,-0.00654311699348042,,
0.0803356405892844,-0.195966763962756,-0.00638425425098443,,
0.0809488897540881,-0.189522513514016,-0.00624376617914812,,
0.0815621389188917,-0.183087707219296,-0.00610285634520835,,
0.0821753880836954,-0.176595738939724,-0.00591702147379003,,
0.0827886372484991,-0.170010181224084,-0.00577346899058728,,
0.0834018864133028,-0.163415747423841,-0.00557803386989164,,
0.0840151355781065,-0.156770755445691,-0.00541970496614175,,
0.0846283847429102,-0.150113265940418,-0.00524831323472696,,
0.0852416339077139,-0.14343504190151,-0.00509511036269572,,
0.0858548830725176,-0.13668552515106,-0.00491951870655871,,
0.0864681322373213,-0.129902208270437,-0.00475876245867557,,
0.087081381402125,-0.123198989177284,-0.00460414093229611,,
0.0876946305669287,-0.116365966222877,-0.00444393327008585,,
0.0883078797317324,-0.109490054027662,-0.00426593196612712,,
0.0889211288965361,-0.102623799012497,-0.00409979898877122,,
0.0895343780613398,-0.0956444981838111,-0.00391535622723271,,
0.0901476272261435,-0.0887586447738395,-0.00371385422089565,,
0.0907608763909472,-0.0817733792163,-0.00356492205883496,,
0.0913741255557509,-0.0748077120535667,-0.00339428537006681,,
0.0919873747205546,-0.0677037199883603,-0.00318171137116874,,
0.0926006238853583,-0.0607749773375808,-0.0030162184104312,,
0.093213873050162,-0.0537740898711377,-0.00281648603529749,,
0.0938271222149657,-0.0467869070793237,-0.00264634189388069,,
0.0944403713797694,-0.0396552926388287,-0.00247617710676717,,
0.0950536205445731,-0.0326052671680163,-0.00225994881943414,,
0.0956668697093768,-0.0255475727601059,-0.00207609593496327,,
0.0962801188741805,-0.0185128851634897,-0.00191111911666031,,
0.0968933680389842,-0.0114129405928628,-0.00173750944747075,,
0.0975066172037879,-0.00440260897240077,-0.00156363433360118,,
0.0981198663685916,0.00273688743122277,-0.00136951463876667,,
0.0987331155333953,0.00982440548340364,-0.0011538585321893,,
0.099346364698199,0.0169412146147786,-0.00101309026874574,,
0.0999596138630027,0.0239770383502242,-0.000808638877070056,,
0.100572863027806,0.0310133591464075,-0.00060614587725949,,
0.10118611219261,0.0380452419002888,-0.000445864480415281,,
0.101799361357414,0.0451194103212248,-0.000270482230637192,,
0.102412610522217,0.0521541334221794,-9.76482497923037E-05,,
0.103025859687021,0.0591064154493294,0.000122659037464334,,
0.103639108851825,0.066119516408188,0.000297433713862372,,
0.104252358016629,0.0731283568464365,0.000471488740238168,,
0.104865607181432,0.0801755419701755,0.000675161494184451,,
0.105478856346236,0.0871011602391743,0.000864158106685498,,
0.10609210551104,0.0941006275320807,0.00102963042172544,,
0.106705354675843,0.100937342937683,0.00123611099051413,,
0.107318603840647,0.107843646846583,0.00140814273854728,,
0.107931853005451,0.114648834399671,0.00159032037214546,,
0.108545102170254,0.121500035575347,0.00176570262192355,,
0.109158351335058,0.128243303562235,0.0019569879574477,,
0.109771600499862,0.135093404103421,0.00217336076466212,,
0.110384849664666,0.141792575701995,0.00233165427578763,,
0.110998098829469,0.148652049388523,0.00252593618681596,,
0.111611347994273,0.155177746789591,0.00267059763890654,,
0.112224597159077,0.161836088398986,0.00286624806473146,,
0.11283784632388,0.168405811179691,0.00306852281002712,,
0.113451095488684,0.174872748900679,0.00322633262195771,,
0.114064344653488,0.181608028411424,0.00341757666608666,,
0.114677593818291,0.187929185318871,0.00356482767850475,,
0.115290842983095,0.194406348289323,0.00375368272050958,,
0.115904092147899,0.200775862105694,0.00393210873595695,,
0.116517341312703,0.207047881008772,0.00413257255865451,,
0.117130590477506,0.213301757194919,0.00428515605976498,,
0.11774383964231,0.219638571515608,0.00446759913804362,,
0.118357088807114,0.225881938417583,0.00462481317413532,,
0.118970337971917,0.231814287315024,0.00482965978344652,,
0.119583587136721,0.237959378208261,0.00497791358687927,,
0.120196836301525,0.24396017947017,0.00511160922428067,,
0.120810085466328,0.250066925677916,0.00528767573145705,,
0.121423334631132,0.255946444119793,0.00546619022846473,,
0.122036583795936,0.261454445164472,0.00564534769147595,,
0.122649832960739,0.267650378270322,0.00579528854332301,,
0.123263082125543,0.27315124294298,0.00597423954936049,,
0.123876331290347,0.278845322225304,0.0061258143606846,,
0.124489580455151,0.284485150878526,0.00629739190337597,,
0.125102829619954,0.289933469130327,0.00644385248052304,,
0.125716078784758,0.295402557420101,0.00661051044846905,,
0.126329327949562,0.300736161154476,0.00674646531503997,,
0.126942577114365,0.305960695561233,0.00689756232593908,,
0.127555826279169,0.311412173699153,0.00704809895362413,,
0.128169075443973,0.316569959949686,0.00721234432436368,,
0.128782324608776,0.321474103206567,0.00735636870922063,,
0.12939557377358,0.326509186463531,0.00752015987461796,,
0.130008822938384,0.331316757919917,0.00763171742566726,,
0.130622072103188,0.336051900525933,0.00779351480657509,,
0.131235321267991,0.341072213978115,0.00794081300915828,,
0.131848570432795,0.345607112115458,0.008090205275332,,
0.132461819597599,0.350364409428646,0.00821051660206651,,
0.133075068762402,0.354577496242576,0.00834889586338594,,
0.133688317927206,0.358988839282227,0.00847541269687291,,
0.13430156709201,0.363476019588738,0.00859338811041921,,
0.134914816256813,0.367913209786757,0.00872007010948517,,
0.135528065421617,0.371912134431355,0.00885746427610101,,
0.136141314586421,0.376209295518657,0.00897638349295571,,
0.136754563751224,0.379918220727064,0.00912453701728744,,
0.137367812916028,0.383921405892272,0.00922599587293726,,
0.137981062080832,0.387600791491115,0.00933033332867739,,
0.138594311245636,0.391552282339588,0.00945222552595348,,
0.139207560410439,0.395199003947088,0.00957187619037203,,
0.139820809575243,0.39870370820092,0.00968157562865812,,
0.140434058740047,0.402205572107678,0.00977882866081492,,
0.14104730790485,0.405657161871238,0.00988871096099198,,
0.141660557069654,0.408950828337518,0.0100205838782541,,
0.142273806234458,0.412077482395884,0.0101343357719954,,
0.142887055399261,0.415085125911876,0.0102091321841837,,
0.143500304564065,0.417909283006928,0.0103222706057746,,
0.144113553728869,0.421002989039243,0.0103939524670453,,
0.144726802893673,0.424028242707089,0.0104862564306041,,
0.145340052058476,0.426154242491507,0.0105848130910804,,
0.14595330122328,0.428974991170071,0.0107035140534202,,
0.146566550388084,0.431430471215,0.0107802039709961,,
0.147179799552887,0.433745638114504,0.0108583980750945,,
0.147793048717691,0.436063361326374,0.0109108971341225,,
0.148406297882495,0.438282240460091,0.0110216996425252,,
0.149019547047298,0.440282412869158,0.011106246722643,,
0.149632796212102,0.442284573521177,0.0111629869977885,,
0.150246045376906,0.443911808359511,0.0112174916388468,,
0.15085929454171,0.446057974608149,0.0112993193856825,,
0.151472543706513,0.447476727971298,0.011374918030683,,
0.152085792871317,0.449325225846647,0.0114367666412343,,
0.152699042036121,0.450498005153242,0.0115086077693136,,
0.153312291200924,0.451953967063051,0.0115259265600223,,
0.153925540365728,0.453466735914328,0.0115816168539866,,
0.154538789530532,0.454298673572119,0.0116409053980644,,
0.155152038695335,0.455187986240791,0.0116755901696468,,
0.155765287860139,0.456226133096108,0.0117240780646144,,
0.156378537024943,0.457159471144417,0.0117824758943197,,
0.156991786189747,0.457898813487615,0.0118021541932993,,
0.15760503535455,0.458177167500806,0.0118547948228236,,
0.158218284519354,0.459003140429742,0.0118850673139397,,
0.158831533684158,0.458975020993715,0.0119302990874934,,
0.159444782848961,0.459698173358595,0.0119278451988918,,
0.160058032013765,0.459719191926938,0.0119789993382051,,
0.160671281178569,0.459505597827021,0.0120053078554263,,
0.161284530343372,0.459835646156947,0.0120436262697461,,
0.161897779508176,0.459276097783493,0.0120328197218651,,
0.16251102867298,0.459086930668406,0.0120681828520754,,
0.163124277837783,0.458527950364367,0.0120842805972541,,
0.163737527002587,0.458391329670138,0.012094332102488,,
0.164350776167391,0.457679822728258,0.0120895835920929,,
0.164964025332195,0.457269392576156,0.0120959365681124,,
0.165577274496998,0.456139786545077,0.0120993342600224,,
0.166190523661802,0.455464920080444,0.0120965028500972,,
0.166803772826606,0.454556293051673,0.0120642247769513,,
0.167417021991409,0.45311879339784,0.0120950399549695,,
0.168030271156213,0.452219539514411,0.0120842334070885,,
0.168643520321017,0.450598837474346,0.0120549519094464,,
0.16925676948582,0.449409868189434,0.0120171761820287,,
0.169870018650624,0.447833191529006,0.0120173177525253,,
0.170483267815428,0.446345417731974,0.0119776485197201,,
0.171096516980232,0.444249809661242,0.0119616569524141,,
0.171709766145035,0.442564347707904,0.0119020557734904,,
0.172323015309839,0.440538044105761,0.0118977614684375,,
0.172936264474643,0.438373415601146,0.011886836945143,,
0.173549513639446,0.436566386793068,0.0118386557862507,,
0.17416276280425,0.433961788526787,0.011778157994184,,
0.174776011969054,0.43177926583561,0.0117866994141247,,
0.175389261133857,0.429006803057293,0.0117288678664043,,
0.176002510298661,0.42671066648318,0.0116363043569359,,
0.176615759463465,0.423971719800329,0.0116124497283168,,
0.177229008628269,0.421294124614263,0.0115643393546727,,
0.177842257793072,0.418320565263152,0.0114896137277327,,
0.178455506957876,0.415151305998685,0.0114632639191168,,
0.17906875612268,0.412227452721358,0.011395988439542,,
0.179682005287483,0.409061317838672,0.0113102910991421,,
0.180295254452287,0.40581906165442,0.0112600571680543,,
0.180908503617091,0.402421722519962,0.0111912598056447,,
0.181521752781894,0.398930651932082,0.0110974929469583,,
0.182135001946698,0.395704869760856,0.0110580832600631,,
0.182748251111502,0.391871821385342,0.0109634138894625,,
0.183361500276306,0.388095011881882,0.0108724548456185,,
0.183974749441109,0.384440905371991,0.0108021709929984,,
0.184587998605913,0.380512421334813,0.0107285779300281,,
0.185201247770717,0.376282292438442,0.0106098887652299,,
0.18581449693552,0.372440723021709,0.0105244096793449,,
0.186427746100324,0.368220819374803,0.0104572816690371,,
0.187040995265128,0.364097203493684,0.0103586306282297,,
0.187654244429931,0.359724205139523,0.0102276307290277,,
0.188267493594735,0.354997867609435,0.010155783702178,,
0.188880742759539,0.350595613680418,0.0100488743824223,,
0.189493991924342,0.34599936404629,0.00993502810835034,,
0.190107241089146,0.341393173197406,0.00983539197283978,,
0.19072049025395,0.336869352413649,0.00974102933831489,,
0.191333739418754,0.331785131152316,0.00961815204633565,,
0.191946988583557,0.326980116008296,0.00951094778804595,,
0.192560237748361,0.321830850798983,0.00941040914062219,,
0.193173486913165,0.316844053442266,0.00929810244569662,,
0.193786736077968,0.311909802506407,0.00917511897584511,,
0.194399985242772,0.306553760030153,0.00900967615465875,,
0.195013234407576,0.301331213866347,0.00892209120764198,,
0.195626483572379,0.296044191823976,0.00880062372185453,,
0.196239732737183,0.29054215550815,0.00866525873235169,,
0.196852981901987,0.285118228736842,0.00855540592602777,,
0.197466231066791,0.279350335934949,0.00840937006036979,,
0.198079480231594,0.273842299385931,0.00829009691727434,,
0.198692729396398,0.268111934669745,0.00815327493141416,,
0.199305978561202,0.262300584557629,0.00798236394980956,,
0.199919227726005,0.256542952509539,0.00786085517262736,,
0.200532476890809,0.250585004984099,0.00773110581280934,,
0.201145726055613,0.244660609058463,0.00758151298843268,,
0.201758975220416,0.238527731657642,0.00742644020609662,,
0.20237222438522,0.232607028183202,0.00726564561620391,,
0.202985473550024,0.226379247685792,0.00715569253077852,,
0.203598722714828,0.220245021120111,0.00699501001752845,,
0.204211971879631,0.214042235676946,0.0068195333874197,,
0.204825221044435,0.20787268229454,0.00664965469068379,,
0.205438470209239,0.201331966558322,0.00650843222189801,,
0.206051719374042,0.195085475274566,0.00637617588454198,,
0.206664968538846,0.188736731496168,0.00620879826657328,,
