Time domain (s),Current (AC) (A),Potential (AC) (V),Frequency (Hz),Column 5
0,-0.0105445497394641,-0.00181731735725066,0.063096,0.3
0.0386935186065678,-0.00614883748096726,-0.00169357994802599,,
0.0773870372131355,-0.00179473856232629,-0.00157041892838627,,
0.116080555819703,0.00257482540358175,-0.00140358809132746,,
0.154774074426271,0.00693939763477614,-0.00125097053027234,,
0.193467593032839,0.0112951760155638,-0.00110927403503513,,
0.232161111639407,0.0156664427694816,-0.000939541025855917,,
0.270854630245974,0.0200285657850455,-0.00081522433787562,,
0.309548148852542,0.0243899423729886,-0.000684577476560033,,
0.34824166745911,0.0287205288215765,-0.000534560169271003,,
0.386935186065678,0.033106724127909,-0.000399611332557281,,
0.425628704672246,0.0373833811808989,-0.000261972677781497,,
0.464322223278813,0.0417260970783237,-0.000102952714119198,,
0.503015741885381,0.0459650595364666,4.20605492550408E-05,,
0.541709260491949,0.0502596308523541,0.000196296045987143,,
0.580402779098517,0.0545941360459508,0.000359430188941801,,
0.619096297705084,0.0588780707682429,0.00047988550007938,,
0.657789816311652,0.0631498527158349,0.000635253551785286,,
0.69648333491822,0.067468333041449,0.000752207187850296,,
0.735176853524788,0.0716498438986587,0.000890321111231884,,
0.773870372131355,0.0758210213984937,0.00106829403567899,,
0.812563890737923,0.0800560884374909,0.00120042159705624,,
0.851257409344491,0.0841926037046882,0.00136175289739926,,
0.889950927951059,0.0883813689053368,0.00148770630066686,,
0.928644446557626,0.0925122859653786,0.00163859324838223,,
0.967337965164194,0.0966053218236682,0.0017644570873534,,
1.00603148377076,0.100746852151442,0.00190840713585461,,
1.04472500237733,0.104769560532341,0.00206558958685532,,
1.0834185209839,0.108817087631629,0.00218701565939883,,
1.12211203959047,0.112915301831537,0.00230723694769708,,
1.16080555819703,0.116907220073081,0.00248458003289898,,
1.1994990768036,0.120849477551982,0.00262314177776224,,
1.23819259541017,0.124768035953926,0.00275785803622197,,
1.27688611401674,0.128553170418663,0.002874603651986,,
1.3155796326233,0.132470049358459,0.00304672889463031,,
1.35427315122987,0.13637591849085,0.00317469604998122,,
1.39296666983644,0.140153402072475,0.00330842132283937,,
1.43166018844301,0.143935737433634,0.00344152831313504,,
1.47035370704958,0.147560016746104,0.00354663634870933,,
1.50904722565614,0.151316600354348,0.00372530267416149,,
1.54774074426271,0.155163874918511,0.00384511081102801,,
1.58643426286928,0.158702501661501,0.00397408628700591,,
1.62512778147585,0.162318966809816,0.00410247815047216,,
1.66382130008241,0.165837043467373,0.00423652412129494,,
1.70251481868898,0.169329788237551,0.0043576381633863,,
1.74120833729555,0.172687942777366,0.00448613403700326,,
1.77990185590212,0.17632789706987,0.00460876489379158,,
1.81859537450869,0.179763680082241,0.00473728965911668,,
1.85728889311525,0.183051903684339,0.00484293796964064,,
1.89598241172182,0.18621337454609,0.00499896475230077,,
1.93467593032839,0.189680554170258,0.0051228408417261,,
1.97336944893496,0.192855320774004,0.00520877633953099,,
2.01206296754152,0.196021830022196,0.00534939806321111,,
2.05075648614809,0.19904038332044,0.00548734152551189,,
2.08945000475466,0.202061922329168,0.00560869825795507,,
2.12814352336123,0.205163329093313,0.00570113727934629,,
2.1668370419678,0.208195691302541,0.00581204676999025,,
2.20553056057436,0.211019240384869,0.00591889986475946,,
2.24422407918093,0.21395270093435,0.006059937629042,,
2.2829175977875,0.21675329736734,0.00615673640924808,,
2.32161111639407,0.219431666277436,0.00625892060392097,,
2.36030463500063,0.222191582405096,0.00636142838572962,,
2.3989981536072,0.225000016328104,0.00650663811272167,,
2.43769167221377,0.227873762667926,0.00658543158018166,,
2.47638519082034,0.230210267727726,0.00670238232707598,,
2.51507870942691,0.232623095011746,0.00680757125943465,,
2.55377222803347,0.235108885595692,0.00689682930371838,,
2.59246574664004,0.237542799459997,0.00699968089685798,,
2.63115926524661,0.239652763736904,0.00708830910189606,,
2.66985278385318,0.242046183902785,0.00717616300914603,,
2.70854630245974,0.244510328085729,0.00726216784705125,,
2.74723982106631,0.246574200457056,0.00735272601821801,,
2.78593333967288,0.249076599055564,0.00744027656252833,,
2.82462685827945,0.250996410896089,0.00753255956869392,,
2.86332037688602,0.253008966368491,0.00762828068817223,,
2.90201389549258,0.254573292054642,0.00773108316540716,,
2.94070741409915,0.256729534844034,0.0078117574830916,,
2.97940093270572,0.258741343888815,0.0078901580233155,,
3.01809445131229,0.260124287663128,0.00798455301337286,,
3.05678796991885,0.262075262856819,0.00805148932365851,,
3.09548148852542,0.263693704545474,0.00813235143744828,,
3.13417500713199,0.265082246526942,0.00820186488813324,,
3.17286852573856,0.266996833374123,0.0082899383723678,,
3.21156204434513,0.268239448755738,0.0083309039258701,,
3.25025556295169,0.269582458652342,0.00841650716902675,,
3.28894908155826,0.270764613396678,0.00849602004002881,,
3.32764260016483,0.272274823080326,0.00853137193456677,,
3.3663361187714,0.273462016211102,0.00858799968325474,,
3.40502963737796,0.274526795212077,0.00864086862066493,,
3.44372315598453,0.275646436643177,0.00870558604773652,,
3.4824166745911,0.276633773778502,0.00876618929551576,,
3.52111019319767,0.277734754519083,0.00883957134597102,,
3.55980371180424,0.278625056063712,0.0088714013412412,,
3.5984972304108,0.279197939262625,0.00890718083306519,,
3.63719074901737,0.27990051426064,0.00894597661925811,,
3.67588426762394,0.2807919354467,0.0090250936738534,,
3.71457778623051,0.28164696828625,0.00904866930800097,,
3.75327130483707,0.281905792063739,0.0091037137910619,,
3.79196482344364,0.282137557839977,0.00911047156168365,,
3.83065834205021,0.282821285540568,0.00915523059651369,,
3.86935186065678,0.283234619835549,0.00920933320987727,,
3.90804537926334,0.283440447251966,0.00923637295987589,,
3.94673889786991,0.283795000371814,0.0092909898456508,,
3.98543241647648,0.283910883259933,0.00931648388924389,,
4.02412593508305,0.283757305776967,0.00934315671454433,,
4.06281945368962,0.283877853837716,0.00935814573292149,,
4.10151297229618,0.28380638339303,0.00936745175223397,,
4.14020649090275,0.283796120013245,0.00940209579991302,,
4.17890000950932,0.283697964781119,0.00943307926812365,,
4.21759352811589,0.283314114377157,0.00941276261869639,,
4.25628704672245,0.282934555932014,0.00944352650992242,,
4.29498056532902,0.282663229491878,0.00944218593464763,,
4.33367408393559,0.282224143443982,0.0094704998089914,,
4.37236760254216,0.281805584155656,0.00946290706799369,,
4.41106112114873,0.281237552736278,0.00946764530819033,,
4.44975463975529,0.280587041064809,0.00947109208901598,,
4.48844815836186,0.279736673397889,0.00948207960576397,,
4.52714167696843,0.278877908420235,0.00947472955511763,,
4.565835195575,0.278194553933454,0.00944705129836132,,
4.60452871418156,0.277244164965356,0.00946806134879274,,
4.64322223278813,0.276423281189455,0.00944893792692714,,
4.6819157513947,0.275328085262934,0.0094485189971536,,
4.72060927000127,0.274404940902993,0.00942498958973959,,
4.75930278860784,0.272943435621597,0.00942777475044077,,
4.7979963072144,0.271666111355618,0.00939927596916235,,
4.83668982582097,0.270575020781011,0.00937519184094482,,
4.87538334442754,0.269088323567416,0.00937752629099275,,
4.91407686303411,0.267767519892529,0.0093317762705607,,
4.95277038164067,0.266381777014639,0.00929491045049646,,
4.99146390024724,0.264418672372111,0.00926245928349312,,
5.03015741885381,0.263212818550816,0.00924942045544075,,
5.06885093746038,0.261514882320554,0.00922991566302267,,
5.10754445606695,0.259903345087391,0.00916492954306181,,
5.14623797467351,0.257959834169908,0.00914504049092058,,
5.18493149328008,0.256192480170917,0.00909712359234982,,
5.22362501188665,0.254370077134897,0.00904335323363403,,
5.26231853049322,0.252256194112981,0.0090246169606627,,
5.30101204909978,0.250477270485869,0.00897837000284429,,
5.33970556770635,0.248330917862451,0.0089146464505454,,
5.37839908631292,0.246027255617964,0.0088459419676985,,
5.41709260491949,0.243987828751216,0.00881153772119969,,
5.45578612352606,0.24155820684573,0.0087512002771386,,
5.49447964213262,0.23911869477427,0.00869788929658855,,
5.53317316073919,0.236821750378369,0.00864939745301818,,
5.57186667934576,0.234399779355995,0.00859219475933104,,
5.61056019795233,0.232024086846107,0.00850553985798408,,
5.64925371655889,0.229721730849956,0.00844606916517865,,
5.68794723516546,0.226840333627022,0.00842067046422379,,
5.72664075377203,0.224286991343399,0.00834227859151238,,
5.7653342723786,0.221620565275235,0.00826878675256459,,
5.80402779098517,0.218740474300637,0.00817288072615208,,
5.84272130959173,0.216027769719988,0.00811116803676581,,
5.8814148281983,0.213199368858125,0.00801365274218835,,
5.92010834680487,0.210258630639342,0.00796699841128001,,
5.95880186541144,0.207356706656837,0.00788045040925489,,
5.997495384018,0.204493596910611,0.00780727348992993,,
6.03618890262457,0.201336394681815,0.00769085146130122,,
6.07488242123114,0.198242265586972,0.0076236464581263,,
6.11357593983771,0.195120518670161,0.00754307615059302,,
6.15226945844428,0.191786016555578,0.00745823564854087,,
6.19096297705084,0.188554194890572,0.00736119706715455,,
6.22965649565741,0.185377772150543,0.00725343099439657,,
6.26835001426398,0.182013646189762,0.0071666980854368,,
6.30704353287055,0.178648703823771,0.00707050025276779,,
6.34573705147711,0.175173360147502,0.00697815368484411,,
6.38443057008368,0.171875083098387,0.00686644100470302,,
6.42312408869025,0.168276952078507,0.00677952607797971,,
6.46181760729682,0.164765919831621,0.00666095450623772,,
6.50051112590339,0.161288313546626,0.00654096146243655,,
6.53920464450995,0.1576476128265,0.0064679347799963,,
6.57789816311652,0.153993849623012,0.00636399396944531,,
6.61659168172309,0.150205169627076,0.00625545359889923,,
6.65528520032966,0.146519496642802,0.00614964349480784,,
6.69397871893622,0.142919266295238,0.0060102901171315,,
6.73267223754279,0.139001850860589,0.00592969380706032,,
6.77136575614936,0.135228845844689,0.00578908364006336,,
6.81005927475593,0.131311197151408,0.00568817068056493,,
6.8487527933625,0.127410949552036,0.00556480308520957,,
6.88744631196906,0.12359166602365,0.00544139215229089,,
6.92613983057563,0.119712295071796,0.00534501808020016,,
6.9648333491822,0.115552827155261,0.00522716302282911,,
7.00352686778877,0.111558506349813,0.00509683830406349,,
7.04222038639533,0.107643516804932,0.00496659448208137,,
7.0809139050019,0.103527878185252,0.00481969747931199,,
7.11960742360847,0.0995188154342945,0.00469131717252891,,
7.15830094221504,0.0953528162760782,0.00461158472454271,,
7.19699446082161,0.0912913169847646,0.00445808596637765,,
7.23568797942817,0.0871010589288745,0.00435405559153024,,
7.27438149803474,0.0829916016629288,0.00419743941801665,,
7.31307501664131,0.078729313341638,0.00406549676357404,,
7.35176853524788,0.0745315676836774,0.00393871127910117,,
7.39046205385444,0.070413176612146,0.00381420823960132,,
7.42915557246101,0.0662253444460233,0.00366876737894062,,
7.46784909106758,0.0618477097314661,0.0035366398175638,,
7.50654260967415,0.0575768608184,0.00340377262844838,,
7.54523612828072,0.0533106537521004,0.00328016523191232,,
7.58392964688728,0.0490377288372141,0.00314139257757695,,
7.62262316549385,0.0447015441814707,0.00299818793515572,,
7.66131668410042,0.0403640532773911,0.00287079861397466,,
7.70001020270699,0.0360239498766388,0.00270013240261058,,
7.73870372131355,0.0317607285208221,0.00260457018752902,,
7.77739723992012,0.0274215581545958,0.00245890974988416,,
7.81609075852669,0.0230687654842911,0.00233468695995631,,
7.85478427713326,0.0187269826213922,0.00216355559208514,,
7.89347779573983,0.0143653961006808,0.00202588082267319,,
7.93217131434639,0.0100152625787749,0.00188925771145154,,
7.97086483295296,0.00558428161519846,0.00172401158460467,,
8.00955835155953,0.00125047619749616,0.00157148358784553,,
8.0482518701661,-0.00311554223721339,0.00144533083178944,,
8.08694538877266,-0.00749371344662301,0.00128226602893511,,
8.12563890737923,-0.0118838274979644,0.00115664488031531,,
8.1643324259858,-0.0162371799889846,0.00100758677774904,,
8.20302594459237,-0.020588666410953,0.00088617226188914,,
8.24171946319894,-0.0248783859473058,0.000715260471002566,,
8.2804129818055,-0.0293067544142097,0.000599058019358445,,
8.31910650041207,-0.0336136884375656,0.000444891862726671,,
8.35780001901864,-0.0379468407310997,0.000296457821064244,,
8.39649353762521,-0.0422089424454854,0.000164122239386,,
8.43518705623177,-0.0466097397421484,-1.93863364117419E-06,,
8.47388057483834,-0.0508622778526434,-0.000146475183825157,,
8.51257409344491,-0.0552270600166061,-0.000292701898957137,,
8.55126761205148,-0.0594695213542212,-0.000454044755983762,,
8.58996113065805,-0.0637937631680329,-0.000594978510116029,,
8.62865464926461,-0.0680083267733231,-0.000728816460636939,,
8.66734816787118,-0.0721757721350545,-0.000859175849452942,,
8.70604168647775,-0.076373821029236,-0.00102169748818692,,
8.74473520508432,-0.080624633025858,-0.00115433354363415,,
8.78342872369088,-0.0848387301138853,-0.00130358810981823,,
8.82212224229745,-0.0889832694780054,-0.00142954440225651,,
8.86081576090402,-0.0930298402169044,-0.00158885183841839,,
8.89950927951059,-0.0972089018584835,-0.00174475438673172,,
8.93820279811716,-0.101194965308377,-0.00187694984362397,,
8.97689631672372,-0.105383590553847,-0.00200705498540499,,
9.01558983533029,-0.10938350956645,-0.00216614428916762,,
9.05428335393686,-0.11332427419011,-0.00228381443960402,,
9.09297687254343,-0.117384513884813,-0.00243034307309031,,
9.13167039114999,-0.12132859078104,-0.00259266680362069,,
9.17036390975656,-0.125180903731644,-0.00269189248734181,,
9.20905742836313,-0.129121668355304,-0.00285235703642961,,
9.2477509469697,-0.133016527680289,-0.00297727322736163,,
9.28644446557627,-0.13695878515919,-0.00312535912393663,,
9.32513798418283,-0.140761134110931,-0.00324705388936941,,
9.3638315027894,-0.144533532654389,-0.00338874894002084,,
9.40252502139597,-0.148050326389473,-0.00355310953600174,,
9.44121854000254,-0.151849269765193,-0.00366738057693139,,
9.4799120586091,-0.155519081162527,-0.00380326406041576,,
9.51860557721567,-0.159214084492061,-0.00394246431203671,,
9.55729909582224,-0.162691317563246,-0.00405647099383399,,
9.59599261442881,-0.166307012958077,-0.0041808324639625,,
9.63468613303538,-0.169759613917777,-0.00432977644428023,,
9.67337965164194,-0.173164630116656,-0.0044750309534205,,
9.71207317024851,-0.176734606819717,-0.00462726569933825,,
9.75076668885508,-0.180250514172001,-0.00470444267570658,,
9.78946020746165,-0.183385463527354,-0.00483103458573231,,
9.82815372606821,-0.18685033389107,-0.00496345106419449,,
9.86684724467478,-0.190085631109685,-0.0050926894547203,,
9.90554076328135,-0.193347473160562,-0.0051988491484849,,
9.94423428188792,-0.196564016385206,-0.00531835681158288,,
9.98292780049449,-0.199774961402694,-0.00544202632529256,,
10.0216213191011,-0.202841146113487,-0.0055705583135448,,
10.0603148377076,-0.20566110301289,-0.0056771687179622,,
10.0990083563142,-0.208654837592745,-0.00578274913297117,,
10.1377018749208,-0.211874553134777,-0.00589968110025518,,
10.1763953935273,-0.214693110482391,-0.0060218814705868,,
10.2150889121339,-0.217382255941261,-0.00613847540488122,,
10.2537824307405,-0.220012107056008,-0.00623110366696311,,
10.292475949347,-0.223008034266999,-0.00635782270050633,,
10.3311694679536,-0.225534925021812,-0.00646793477999585,,
10.3698629865602,-0.228173546661103,-0.00655777643679123,,
10.4085565051667,-0.230716998778751,-0.00665564998855395,,
10.4472500237733,-0.233243656274932,-0.00676397078211544,,
10.4859435423799,-0.235902804673794,-0.00685051878414056,,
10.5246370609864,-0.238338024786435,-0.00696835072814483,,
10.563330579593,-0.240507936531633,-0.00707544651326497,,
10.6020240981996,-0.242842715477559,-0.00717245331377248,,
10.6407176168061,-0.244832131693718,-0.0072518708421363,,
10.6794111354127,-0.247360095438236,-0.00733945894566768,,
10.7181046540193,-0.249529354059265,-0.00744165469702418,,
10.7567981726258,-0.251496657357159,-0.00753193550778919,,
10.7954916912324,-0.253477443003953,-0.00760452303626025,,
10.834185209839,-0.255399494127341,-0.00768941843255844,,
10.8728787284455,-0.257381072853482,-0.00778518866794142,,
10.9115722470521,-0.259025452901957,-0.0078877195631164,,
10.9502657656587,-0.260850048569112,-0.00794988296315546,,
10.9889592842652,-0.262640168610535,-0.00800924964581062,,
11.0276528028718,-0.264342630058248,-0.00810817485576321,,
11.0663463214784,-0.265913113772271,-0.00814871570115017,,
11.105039840085,-0.267294191477532,-0.00822106198385519,,
11.1437333586915,-0.268593348751418,-0.00830530876129698,,
11.1824268772981,-0.270326880248844,-0.0083822416027286,,
11.2211203959047,-0.271443396014282,-0.00845664353049447,,
11.2598139145112,-0.272920949489523,-0.00848946595595201,,
11.2985074331178,-0.273943741936832,-0.00857359716655992,,
11.3372009517244,-0.274939243124259,-0.00861161865496474,,
11.3758944703309,-0.276022729467479,-0.00868396349308398,,
11.4145879889375,-0.27720973599135,-0.00876183098128624,,
11.4532815075441,-0.278151167827999,-0.00880236171457538,,
11.4919750261506,-0.279060503276957,-0.00883785373389934,,
11.5306685447572,-0.279554078541167,-0.00890456902261505,,
11.5693620633638,-0.280537683538388,-0.008957151932111,,
11.6080555819703,-0.281346437865452,-0.00896586711598424,,
11.6467491005769,-0.28186333899281,-0.00904254426579554,,
11.6854426191835,-0.282380426727073,-0.00906413215039725,,
11.72413613779,-0.282879040377722,-0.00911708487376206,,
11.7628296563966,-0.283414042374883,-0.00912260896842998,,
11.8015231750032,-0.283816553469363,-0.00919320730276985,,
11.8402166936097,-0.28380311777219,-0.00922096934548122,,
11.8789102122163,-0.284161776243952,-0.00925752169050753,,
11.9176037308229,-0.284044587107497,-0.00928546575098244,,
11.9562972494294,-0.284475462451565,-0.00930933030221537,,
11.994990768036,-0.28429832584682,-0.00932695424440899,,
12.0336842866426,-0.284289601974002,-0.00933691610550458,,
12.0723778052491,-0.284265343076329,-0.0093620287785452,,
12.1110713238557,-0.283812074903639,-0.0093702918071803,,
12.1497648424623,-0.283832601663209,-0.00941342134965018,,
12.1884583610688,-0.28348938491285,-0.00940570148513542,,
12.2271518796754,-0.282914449037981,-0.00945274874327984,,
12.265845398282,-0.282574497908463,-0.00943839534249014,,
12.3045389168886,-0.282007959344327,-0.00944908527464028,,
12.3432324354951,-0.281617764305589,-0.0094186334138664,,
12.3819259541017,-0.280698538690656,-0.00943420026641384,,
12.4206194727083,-0.280049706481334,-0.00943146133244666,,
12.4593129913148,-0.278963281079357,-0.00941374493678548,,
12.4980065099214,-0.278620110980725,-0.00942740493657102,,
12.536700028528,-0.277381974164834,-0.00939873280504155,,
12.5753935471345,-0.27641628343051,-0.00941575579969811,,
12.6140870657411,-0.275471865883378,-0.00939879058845872,,
12.6527805843477,-0.274318588557619,-0.00940605974232067,,
12.6914741029542,-0.273205711626832,-0.00935154686669648,,
12.7301676215608,-0.271718641199427,-0.00937573500506428,,
12.7688611401674,-0.270572501587792,-0.00932542876219955,,
12.8075546587739,-0.269249272023137,-0.00931272941172212,,
12.8462481773805,-0.267762201595732,-0.00929047123948257,,
12.8849416959871,-0.266458565756121,-0.00925822664819531,,
12.9236352145936,-0.264737490269616,-0.00923689301062858,,
12.9623287332002,-0.263073143282287,-0.00920207272352735,,
13.0010222518068,-0.261442152279259,-0.00914040626087465,,
13.0397157704133,-0.259582474513929,-0.0091256816016303,,
13.0784092890199,-0.25782706335687,-0.00912853754701715,,
13.1171028076265,-0.256001674610367,-0.00903750555183036,,
13.155796326233,-0.254040436036891,-0.00903285976510126,,
13.1944898448396,-0.252209822297043,-0.0089550717290976,,
13.2331833634462,-0.249813369768954,-0.00892040167888064,,
13.2718768820527,-0.24803635886262,-0.00886403973391126,,
