Time domain (s),Current (AC) (A),Potential (AC) (V),Frequency (Hz),Column 5
0,-0.0887647870243857,0.00745029372841488,0.0031623,0.5
0.772034990355121,-0.0957295310743201,0.00711771315936716,,
1.54406998071024,-0.102672191425759,0.00671537970928648,,
2.31610497106536,-0.109545547308608,0.00631638976311599,,
3.08813996142049,-0.116341645751061,0.00594326293723446,,
3.86017495177561,-0.123170692219565,0.00554560035755491,,
4.63220994213073,-0.129899190401672,0.00513690375883158,,
5.40424493248585,-0.136701537607686,0.00473139101512832,,
6.17627992284097,-0.143409940334249,0.00433013405471039,,
6.94831491319609,-0.150198298830927,0.00393305533383082,,
7.72034990355121,-0.156749275320949,0.00354176502558801,,
8.49238489390633,-0.163502484522594,0.00313931754058538,,
9.26441988426146,-0.169996086001733,0.00272842690996455,,
10.0364548746166,-0.176470302112096,0.00232041908216951,,
10.8084898649717,-0.183094062495873,0.00191861475412658,,
11.5805248553268,-0.189472913953248,0.00152295918907264,,
12.3525598456819,-0.195836782579811,0.00108801631272293,,
13.1245948360371,-0.20229111626066,0.000710647387746288,,
13.8966298263922,-0.208411496134359,0.000325394088268816,,
14.6686648167473,-0.214676733708799,-0.000112630011670944,,
15.4406998071024,-0.221047348159661,-0.000503122075460549,,
16.2127347974575,-0.227043320831546,-0.000925598654147208,,
16.9847697878127,-0.233202684468826,-0.00132638122929007,,
17.7568047781678,-0.239306803355529,-0.0017394430848241,,
18.5288397685229,-0.245256194335411,-0.00214312442768172,,
19.300874758878,-0.251106102159047,-0.00254485577337471,,
20.0729097492332,-0.25731297060113,-0.00295146097163013,,
20.8449447395883,-0.262915768229383,-0.00336549212400028,,
21.6169797299434,-0.268615776736223,-0.00377138118294607,,
22.3890147202985,-0.274272327932839,-0.00417480936827719,,
23.1610497106536,-0.280182522123108,-0.00457046721402943,,
23.9330847010088,-0.285677954631988,-0.00496239839853363,,
24.7051196913639,-0.290780709157975,-0.005381171122957,,
25.477154681719,-0.296404596363248,-0.00577512984837281,,
26.2491896720741,-0.301788474240821,-0.00616301279314913,,
27.0212246624292,-0.307304428257306,-0.00658558059977343,,
27.7932596527844,-0.312356624605387,-0.00696216952588413,,
28.5652946431395,-0.31745923711402,-0.0073639350820538,,
29.3373296334946,-0.322612194774528,-0.0077726020316975,,
30.1093646238497,-0.327480052597547,-0.008150762359032,,
30.8813996142048,-0.332207810301172,-0.00853472022179647,,
31.65343460456,-0.337304955141689,-0.00896351205445844,,
32.4254695949151,-0.342189002943026,-0.00936150305471273,,
33.1975045852702,-0.346606381720208,-0.0096892645079607,,
33.9695395756253,-0.351398260259014,-0.0100886969096283,,
34.7415745659805,-0.355925205424552,-0.0104647384681136,,
35.5136095563356,-0.360249846869788,-0.0108517456246902,,
36.2856445466907,-0.364591743423496,-0.0112163654453972,,
37.0576795370458,-0.369025170161643,-0.0115767522898031,,
37.8297145274009,-0.372920138103355,-0.0119353898385071,,
38.6017495177561,-0.376958827606981,-0.0123301490890744,,
39.3737845081112,-0.381242639063038,-0.0126860475189541,,
40.1458194984663,-0.385119144748773,-0.013070429591628,,
40.9178544888214,-0.388833182581912,-0.0133827735234342,,
41.6898894791766,-0.392561138115711,-0.0137787757546506,,
42.4619244695317,-0.396110151783887,-0.014125736127351,,
43.2339594598868,-0.399610879551816,-0.0144491186395976,,
44.0059944502419,-0.403218972439118,-0.0147881421817329,,
44.778029440597,-0.406524000293692,-0.015144510435491,,
45.5500644309522,-0.410039497866402,-0.0154940799272048,,
46.3220994213073,-0.412721353573078,-0.015811204202937,,
47.0941344116624,-0.415853404290884,-0.0161401196895947,,
47.8661694020175,-0.419047942644304,-0.0164627016766894,,
48.6382043923726,-0.421947937006215,-0.0167780584111319,,
49.4102393827278,-0.424564464730203,-0.0171009710995005,,
50.1822743730829,-0.427137819178677,-0.017413880644519,,
50.954309363438,-0.429564895752872,-0.0177105926692294,,
51.7263443537931,-0.432219768162351,-0.0180290123816746,,
52.4983793441482,-0.434617305126983,-0.0183436233277283,,
53.2704143345034,-0.436686213935226,-0.0186131448656588,,
54.0424493248585,-0.439004789251218,-0.0188981774336678,,
54.8144843152136,-0.440703600835801,-0.0191822429855386,,
55.5865193055687,-0.443167956965333,-0.0194578425848073,,
56.3585542959239,-0.444555395501998,-0.0197412512955282,,
57.130589286279,-0.446149398279573,-0.0200227624651483,,
57.9026242766341,-0.447948190081139,-0.0203064995964444,,
58.6746592669892,-0.44955866687174,-0.0205650760625704,,
59.4466942573443,-0.451063411742534,-0.0208016118589898,,
60.2187292476995,-0.452488981938659,-0.0210406108097225,,
60.9907642380546,-0.453794973522995,-0.0212697206520271,,
61.7627992284097,-0.454861878892429,-0.0215344093899676,,
62.5348342187648,-0.456052481376909,-0.0217673143144737,,
63.3068692091199,-0.456813481366542,-0.021986845223338,,
64.0789041994751,-0.457499993254176,-0.0222207354095696,,
64.8509391898302,-0.458202695120128,-0.0224315814187812,,
65.6229741801853,-0.458754006487069,-0.0226327572666154,,
66.3950091705404,-0.459245954600176,-0.0228743470907742,,
67.1670441608955,-0.459510958982122,-0.0230887509895497,,
67.9390791512507,-0.459777738580988,-0.0232710244087282,,
68.7111141416058,-0.459761193559286,-0.023443956087104,,
69.4831491319609,-0.459750400240407,-0.0236314477443091,,
70.255184122316,-0.459838166964974,-0.0238064229284856,,
71.0272191126711,-0.459370929871405,-0.0239875468756514,,
71.7992541030263,-0.45943540574997,-0.0241555704909882,,
72.5712890933814,-0.458711401280968,-0.0243116979832716,,
73.3433240837365,-0.458060393731752,-0.0244663293373795,,
74.1153590740916,-0.457937690738182,-0.0246405746980556,,
74.8873940644468,-0.457063431908999,-0.0247714867884068,,
75.6594290548019,-0.456410436116831,-0.0249352409362675,,
76.431464045157,-0.455361140899251,-0.0250456814774371,,
77.2034990355121,-0.454233239076416,-0.0251623255183593,,
77.9755340258672,-0.45301338101708,-0.0252793527166184,,
78.7475690162224,-0.452167241623923,-0.0253907055371636,,
79.5196040065775,-0.450527509258466,-0.0254701833163371,,
80.2916389969326,-0.448934358585013,-0.0256009311964007,,
81.0636739872877,-0.447326154072071,-0.0256824889725493,,
81.8357089776429,-0.445795206999524,-0.0257869084698426,,
82.607743967998,-0.443758962182625,-0.0258703272959173,,
83.3797789583531,-0.442066399361604,-0.0259147005647304,,
84.1518139487082,-0.439913700314696,-0.0260239368971247,,
84.9238489390633,-0.438149631756103,-0.0260629642087986,,
85.6958839294185,-0.435437242318388,-0.0261091255451875,,
86.4679189197736,-0.433390843260701,-0.0262084910147418,,
87.2399539101287,-0.430854129289474,-0.0262273751978097,,
88.0119889004838,-0.428496073149162,-0.0262850130087391,,
88.7840238908389,-0.425865911759222,-0.0263333820612157,,
89.5560588811941,-0.423236318438695,-0.0263526676472088,,
90.3280938715492,-0.42050532472765,-0.0263421216976307,,
91.1001288619043,-0.417367238272313,-0.0263567729043976,,
91.8721638522594,-0.414321889148923,-0.0263834661989182,,
92.6441988426145,-0.4114369486265,-0.0264116373860261,,
93.4162338329697,-0.40778710263722,-0.0263594914969358,,
94.1882688233248,-0.404724356388004,-0.0263618999144866,,
94.9603038136799,-0.401276814119024,-0.0263575392190729,,
95.732338804035,-0.397813507923787,-0.0263248796174382,,
96.5043737943902,-0.394108559201283,-0.0263049919270575,,
97.2764087847453,-0.390735647051656,-0.0262807617868503,,
98.0484437751004,-0.386752628350669,-0.0262167197747067,,
98.8204787654555,-0.383163849823465,-0.0261945148947125,,
99.5925137558106,-0.379269378942491,-0.0261416756732968,,
100.364548746166,-0.375189220371594,-0.0260905150459321,,
101.136583736521,-0.371088398275739,-0.0260380772274416,,
101.908618726876,-0.366834410463952,-0.0259629236525067,,
102.680653717231,-0.362426972901527,-0.0258638866035277,,
103.452688707586,-0.357898678571129,-0.0257970347709082,,
104.224723697941,-0.353689568243102,-0.0256836566901497,,
104.996758688297,-0.349164327285808,-0.0255862982352211,,
105.768793678652,-0.344088343030988,-0.0255044302840846,,
106.540828669007,-0.339736079210463,-0.0253883883475505,,
107.312863659362,-0.335110005932065,-0.0252753204417799,,
108.084898649717,-0.32997693070107,-0.0251739297120124,,
108.856933640072,-0.325005187183843,-0.0250228380018807,,
109.628968630427,-0.320386782842543,-0.0249057560668589,,
110.401003620782,-0.315088399411878,-0.0247570362831024,,
111.173038611137,-0.309978899061592,-0.0246448624111193,,
111.945073601493,-0.304456412246838,-0.0244909973716867,,
112.717108591848,-0.299151780052612,-0.0243364389999288,,
113.489143582203,-0.293863621871411,-0.0241911858777986,,
114.261178572558,-0.28840298361418,-0.0240138752584214,,
115.033213562913,-0.282829157526075,-0.0238495372517606,,
115.805248553268,-0.277355524680983,-0.0236529957831531,,
116.577283543623,-0.271702736944238,-0.0235179784356134,,
117.349318533978,-0.265848710617345,-0.023336653786985,,
118.121353524334,-0.260206077121388,-0.0231498737076925,,
118.893388514689,-0.254342464623122,-0.022934137881029,,
119.665423505044,-0.248310916604144,-0.0227500399031002,,
120.437458495399,-0.242354211730548,-0.0225346872337742,,
121.209493485754,-0.236447781000152,-0.0223440025987558,,
121.981528476109,-0.230334146950752,-0.0221289236132423,,
122.753563466464,-0.224142474365513,-0.0219303386388341,,
123.525598456819,-0.21795108581498,-0.0217193649105094,,
124.297633447175,-0.211677611234027,-0.0214529063505813,,
125.06966843753,-0.205513490015399,-0.0212510554160095,,
125.841703427885,-0.199330054436672,-0.0209821337017679,,
126.61373841824,-0.192950634909882,-0.0207505059683872,,
127.385773408595,-0.186359325491419,-0.0204983337034754,,
128.15780839895,-0.179807212862569,-0.0202515803780532,,
128.929843389305,-0.173382063747898,-0.0200052467011433,,
129.70187837966,-0.166921694329517,-0.0197473635673422,,
130.473913370015,-0.160426459650811,-0.0194732418606618,,
131.245948360371,-0.153686245037026,-0.0192163804797612,,
132.017983350726,-0.146932467765966,-0.0189585338371354,,
132.790018341081,-0.140234716340929,-0.0186823321334795,,
133.562053331436,-0.133460701596971,-0.0184073163930107,,
134.334088321791,-0.12657236288331,-0.0180658684684354,,
135.106123312146,-0.119837260894258,-0.0177731545080873,,
135.878158302501,-0.113009350564583,-0.0174995071866815,,
136.650193292856,-0.106263810300036,-0.0172320474001388,,
137.422228283212,-0.0992429693954023,-0.0168993733224552,,
138.194263273567,-0.0924747773629451,-0.0165777036147357,,
138.966298263922,-0.0854727537576727,-0.0162785307164102,,
139.738333254277,-0.0785053823866954,-0.0159715669522198,,
140.510368244632,-0.0714735351371526,-0.0156775940463336,,
141.282403234987,-0.0645109923562,-0.0153580066162879,,
142.054438225342,-0.0575992917878607,-0.0150329591941816,,
142.826473215697,-0.0505043888332891,-0.0147003421339589,,
143.598508206053,-0.043523667831067,-0.0143700605089365,,
144.370543196408,-0.0363671293450032,-0.0140107661190827,,
145.142578186763,-0.0294471917701512,-0.0137204081202209,,
145.914613177118,-0.0223551291626529,-0.0133870042190369,,
146.686648167473,-0.0152764161863995,-0.0130196680864896,,
147.458683157828,-0.00818059011902901,-0.0126569822980582,,
148.230718148183,-0.00102696298871544,-0.0123424466150532,,
149.002753138538,0.00599522708077791,-0.0119736120636325,,
149.774788128894,0.0130597028173261,-0.0116045950563364,,
150.546823119249,0.0201580496927242,-0.0112762292180024,,
151.318858109604,0.027141895076727,-0.0109124486943202,,
152.090893099959,0.0342419106560307,-0.0105581011393787,,
152.862928090314,0.0412462065389618,-0.0101882083438825,,
153.634963080669,0.0483499145694609,-0.00982280396291246,,
154.406998071024,0.0553107531421695,-0.00946652237569534,,
155.179033061379,0.0622778404784394,-0.00908500714095828,,
155.951068051735,0.0692145005966859,-0.00875332288639674,,
156.72310304209,0.0763267651727435,-0.008328328416634,,
157.495138032445,0.0832129026174224,-0.00797620454266967,,
158.2671730228,0.0901822977356895,-0.00759841368848191,,
159.039208013155,0.0970655238246182,-0.00722656633442442,,
159.81124300351,0.10406957117718,-0.00684149321012351,,
160.583277993865,0.110829029142387,-0.0064574623650091,,
161.35531298422,0.117647282292012,-0.00610891462619589,,
162.127347974575,0.1244771453603,-0.00569165628553581,,
162.899382964931,0.131392857918881,-0.00531736630345048,,
163.671417955286,0.138107438400328,-0.00492351705156002,,
164.443452945641,0.144675172938082,-0.00453260305855885,,
165.215487935996,0.151497686608317,-0.00415855254981023,,
165.987522926351,0.158052071514827,-0.00375338875296727,,
166.759557916706,0.164768391708856,-0.00337616351199266,,
167.531592907061,0.171203730568653,-0.00297629321622495,,
168.303627897416,0.17781492241663,-0.00257945168798335,,
169.075662887772,0.184333234915307,-0.00222417360807903,,
169.847697878127,0.190803829583152,-0.00182036226541005,,
170.619732868482,0.197152289326842,-0.00143331633696064,,
171.391767858837,0.20346893718331,-0.0010309692026893,,
172.163802849192,0.209851800630926,-0.000628416805558363,,
172.935837839547,0.216144802598009,-0.00025043665340041,,
173.707872829902,0.222334238409928,0.000132095772840124,,
174.479907820257,0.228326802665325,0.000524070290615075,,
175.251942810613,0.234471609523854,0.000927532686422428,,
176.023977800968,0.240399413865978,0.00130943107849735,,
176.796012791323,0.246610720350362,0.00173570273938495,,
177.568047781678,0.252433112311726,0.00208125592114916,,
178.340082772033,0.258377390666875,0.00248462936971761,,
179.112117762388,0.264158881630382,0.0028691186352181,,
179.884152752743,0.269839327246754,0.0032623977124997,,
180.656187743098,0.275593586382694,0.00364182382746714,,
181.428222733453,0.280866974759114,0.00407117443124649,,
182.200257723809,0.286930547691345,0.00441904480262378,,
182.972292714164,0.292275477309674,0.00478823058160405,,
183.744327704519,0.297501183359599,0.00518656368662462,,
184.516362694874,0.30300265160601,0.0055699217256997,,
185.288397685229,0.308185432910789,0.00594425276035659,,
186.060432675584,0.313415363976986,0.00633459429804928,,
186.832467665939,0.318382846973603,0.00669881271583161,,
187.604502656294,0.323410545328176,0.00708796829033664,,
188.37653764665,0.328241691665271,0.00745919757511748,,
189.148572637005,0.333259732839795,0.00782024126067382,,
189.92060762736,0.338039184860155,0.00817111759259248,,
190.692642617715,0.34272320121885,0.00856181491924168,,
191.46467760807,0.347597804866168,0.00894579330829215,,
192.236712598425,0.351892693675811,0.00926465319553582,,
193.00874758878,0.356328179665586,0.0096578501676734,,
193.780782579135,0.360605742358082,0.0100290520840729,,
194.552817569491,0.365474097241838,0.0103802568365667,,
195.324852559846,0.369281582493691,0.0107089967094445,,
196.096887550201,0.373627313515948,0.0110438899067087,,
196.868922540556,0.377664866880744,0.0114291637324722,,
197.640957530911,0.381638512436389,0.0117569092208307,,
198.412992521266,0.385503656733831,0.0120964276745275,,
199.185027511621,0.389389819599616,0.0124549853987861,,
199.957062501976,0.393024895784115,0.0127884736858124,,
200.729097492332,0.396552322814534,0.0131210268864788,,
201.501132482687,0.399920122339429,0.0134663930509706,,
202.273167473042,0.403544973274464,0.0138019476507818,,
203.045202463397,0.406759394057397,0.0140971247654438,,
203.817237453752,0.4099184280724,0.014408545014382,,
204.589272444107,0.413062408247913,0.0147492585540605,,
205.361307434462,0.416490707165471,0.015072771066118,,
206.133342424817,0.418934825822107,0.015375392380482,,
206.905377415173,0.421977405607101,0.0156824291270223,,
207.677412405528,0.424790201313859,0.0159962897232897,,
208.449447395883,0.427210745089786,0.0162832380779863,,
209.221482386238,0.429519947260436,0.0165556583836319,,
209.993517376593,0.432519069735207,0.0168439295434228,,
210.765552366948,0.434758115333145,0.0171373140291124,,
211.537587357303,0.436727327959113,0.0174354834201251,,
212.309622347658,0.439100721973621,0.0177333791273253,,
213.081657338013,0.440928485315335,0.0179790240333069,,
213.853692328369,0.443027217767848,0.0182713000995549,,
214.625727318724,0.444616391955399,0.0185050397596895,,
215.397762309079,0.446272030264466,0.0187812551475361,,
216.169797299434,0.447926816469412,0.0190711775329966,,
216.941832289789,0.449723620028026,0.0193299592619818,,
217.713867280144,0.451107153087464,0.0195638859393883,,
218.485902270499,0.452300666927695,0.019824939244018,,
219.257937260854,0.453441918381775,0.0200805279951899,,
220.02997225121,0.454486029965946,0.0202835831385371,,
220.802007241565,0.455384147710545,0.0205602455432778,,
221.57404223192,0.456410933177569,0.0207367852865827,,
222.346077222275,0.457063644935029,0.0210007989377856,,
223.11811221263,0.457765210662152,0.0212039270634827,,
223.890147202985,0.457898991009307,0.0214333105896003,,
224.66218219334,0.458591467625795,0.0216142338353036,,
225.434217183695,0.459082279600073,0.021804959522894,,
226.206252174051,0.459314904025383,0.0220035399359055,,
226.978287164406,0.459403238819364,0.022200190878038,,
227.750322154761,0.459237930619694,0.0224038846169479,,
228.522357145116,0.459380800077485,0.022582052778938,,
229.294392135471,0.459077451010049,0.022780824770618,,
230.066427125826,0.458608225673528,0.0229170782567114,,
230.838462116181,0.45830402450197,0.0230955748392763,,
231.610497106536,0.457852977386719,0.0232432728701322,,
232.382532096891,0.457221568232309,0.0233882158172749,,
233.154567087247,0.456423146669984,0.0235699966055907,,
233.926602077602,0.455761061767182,0.023699353259607,,
234.698637067957,0.454759839423819,0.0238703189759288,,
235.470672058312,0.453692152958939,0.0239526795579281,,
236.242707048667,0.452441832177241,0.0241091354707867,,
237.014742039022,0.451495712567101,0.0242347745863487,,
237.786777029377,0.449377949789197,0.0243153471007722,,
238.558812019732,0.448600830829922,0.0244660374079793,,
239.330847010088,0.44669723022135,0.0245632498982076,,
240.102882000443,0.444885088788539,0.0246502448594335,,
240.874916990798,0.442812203494394,0.0247761348518236,,
241.646951981153,0.441317044794972,0.024891615736542,,
242.418986971508,0.439276539457462,0.0249368100567926,,
243.191021961863,0.437187180150291,0.0250607386485258,,
243.963056952218,0.434713237849386,0.0251088340171899,,
244.735091942573,0.432621038195141,0.0251768900585851,,
245.507126932929,0.430142551338918,0.0252467296061587,,
246.279161923284,0.427761204352605,0.0252940997127196,,
247.051196913639,0.425158594329275,0.025328378610245,,
247.823231903994,0.42219185181114,0.0253803466048574,,
248.595266894349,0.419680416928866,0.0254388784495747,,
249.367301884704,0.416431627946345,0.0254472668584302,,
250.139336875059,0.413797774105209,0.0254756934837634,,
250.911371865414,0.410348456619308,0.0255146478130874,,
251.68340685577,0.407358991324586,0.0255052330899348,,
252.455441846125,0.403707441127061,0.0254995815192047,,
253.22747683648,0.40067196220975,0.0255081706295228,,
253.999511826835,0.397070402120717,0.0255408302311575,,
254.77154681719,0.393743219558971,0.0254795433027271,,
255.543581807545,0.389995381595659,0.0254787815494488,,
256.3156167979,0.386148415519486,0.0254585791226836,,
257.087651788255,0.382161704367303,0.0254052655159929,,
257.85968677861,0.378317010568789,0.0253811995860733,,
258.631721768966,0.374240544449088,0.0253347463202847,,
259.403756759321,0.370204411257829,0.0252996783010992,,
260.175791749676,0.366060060843075,0.0252659285256112,,
260.947826740031,0.361667464094107,0.0251858805718284,,
261.719861730386,0.357385072811587,0.0251286989005863,,
262.491896720741,0.352822055238218,0.0250367228939719,,
263.263931711096,0.348122416970619,0.0249930566416747,,
264.035966701451,0.343680114147868,0.0249160602624019,,
264.808001691807,0.338891857051581,0.0248021348140184,,
265.580036682162,0.334119505898904,0.0247337366678577,,
266.352071672517,0.329265636785221,0.0246294266440898,,
267.124106662872,0.324476527584812,0.0245401509844259,,
267.896141653227,0.319307095911278,0.0244200402818779,,
