Time domain (s),Current (AC) (A),Potential (AC) (V),Frequency (Hz),Column 5
0,0.322845130635287,0.00467461979171357,2511.9,0.4
1.24407818782595E-05,0.296965074111849,0.00426184086897763,,
2.4881563756519E-05,0.260169506715049,0.00370889345735703,,
3.73223456347785E-05,0.213096918963799,0.00299707528773752,,
4.97631275130379E-05,0.157818690201139,0.00218119166184394,,
6.22039093912974E-05,0.096716483150511,0.0012508213691973,,
7.46446912695569E-05,0.032244262662846,0.000318179170176069,,
8.70854731478164E-05,-0.0323595818098139,-0.000643113337821966,,
9.95262550260759E-05,-0.0977984710456142,-0.00162290991029446,,
0.000111967036904335,-0.159604966153006,-0.00250042715964316,,
0.000124407818782595,-0.21523244801532,-0.00326928702092388,,
0.000136848600660854,-0.26241650997833,-0.00393298041633638,,
0.000149289382539114,-0.299431151954152,-0.00447140275029012,,
0.000161730164417373,-0.324369459535092,-0.00479880244618514,,
0.000174170946295633,-0.336924994275961,-0.00491514284189121,,
0.000186611728173892,-0.336542235312348,-0.00492197345500456,,
0.000199052510052152,-0.323280909231776,-0.00469763329818873,,
0.000211493291930411,-0.297357026228818,-0.00425768200859489,,
0.000223934073808671,-0.259873995980453,-0.00370633169101664,,
0.00023637485568693,-0.212640788229063,-0.0029803607934884,,
0.00024881563756519,-0.157266956453362,-0.00217338950228285,,
0.000261256419443449,-0.0958689495752647,-0.00127449823108883,,
0.000273697201321709,-0.031314742348868,-0.000301416556881762,,
0.000286137983199968,0.0332299248127256,0.000610686829445317,,
0.000298578765078228,0.0981297425685786,0.00157774445740078,,
0.000311019546956487,0.159884461142449,0.0024876641556042,,
0.000323460328834747,0.215106837162079,0.00327063435420527,,
0.000335901110713006,0.262061214837634,0.00395413102832665,,
0.000348341892591266,0.298483100787026,0.00445311178444774,,
0.000360782674469525,0.323654128130587,0.00478211544853435,,
0.000373223456347785,0.336314198854267,0.004940149851691,,
0.000385664238226044,0.335965668486795,0.00490658108882291,,
0.000398105020104304,0.322493738248375,0.00468356764283984,,
0.000410545801982563,0.297276427135876,0.00429899106367904,,
0.000422986583860823,0.259966939339064,0.00372656002129634,,
0.000435427365739082,0.21305595450372,0.00299121392968837,,
0.000447868147617342,0.157752083203242,0.0021793493898068,,
0.000460308929495601,0.0967174371569913,0.00126832753631767,,
0.00047274971137386,0.0323254977601084,0.000329112504785289,,
0.00048519049325212,-0.032403466107908,-0.000627885951225426,,
0.00049763127513038,-0.0977709494041218,-0.00157580251019729,,
0.000510072057008639,-0.159752172243846,-0.00247812169055539,,
0.000522512838886898,-0.21537699445173,-0.00326336952398831,,
0.000534953620765158,-0.262698664622202,-0.00391599553887856,,
0.000547394402643417,-0.299154547893438,-0.00445935694917088,,
0.000559835184521677,-0.324429359578341,-0.00479814711060955,,
0.000572275966399936,-0.337035716846251,-0.00493759152242479,,
0.000584716748278196,-0.336743559588979,-0.00489904129263019,,
0.000597157530156455,-0.323338438713467,-0.00467047467962978,,
0.000609598312034715,-0.297493188971916,-0.0042617858757823,,
0.000622039093912974,-0.259903714727779,-0.00369699315906624,,
0.000634479875791234,-0.212768798553148,-0.00299978828536407,,
0.000646920657669493,-0.157274877598078,-0.00218303049680602,,
0.000659361439547753,-0.0959535381498519,-0.00124309253389621,,
0.000671802221426012,-0.031319252197684,-0.000330874578412743,,
0.000684243003304272,0.0332682585276616,0.000641598733572835,,
0.000696683785182531,0.098037926672171,0.00158430927007114,,
0.000709124567060791,0.159835575537655,0.00248506114436742,,
0.00072156534893905,0.215186193155668,0.00327962803299409,,
0.00073400613081731,0.261986917969319,0.00394764183129981,,
0.000746446912695569,0.298641292407034,0.00444694796382583,,
0.000758887694573829,0.323553465992271,0.00480293953842814,,
0.000771328476452088,0.336217121467574,0.00492932077501429,,
0.000783769258330348,0.335999723627214,0.00490171648243587,,
0.000796210040208607,0.322792168820987,0.00468743549756478,,
0.000808650822086867,0.296806419943245,0.00427659279357462,,
0.000821091603965126,0.260226053280973,0.00370972064666741,,
0.000833532385843386,0.213221113261962,0.00300328951878859,,
0.000845973167721645,0.157791602198956,0.00216354342896974,,
0.000858413949599905,0.0967636920166425,0.00126456737659941,,
0.000870854731478164,0.0322751666909505,0.000333758284083441,,
0.000883295513356424,-0.0323495213778398,-0.000632142195391427,,
0.000895736295234683,-0.0978346654732913,-0.00156339581623488,,
0.000908177077112943,-0.159687184166036,-0.00249535518308264,,
0.000920617858991202,-0.215359244149338,-0.00329350235785153,,
0.000933058640869462,-0.262573776501144,-0.00392428805442924,,
0.000945499422747721,-0.299351304502679,-0.00443899915574431,,
0.00095794020462598,-0.324283656770439,-0.00480683832682516,,
0.00097038098650424,-0.337183385485688,-0.00493670704853644,,
0.000982821768382499,-0.336810686954048,-0.00488356758234731,,
0.000995262550260759,-0.323004362989637,-0.00467224019033186,,
0.00100770333213902,-0.297401835624105,-0.00428122367888184,,
0.00102014411401728,-0.260068150753839,-0.00372011550624052,,
0.00103258489589554,-0.212669350604898,-0.00299786925199186,,
0.0010450256777738,-0.157364958937248,-0.002181177913545,,
0.00105746645965206,-0.0959091913031613,-0.00124805108699189,,
0.00106990724153032,-0.0312812075756209,-0.000308284977816875,,
0.00108234802340858,0.0332548446183627,0.000617878335401389,,
0.00109478880528683,0.0982282365103484,0.0015715508487979,,
0.00110722958716509,0.159760787211456,0.00248324636892772,,
0.00111967036904335,0.215106576978494,0.00325869395671008,,
0.00113211115092161,0.26201733053954,0.00394994237996338,,
0.00114455193279987,0.298719231845546,0.00445830864138896,,
0.00115699271467813,0.32353762370284,0.00482400880631717,,
0.00116943349655639,0.336458976564975,0.00495991990534428,,
0.00118187427843465,0.336062052050594,0.00489711538510917,,
0.00119431506031291,0.322572342600494,0.00469420653471664,,
0.00120675584219117,0.297056890008256,0.00427496591155174,,
0.00121919662406943,0.260214316110336,0.00373321190652565,,
0.00123163740594769,0.21295118724661,0.00300691677828446,,
0.00124407818782595,0.157996337771487,0.00218102209949222,,
0.00125651896970421,0.0967162518762127,0.00127347627421281,,
0.00126895975158247,0.0322528487211688,0.000326547301370272,,
0.00128140053346073,-0.0323804543152315,-0.000599216165491523,,
0.00129384131533899,-0.0978069125575006,-0.00159462163985147,,
0.00130628209721725,-0.159701870083976,-0.00248900003196928,,
0.00131872287909551,-0.215257888188128,-0.00327006723688017,,
0.00133116366097377,-0.262438538855238,-0.00395492270119835,,
0.00134360444285202,-0.299245612148376,-0.00446495250677659,,
0.00135604522473028,-0.324500823336502,-0.00480168156908922,,
0.00136848600660854,-0.337015364708005,-0.00496435946016005,,
0.0013809267884868,-0.336841562072865,-0.00489750148316626,,
0.00139336757036506,-0.323058481175429,-0.00466363490098409,,
0.00140580835224332,-0.297388421714806,-0.00426729550652061,,
0.00141824913412158,-0.260057107406097,-0.00369340370739168,,
0.00143068991599984,-0.212645124622156,-0.00299626184672563,,
0.0014431306978781,-0.157285863127245,-0.00216926501264725,,
0.00145557147975636,-0.0959020217999154,-0.00125267738953294,,
0.00146801226163462,-0.0312720722408398,-0.000301360417994889,,
0.00148045304351288,0.0332442638192175,0.000607931441230392,,
0.00149289382539114,0.0982117003980231,0.00156517851231097,,
0.0015053346072694,0.1597152261747,0.00246382918827637,,
0.00151777538914766,0.215190731913772,0.00328826425601436,,
0.00153021617102592,0.262065753595737,0.00393391644634589,,
0.00154265695290418,0.298718711478375,0.004446359078361,,
0.00155509773478244,0.323711888886576,0.00480110643192377,,
0.0015675385166607,0.336406708573569,0.00494785577315993,,
0.00157997929853895,0.335814646370034,0.00488300046502266,,
0.00159242008041721,0.322625824781966,0.00467537823953013,,
0.00160486086229547,0.297167843852845,0.0042791362288499,,
0.00161730164417373,0.26020087329175,0.00372039620067444,,
0.00162974242605199,0.213215129039495,0.00301218008533644,,
0.00164218320793025,0.157787294715151,0.00217737421754771,,
0.00165462398980851,0.0967047459798745,0.00129183025309132,,
0.00166706477168677,0.0322890720581331,0.000302144071026245,,
0.00167950555356503,-0.0323492901035415,-0.000621598395914358,,
0.00169194633544329,-0.0977167733997553,-0.00157658158046159,,
0.00170438711732155,-0.159656077772921,-0.00248598686315216,,
0.00171682789919981,-0.215352305920391,-0.00329649375852892,,
0.00172926868107807,-0.26247883840171,-0.00394304073397267,,
0.00174170946295633,-0.299309906403292,-0.0044518893315475,,
0.00175415024483459,-0.324181722623483,-0.00478010705122012,,
0.00176659102671285,-0.337117472310685,-0.00493539637738527,,
0.00177903180859111,-0.336719333606237,-0.00490150223811314,,
0.00179147259046937,-0.323228930333243,-0.00468945306041135,,
0.00180391337234763,-0.297285331196359,-0.00426855920431723,,
0.00181635415422589,-0.260159215008777,-0.00371784474555792,,
0.00182879493610414,-0.212765502894398,-0.00298698174504519,,
0.0018412357179824,-0.157231513667155,-0.0021723801480138,,
0.00185367649986066,-0.0959194830094337,-0.00126403004725528,,
0.00186611728173892,-0.0313094230400081,-0.00032887878370591,,
0.00187855806361718,0.0332634595859728,0.000620538631216583,,
0.00189099884549544,0.0981455559487219,0.00159068389794115,,
0.0019034396273737,0.159867202297941,0.00247394793618261,,
0.00191588040925196,0.215168211578979,0.00327379417154283,,
0.00192832119113022,0.261947832612914,0.00394809781654315,,
0.00194076197300848,0.298714895452453,0.00445205774820767,,
0.00195320275488674,0.323991875333902,0.00478515611394936,,
0.001965643536765,0.336359730981736,0.00495941580105574,,
0.00197808431864326,0.336173497353066,0.00490783447539567,,
0.00199052510052152,0.322752389641687,0.00467058237463691,,
0.00200296588239978,0.296855045364454,0.00428460805176645,,
0.00201540666427804,0.259974137751598,0.00369515432410417,,
0.0020278474461563,0.212897994158011,0.0029975129419153,,
0.00204028822803456,0.157894461443105,0.00217346970069254,,
0.00205272900991282,0.0966977788416395,0.00125454486678489,,
0.00206516979179107,0.0322617527816516,0.000323906482312175,,
0.00207761057366933,-0.0324104043368556,-0.000613826024334241,,
0.00209005135554759,-0.0977903186266007,-0.00159202893983901,,
0.00210249213742585,-0.159614332762086,-0.0024703321336017,,
0.00211493291930411,-0.215230771276657,-0.00327004661443198,,
0.00212737370118237,-0.26240448371482,-0.00392182825463827,,
0.00213981448306063,-0.299035441629836,-0.00445955629950356,,
0.00215225526493889,-0.324555230615167,-0.00479319886873864,,
0.00216469604681715,-0.337100936198359,-0.00492928754995825,,
0.00217713682869541,-0.336749746176458,-0.00491220758010069,,
0.00218957761057367,-0.322993840009066,-0.00467784605916188,,
0.00220201839245193,-0.297449825040993,-0.00428092809045788,,
0.00221445917433019,-0.259911346779621,-0.00370370003749043,,
0.00222689995620845,-0.212779610626591,-0.00299317535364807,,
0.00223934073808671,-0.157321074639154,-0.00217469902774203,,
0.00225178151996497,-0.095877275450002,-0.00124546640682022,,
0.00226422230184323,-0.0313317410097898,-0.000317917952499247,,
0.00227666308372149,0.0332874542944168,0.000626294585641229,,
0.00228910386559975,0.098112252449773,0.00157302420815109,,
0.00230154464747801,0.159769633453365,0.00244191669139537,,
0.00231398542935626,0.215084056643701,0.00328343631175754,,
0.00232642621123452,0.261895795895806,0.00394290325098501,,
0.00233886699311278,0.298529124372379,0.00445275203729656,,
0.00235130777499104,0.323505996942554,0.00479788474724163,,
0.0023637485568693,0.336466406251807,0.00494605932878533,,
0.00237618933874756,0.335976451650952,0.00490987609776505,,
0.00238863012062582,0.322786184598519,0.00469328539869807,,
0.00240107090250408,0.296912574846145,0.00429641784042323,,
0.00241351168438234,0.260052250645833,0.00370952817048442,,
0.0024259524662606,0.213107499762944,0.00299506345334821,,
0.00243839324813886,0.157941439034939,0.00217489264961701,,
0.00245083403001712,0.0967035317898087,0.00126957404874073,,
0.00246327481189538,0.0322924255354578,0.000320296408189424,,
0.00247571559377364,-0.0323765804707357,-0.000632103241878124,,
0.0024881563756519,-0.0978001477842766,-0.00159599876111338,,
0.00250059715753016,-0.159835315354069,-0.00248842833187801,,
0.00251303793940842,-0.215373930067278,-0.00328687224076196,,
0.00252547872128668,-0.262558859308906,-0.00395966471858777,,
0.00253791950316494,-0.299127951349139,-0.00445339133318967,,
0.0025503602850432,-0.324296376856844,-0.00480589885974148,,
0.00256280106692145,-0.337249529934989,-0.0049442491361118,,
0.00257524184879971,-0.336512227472149,-0.00489137547036567,,
0.00258768263067797,-0.323111732082602,-0.00467787355575933,,
0.00260012341255623,-0.297311985559233,-0.00427318550685873,,
0.00261256419443449,-0.260010621272147,-0.00369886521908436,,
0.00262500497631275,-0.212800251857711,-0.00298916657886084,,
0.00263744575819101,-0.157393290038785,-0.00216364081275255,,
0.00264988654006927,-0.0959763186682301,-0.00124561878379836,,
0.00266232732194753,-0.0313180958261927,-0.00032294295570523,,
0.00267476810382579,0.0332495542187901,0.000636715796120679,,
0.00268720888570405,0.0981215901495651,0.00157633754815878,,
0.00269964966758231,0.159850637276329,0.0024664253253639,,
0.00271209044946057,0.215099407475248,0.00327295094255042,,
0.00272453123133883,0.26195095481594,0.00394818259771901,,
0.00273697201321709,0.298866148843513,0.00444942494899037,,
0.00274941279509535,0.323917318282002,0.00478127221954239,,
0.00276185357697361,0.335940979955457,0.00493742539714814,,
0.00277429435885187,0.336131781251518,0.00492020336153631,,
0.00278673514073012,0.322690292492605,0.00467672786419415,,
0.00279917592260838,0.297221297125029,0.00428642282720615,,
0.00281161670448664,0.260126345149137,0.00371237177694983,,
0.0028240574863649,0.213017852063082,0.00298576043783694,,
0.00283649826824316,0.157873617846975,0.00217147619736879,,
0.00284893905012142,0.0967205593600178,0.00126124257967675,,
0.00286137983199968,0.0322801969069375,0.000323098769758445,,
0.00287382061387794,-0.032346167900515,-0.000612980503959193,,
0.0028862613957562,-0.0978008994257459,-0.00161047571973416,,
0.00289870217763446,-0.159637807103359,-0.00250734255393237,,
0.00291114295951272,-0.215390408361028,-0.00327980446949461,,
0.00292358374139098,-0.262264736220099,-0.00394979458575095,,
0.00293602452326924,-0.299157959189337,-0.00445323895621152,,
0.0029484653051475,-0.324545864006087,-0.00477822697136121,,
0.00296090608702576,-0.337127301468361,-0.00494846757245559,,
0.00297334686890402,-0.336621504578075,-0.00491612011679665,,
0.00298578765078228,-0.322984704674285,-0.00467909944573464,,
0.00299822843266054,-0.297198834608811,-0.00426621282799111,,
0.0030106692145388,-0.25987763855065,-0.00370278806700464,,
0.00302310999641706,-0.212821586911725,-0.00299060098470072,,
0.00303555077829531,-0.157357558159704,-0.0021699776328008,,
0.00304799156017357,-0.0958964712167572,-0.00127119176523083,,
0.00306043234205183,-0.0312720722408398,-0.000324757731144931,,
0.00307287312393009,0.0332037619077354,0.000620644034840634,,
0.00308531390580835,0.098124452169006,0.0015971708035849,,
0.00309775468768661,0.159763649230897,0.00247730022970316,,
0.00311019546956487,0.215209436222643,0.00326956886104934,,
0.00312263625144313,0.262090210852778,0.00393654695418011,,
0.00313507703332139,0.298776009685768,0.00444482843442984,,
0.00314751781519965,0.324063541457074,0.0048013607754509,,
0.00315995859707791,0.336367912310037,0.00494779848858196,,
0.00317239937895617,0.336241578724615,0.00491708708047822,,
0.00318484016083443,0.322497814457881,0.00467826767365809,,
0.00319728094271269,0.297008698226357,0.004255699962187,,
0.00320972172459095,0.260200410743154,0.00372776758020654,,
0.00322216250646921,0.213185121199296,0.00301975081520078,,
0.00323460328834747,0.157799783527257,0.00219051071703724,,
0.00324704407022573,0.0966354215089723,0.00127004836504874,,
0.00325948485210399,0.0322957790127825,0.000321255352029315,,
0.00327192563398224,-0.0324164174686103,-0.000615631634241609,,
0.0032843664158605,-0.0978442633566689,-0.00158309941977786,,
0.00329680719773876,-0.15963832747053,-0.0025105722584553,,
0.00330924797961702,-0.21517277924637,-0.00327300249867069,,
0.00332168876149528,-0.262426801684602,-0.00397972692359039,,
0.00333412954337354,-0.29918738884379,-0.00445796035115276,,
0.0033465703252518,-0.324381948347198,-0.00478587446256062,,
0.00335901110713006,-0.336952573736028,-0.00494403145471445,,
0.00337145188900832,-0.336665620150467,-0.00489940218547336,,
0.00338389267088658,-0.323119595408743,-0.00469019546854588,,
0.00339633345276484,-0.297332337697479,-0.00427048740322178,,
0.0034087742346431,-0.25988688952258,-0.00369590131500441,,
0.00342121501652136,-0.212602743607,-0.00299603385410396,,
0.00343365579839962,-0.157284417662881,-0.00216772520318331,,
0.00344609658027788,-0.0958506789057025,-0.00126460060165456,,
0.00345853736215614,-0.0313152048974645,-0.00029341733837196,,
0.0034709781440344,0.0332497854930884,0.000613412429679272,,
0.00348341892591266,0.0981259265426574,0.00159787425820612,,
0.00349585970779092,0.159703720278362,0.00247071708596813,,
0.00350830048966918,0.215027278803479,0.0032653710471533,,
0.00352074127154743,0.261981367386161,0.00395760705653636,,
0.00353318205342569,0.298555952190977,0.00446088186464477,,
0.00354562283530395,0.323663234556081,0.00479495865098345,,
0.00355806361718221,0.336316106867228,0.00493792721005404,,
0.00357050439906047,0.335925658033197,0.00490743577473074,,
0.00358294518093873,0.322577864274365,0.00468716740573871,,
0.00359538596281699,0.296972532707968,0.00426418724530375,,
0.00360782674469525,0.26008248976033,0.00369785128204914,,
0.00362026752657351,0.212950493423715,0.00299626872087533,,
0.00363270830845177,0.157909581000354,0.00215132348273217,,
0.00364514909033003,0.096709516012276,0.00126291299797909,,
0.00365758987220829,0.0322890720581331,0.000301564351094186,,
0.00367003065408655,-0.0323708564318539,-0.00063813645366162,,
0.00368247143596481,-0.0977941924710965,-0.00159117310823964,,
0.00369491221784307,-0.159735578312946,-0.00248928416347738,,
0.00370735299972133,-0.215332647605039,-0.00326343597409906,,
0.00371979378159959,-0.262540646457919,-0.0039494909774862,,
0.00373223456347785,-0.299362579124719,-0.00449345960430847,,
0.00374467534535611,-0.324527188606503,-0.00479471920144592,,
0.00375711612723437,-0.337103595852789,-0.00494068718103469,,
0.00376955690911262,-0.336730839502575,-0.00489935406642772,,
0.00378199769099088,-0.323145555948722,-0.00468789491988231,,
0.00379443847286914,-0.29707631704931,-0.00428950702890019,,
0.0038068792547474,-0.259929097082012,-0.00368572757390329,,
0.00381932003662566,-0.21254446248384,-0.0029813964986638,,
0.00383176081850392,-0.157257821118581,-0.0021638401630848,,
0.00384420160038218,-0.0958725343268877,-0.00126656546268933,,
0.00385664238226044,-0.0313353835799874,-0.000325763648339361,,
0.0038690831641387,0.0332531678797004,0.000614923596854222,,
0.00388152394601696,0.0982134060459727,0.00159280113595406,,
0.00389396472789522,0.159671110602308,0.00246721126977745,,
0.00390640550977348,0.215221896125462,0.00328156654312295,,
0.00391884629165174,0.261828205982141,0.00394124887236469,,
0.00393128707353,0.298580900905901,0.00446992595386275,,
0.00394372785540826,0.323538606618608,0.00479014445502512,,
0.00395616863728652,0.336376296003349,0.004939437231537,,
0.00396860941916478,0.336089342417788,0.00490201207085983,,
0.00398105020104304,0.322661267568174,0.00467557071571312,,
0.0039934909829213,0.297080364349529,0.00429773767710673,,
0.00400593176479956,0.260028545030262,0.00373346625005322,,
0.00401837254667781,0.213059076706747,0.00299571649754071,,
0.00403081332855607,0.157773620622267,0.00217903547031773,,
