Time domain (s),Current (AC) (A),Potential (AC) (V),Frequency (Hz),Column 5
0,-0.29584245617309,-0.00788830642486271,0.19953,0.5
0.0122357853455621,-0.300922345905136,-0.00804764285984838,,
0.0244715706911241,-0.306525498576773,-0.00821904647027072,,
0.0367073560366862,-0.311739878742743,-0.00842175266675671,,
0.0489431413822483,-0.316899653236228,-0.0085727896401262,,
0.0611789267278103,-0.3219340974151,-0.00877850863924934,,
0.0734147120733724,-0.326748556713139,-0.00895330136755046,,
0.0856504974189345,-0.331737910382221,-0.009114336922873,,
0.0978862827644966,-0.336727548086011,-0.00927044616956874,,
0.110122068110059,-0.341383445008679,-0.00948552515508228,,
0.122357853455621,-0.346037140662366,-0.00965199561478247,,
0.134593638801183,-0.350714837248823,-0.00978172174194558,,
0.146829424146745,-0.355018176091009,-0.0099620839358332,,
0.159065209492307,-0.359685505410648,-0.0101113670521036,,
0.171300994837869,-0.363832128103061,-0.0102519493038322,,
0.183536780183431,-0.368571886273071,-0.0104571756720926,,
0.195772565528993,-0.372620445982776,-0.0105784905834159,,
0.208008350874555,-0.376256587297428,-0.010735804038887,,
0.220244136220117,-0.380588116584318,-0.0108816934758815,,
0.232479921565679,-0.384708111022918,-0.0110286069464749,,
0.244715706911241,-0.388323872847319,-0.0111711984935274,,
0.256951492256803,-0.39225207284979,-0.0112886635858871,,
0.269187277602366,-0.395991318763205,-0.0114187911159753,,
0.281423062947928,-0.399204035337894,-0.0115861578901622,,
0.29365884829349,-0.402796293290262,-0.0117261197919158,,
0.305894633639052,-0.406379959192734,-0.0118175119397299,,
0.318130418984614,-0.409669365138404,-0.0119461250860553,,
0.330366204330176,-0.412412856376572,-0.0120870722495345,,
0.342601989675738,-0.415857913341863,-0.0122061429535942,,
0.3548377750213,-0.418681431358823,-0.0123283154075304,,
0.367073560366862,-0.421507434679473,-0.0124356564795227,,
0.379309345712424,-0.424543978726937,-0.0125165368882354,,
0.391545131057986,-0.427134943327265,-0.0126480328373866,,
0.403780916403548,-0.429598376343999,-0.0127584733785566,,
0.41601670174911,-0.432048459729488,-0.012856324464348,,
0.428252487094672,-0.434543420598737,-0.0129509643267385,,
0.440488272440234,-0.436655502682495,-0.0130529024241306,,
0.452724057785797,-0.438982315005,-0.0131469766733083,,
0.464959843131359,-0.440873986155864,-0.0132463968796253,,
0.477195628476921,-0.443284091656296,-0.0133303243014513,,
0.489431413822483,-0.444982548197494,-0.0134285402989929,,
0.501667199168045,-0.44654133067136,-0.0134899595079325,,
0.513902984513607,-0.448325920737559,-0.0135609325626302,,
0.526138769859169,-0.449896632669132,-0.0136642390790853,,
0.538374555204731,-0.451275621173254,-0.0137213477679774,,
0.550610340550293,-0.452758282345553,-0.0138017013353506,,
0.562846125895855,-0.453729326001261,-0.0138501798613526,,
0.575081911241417,-0.45466671154415,-0.0138848624425019,,
0.587317696586979,-0.45613659115462,-0.0139929333379945,,
0.599553481932541,-0.457125600005567,-0.0140214511912653,,
0.611789267278103,-0.457787755917047,-0.0140732321686055,,
0.624025052623666,-0.458277360743819,-0.0141407408423757,,
0.636260837969228,-0.459117819442829,-0.0141626013369054,,
0.64849662331479,-0.459622833152474,-0.0142164440656338,,
0.660732408660352,-0.459893802263274,-0.0142688248666634,,
0.672968194005914,-0.460370483510862,-0.0142947153553332,,
0.685203979351476,-0.460456190983801,-0.0143441244062976,,
0.697439764697038,-0.460564408207296,-0.0143445623003977,,
0.7096755500426,-0.460090638315458,-0.0143785720755081,,
0.721911335388162,-0.460002303521476,-0.014398751695289,,
0.734147120733724,-0.460048956222157,-0.0144111586947924,,
0.746382906079286,-0.459379699442994,-0.0144192414900575,,
0.758618691424848,-0.458861336102104,-0.0144615894986573,,
0.77085447677041,-0.458332534485719,-0.0144398407583508,,
0.783090262115972,-0.457598801827991,-0.0144578126620436,,
0.795326047461534,-0.457149742955691,-0.014429586738173,,
0.807561832807097,-0.455798234809504,-0.0144583030122081,,
0.819797618152659,-0.454889039711318,-0.0144278169161849,,
0.832033403498221,-0.453833850773561,-0.0144401874245137,,
0.844269188843783,-0.452670444612309,-0.0144017439716397,,
0.856504974189345,-0.451252330327252,-0.0144048274759281,,
0.868740759534907,-0.449706613449924,-0.0143911250397117,,
0.880976544880469,-0.44806659704976,-0.0143485763296489,,
0.893212330226031,-0.446602398133437,-0.0143454380885983,,
0.905448115571593,-0.44441426575679,-0.0142900444849321,,
0.917683900917155,-0.442593319248052,-0.014283877476355,,
0.929919686262717,-0.440819167457348,-0.0142527140128959,,
0.942155471608279,-0.438589850048137,-0.0142037975927942,,
0.954391256953841,-0.436682699005722,-0.0141451220640754,,
0.966627042299403,-0.434461831629054,-0.0140958589778108,,
0.978862827644966,-0.431899341508136,-0.0140354455568819,,
0.991098612990528,-0.42909591894672,-0.0140032033230617,,
1.00333439833609,-0.426739282979944,-0.0139456932312449,,
1.01557018368165,-0.423906959887056,-0.0138991304919309,,
1.02780596902721,-0.420919198800578,-0.0138214613066192,,
1.04004175437278,-0.417997475783556,-0.0137438080861965,,
1.05227753971834,-0.41534523069512,-0.0137103274331238,,
1.0645133250639,-0.412308899673687,-0.0136264159761867,,
1.07674911040946,-0.409102715897266,-0.0135399318914113,,
1.08898489575502,-0.405694086383191,-0.0134684821707403,,
1.10122068110059,-0.402440397801969,-0.0133720907319494,,
1.11345646644615,-0.398986464752074,-0.0133003308362909,,
1.12569225179171,-0.395447392298655,-0.0132009836123244,,
1.13792803713727,-0.391568685343937,-0.0130831171170396,,
1.15016382248283,-0.387823403692991,-0.0130284898280486,,
1.1623996078284,-0.383955490057152,-0.012911535612139,,
1.17463539317396,-0.380333337451837,-0.0128235531084897,,
1.18687117851952,-0.376273984423253,-0.0127103209924315,,
1.19910696386508,-0.37219126953999,-0.0126143856933285,,
1.21134274921064,-0.367788447541559,-0.0125140189971598,,
1.22357853455621,-0.363521749176619,-0.0123858437449345,,
1.23581431990177,-0.359183048013369,-0.0122586355088474,,
1.24805010524733,-0.354794427750305,-0.0121596167054556,,
1.26028589059289,-0.350292193604305,-0.0120343060104688,,
1.27252167593846,-0.345519061356183,-0.0119095974198697,,
1.28475746128402,-0.340830429433494,-0.0117831190072826,,
1.29699324662958,-0.335953837543225,-0.0116676426839613,,
1.30922903197514,-0.33120342807169,-0.0115214385105822,,
1.3214648173207,-0.326225080747517,-0.0113859855496408,,
1.33370060266627,-0.32116585454043,-0.0112701830864426,,
1.34593638801183,-0.316126226728149,-0.0111267157511894,,
1.35817217335739,-0.310871939685798,-0.0109547693345391,,
1.37040795870295,-0.305678578088171,-0.0108222881236624,,
1.38264374404851,-0.300353779429724,-0.0106664365958902,,
1.39487952939408,-0.295117599599966,-0.0105328583690651,,
1.40711531473964,-0.289713626266848,-0.0103887341926616,,
1.4193511000852,-0.284135681675487,-0.0102131956759712,,
1.43158688543076,-0.278457543841112,-0.0100621951937767,,
1.44382267077632,-0.272870013078378,-0.00989209386216272,,
1.45605845612189,-0.267077054213563,-0.00972189674121404,,
1.46829424146745,-0.26133763589108,-0.00953882051618526,,
1.48053002681301,-0.255405002958932,-0.00938282074301444,,
1.49276581215857,-0.249671762391334,-0.00924369813828596,,
1.50500159750413,-0.243693115836597,-0.00906087735148242,,
1.5172373828497,-0.23757046368524,-0.00889398724326895,,
1.52947316819526,-0.231595722607728,-0.00869155244989717,,
1.54170895354082,-0.225384522636359,-0.00854213705311713,,
1.55394473888638,-0.219009079595472,-0.00835373311653687,,
1.56618052423194,-0.212911635524391,-0.00815102692005087,,
1.57841630957751,-0.206662090867531,-0.00795763737668453,,
1.59065209492307,-0.200456500581632,-0.00778611288924491,,
1.60288788026863,-0.193939040187077,-0.00761584506664503,,
1.61512366561419,-0.18762012005295,-0.00740647466932254,,
1.62735945095976,-0.181236724040257,-0.0072279256306933,,
1.63959523630532,-0.174774011335541,-0.00705763956250616,,
1.65183102165088,-0.168107219693603,-0.00684257654188158,,
1.66406680699644,-0.161343288181756,-0.00664999664646126,,
1.676302592342,-0.154791672613643,-0.00645642920861667,,
1.68853837768757,-0.148184244225539,-0.00624923003620736,,
1.70077416303313,-0.141396595815629,-0.00605458838939876,,
1.71300994837869,-0.134745639108625,-0.00583427292027139,,
1.72524573372425,-0.1278538209698,-0.00566776140799874,,
1.73748151906981,-0.121089889457952,-0.00543151982167789,,
1.74971730441538,-0.11433660924763,-0.00523664098223176,,
1.76195308976094,-0.10739061148838,-0.00501876586043304,,
1.7741888751065,-0.10043339435819,-0.00483866594686599,,
1.78642466045206,-0.0935347593863885,-0.00458550842022909,,
1.79866044579762,-0.0865770451954606,-0.00438502590472023,,
1.81089623114319,-0.0797082338679293,-0.00418582058033667,,
1.82313201648875,-0.0727312053169025,-0.00398387841782721,,
1.83536780183431,-0.0657198795749648,-0.00375615295947451,,
1.84760358717987,-0.0587217614469182,-0.00354510852949863,,
1.85983937252543,-0.0516461728524455,-0.00332120096033117,,
1.872075157871,-0.0446316517200503,-0.00312047897148604,,
1.88431094321656,-0.0375515185702602,-0.00289766613756903,,
1.89654672856212,-0.0305111502794973,-0.00268006698028156,,
1.90878251390768,-0.0234158922815415,-0.00246675781675654,,
1.92101829925325,-0.0163628134376252,-0.00222901781156137,,
1.93325408459881,-0.0092858046696158,-0.00201402777328763,,
1.94548986994437,-0.00216732683433519,-0.00176946619906415,,
1.95772565528993,0.00488610705296523,-0.0015762636729697,,
1.96996144063549,0.0119665242374627,-0.00138167448222504,,
1.98219722598106,0.0190531901855215,-0.00113357098332711,,
1.99443301132662,0.0261202577387741,-0.000925135672364075,,
2.00666879667218,0.0331549453353903,-0.000686754790908406,,
2.01890458201774,0.0402285101825733,-0.000462625993992383,,
2.0311403673633,0.0473103830449458,-0.000255958224319119,,
2.04337615270887,0.0542774703812158,-4.33606387066909E-05,,
2.05561193805443,0.0612621678693406,0.000165660811755064,,
2.06784772339999,0.0682462972880508,0.00041766886637884,,
2.08008350874555,0.0752591142122021,0.000623155234261041,,
2.09231929409111,0.0822284738261307,0.000890393793055555,,
2.10455507943668,0.0892066740203252,0.00107861527376052,,
2.11679086478224,0.096058407761078,0.00130119319573874,,
2.1290266501278,0.103042253145081,0.00152026796491533,,
2.14126243547336,0.109878116446561,0.00173253712995303,,
2.15349822081892,0.116759141266508,0.00194685436218789,,
2.16573400616449,0.123613466823965,0.00217703613275866,,
2.17796979151005,0.130291974897581,0.00238952424484618,,
2.19020557685561,0.137125281886695,0.00263346774979256,,
2.20244136220117,0.143877887514587,0.00284213797269484,,
2.21467714754673,0.150520926754124,0.00304112891142516,,
2.2269129328923,0.157285213309355,0.0032515552721244,,
2.23914871823786,0.16395093982114,0.00347292898532681,,
2.25138450358342,0.170431191669035,0.00370205707321958,,
2.26362028892898,0.177010003560375,0.00392577990581344,,
2.27585607427454,0.183515534497222,0.00410810806175421,,
2.28809185962011,0.190023905781143,0.00433432597843941,,
2.30032764496567,0.196369241143052,0.00453223130471336,,
2.31256343031123,0.202787608929085,0.00472579874255796,,
2.32479921565679,0.209262677143571,0.0049379584340703,,
2.33703500100236,0.215412916165878,0.00514353146849311,,
2.34927078634792,0.221640696663288,0.0053679521948089,,
2.36150657169348,0.227786852686677,0.00557863855513041,,
2.37374235703904,0.233779168411705,0.00577822247545479,,
2.3859781423846,0.23987852971706,0.00598423340397769,,
2.39821392773017,0.245901769720849,0.00616820366279436,,
2.41044971307573,0.251967046861324,0.00636498232403948,,
2.42268549842129,0.257876104912764,0.00657845569785254,,
2.43492128376685,0.26335996300732,0.00674264773981337,,
2.44715706911241,0.26917702931792,0.00696374776920328,,
2.45939285445798,0.27501252238016,0.00714662329276949,,
2.47162863980354,0.280481007096181,0.00735082790812935,,
2.4838644251491,0.286071946275403,0.00751903397934139,,
2.49610021049466,0.29161030352943,0.00772091684369114,,
2.50833599584022,0.297008418646708,0.00789658992158992,,
2.52057178118579,0.302223011838709,0.00808428228025759,,
2.53280756653135,0.307848887286933,0.00826161114522206,,
2.54504335187691,0.313001276878027,0.00843833790579929,,
2.55727913722247,0.317906840308445,0.00860481064619822,,
2.56951492256803,0.323067750940758,0.00881062087325857,,
2.5817507079136,0.327959680705224,0.00895871574564255,,
2.59398649325916,0.332896771988156,0.00915546247710974,,
2.60622227860472,0.337644412121295,0.00930213875506558,,
2.61845806395028,0.342592012688398,0.0094653318511102,,
2.63069384929584,0.347052209697712,0.00959862955202784,,
2.64292963464141,0.351545354733076,0.00981098994500273,,
2.65516541998697,0.356215169356404,0.00996182621690922,,
2.66740120533253,0.360651791485009,0.0100984081235778,,
2.67963699067809,0.364803242767447,0.0102742089205887,,
2.69187277602366,0.369388131013281,0.0104328178127728,,
2.70410856136922,0.373259240039577,0.0105520709727078,,
2.71634434671478,0.377385412233062,0.0107071219753285,,
2.72858013206034,0.381249136356968,0.0108776817273286,,
2.7408159174059,0.384957209461253,0.0110344478151747,,
2.75305170275147,0.388733734930006,0.0111774521686447,,
2.76528748809703,0.392844853284002,0.0112820951743848,,
2.77752327344259,0.396392162743934,0.0114085188502098,,
2.78975905878815,0.399757121921756,0.0115667491464531,,
2.80199484413371,0.403342776067179,0.0116912159830176,,
2.81423062947928,0.406766530429419,0.0118152129957041,,
2.82646641482484,0.409924996375007,0.0119203258253227,,
2.8387022001704,0.412737508047058,0.0120515480906613,,
2.85093798551596,0.415813887962226,0.0121891380660393,,
2.86317377086152,0.41879994484046,0.012286149854805,,
2.87540955620709,0.421930007315314,0.0123900174230762,,
2.88764534155265,0.424550511525205,0.0125025607682061,,
2.89988112689821,0.427223846190661,0.0126206279649534,,
2.91211691224377,0.429631040335343,0.0127364509544377,,
2.92435269758933,0.432421965369636,0.0128178627658864,,
2.9365884829349,0.434526662551004,0.0129161152546029,,
2.94882426828046,0.436871653094778,0.0130159916006072,,
2.96106005362602,0.439058436306566,0.0131074202395967,,
2.97329583897158,0.441065141513902,0.0132087562326015,,
2.98553162431715,0.443097125810191,0.0132858073486366,,
2.99776740966271,0.444505369889168,0.0133697370511614,,
3.01000319500827,0.446257864033438,0.0134529916669481,,
3.02223898035383,0.448083355097493,0.0135196063069301,,
3.03447476569939,0.449333107809776,0.013587443401275,,
3.04671055104496,0.450896434838959,0.0136955986826099,,
3.05894633639052,0.452416304557919,0.0137255396917064,,
3.07118212173608,0.453987868593615,0.0137777631245437,,
3.08341790708164,0.454652793843491,0.0138412075936967,,
3.0956536924272,0.455590108377703,0.013902603995652,,
3.10788947777277,0.456173799701281,0.0139539288333048,,
3.12012526311833,0.457395717012245,0.0139990638553962,,
3.13236104846389,0.458041611936729,0.0140528336017747,,
3.14459683380945,0.458881218531617,0.0140862412724969,,
3.15683261915501,0.458934617056597,0.0141595566044903,,
3.16906840450058,0.459387084345385,0.014187704984614,,
3.18130418984614,0.459289376406061,0.0142240684405124,,
3.1935399751917,0.459722245300042,0.0142118074057089,,
3.20577576053726,0.4595657421763,0.0142927311476919,,
3.21801154588282,0.459972479877206,0.0142987293845844,,
3.23024733122839,0.459302442002598,0.0143110634017378,,
3.24248311657395,0.459067261264923,0.0143444528268728,,
3.25471890191951,0.458954215451403,0.0143552359690884,,
3.26695468726507,0.458220269767644,0.0143546703558757,,
3.27919047261063,0.457743659528732,0.0143801959327958,,
3.2914262579562,0.457074473758246,0.01436919384353,,
3.30366204330176,0.456147952542913,0.0143743755903816,,
3.31589782864732,0.454896495622386,0.0143557650911261,,
3.32813361399288,0.454244635969048,0.0143613299953151,,
3.34036939933844,0.45278100512214,0.0143405847623215,,
3.35260518468401,0.451638049459816,0.0143231602262541,,
3.36484097002957,0.450215035576057,0.0142908107996069,,
3.37707675537513,0.448825253753057,0.0142991490330968,,
3.38931254072069,0.447376392710931,0.0142381175428916,,
3.40154832606626,0.445715925811839,0.0142169891525601,,
3.41378411141182,0.44399211917301,0.0142047098721689,,
3.42601989675738,0.4419090086294,0.0141807534157747,,
3.43825568210294,0.440045172879855,0.0141246847253704,,
3.4504914674485,0.438054941685544,0.0141007647601512,,
3.46272725279407,0.435734662161308,0.0140593107853388,,
3.47496303813963,0.433476302203271,0.0140076803340956,,
3.48719882348519,0.431135572180107,0.0139601277716599,,
3.49943460883075,0.42852415708085,0.0138974952311508,,
3.51167039417631,0.425615357643012,0.013862591422253,,
3.52390617952188,0.422953384365849,0.0137701729601414,,
3.53614196486744,0.420410705665768,0.0137165081258912,,
3.548377750213,0.41777599972051,0.0136304071984537,,
3.56061353555856,0.414445408742276,0.0136026784668424,,
3.57284932090412,0.411326139586301,0.0135212484098055,,
3.58508510624969,0.407954363575503,0.0134534295610482,,
3.59732089159525,0.404768346263303,0.0133676570541854,,
3.60955667694081,0.401517853072538,0.0132779252548341,,
3.62179246228637,0.398021669859927,0.0131994692285611,,
3.63402824763193,0.394618650031322,0.0130951227136178,,
3.6462640329775,0.390795258835858,0.0130214470312713,,
3.65849981832306,0.387249369549463,0.0129050994811464,,
3.67073560366862,0.382931757963233,0.0128045298028168,,
3.68297138901418,0.379260041301487,0.012723117991368,,
3.69520717435974,0.375219931624325,0.0126332721570948,,
3.70744295970531,0.371395120255325,0.0124800457132248,,
3.71967874505087,0.367036039601823,0.0124047279280024,,
3.73191453039643,0.362853628536285,0.0122880656414934,,
3.74415031574199,0.35827101256811,0.0121852700014879,,
3.75638610108756,0.353933518552366,0.0120552884360996,,
3.76862188643312,0.349461392085344,0.0119057293553184,,
3.78085767177868,0.344796406052041,0.0118043933623135,,
3.79309345712424,0.340032575940585,0.0116843556421156,,
3.8053292424698,0.335379519364989,0.0115659782703812,,
3.81756502781537,0.330320861227317,0.0114412879253694,,
3.82980081316093,0.325280381310914,0.011308327767821,,
3.84203659850649,0.320525072240677,0.0111901374133581,,
3.85427238385205,0.315643651760383,0.0110124436366434,,
3.86650816919761,0.310125425466239,0.0108533238680089,,
3.87874395454318,0.305145444942499,0.0107378840358625,,
3.89097973988874,0.299530078778446,0.0105915361784819,,
3.9032155252343,0.294248169360807,0.0104368181578334,,
3.91545131057986,0.288750677600299,0.0102795594391245,,
3.92768709592542,0.283318797857185,0.0101323129865594,,
3.93992288127099,0.277577888352489,0.00996990445077728,,
3.95215866661655,0.271921905225287,0.00982378010184393,,
3.96439445196211,0.26633153411548,0.00964568492220419,,
3.97663023730767,0.260527568905755,0.00947658481720426,,
3.98886602265323,0.254773309769814,0.00930429629578811,,
4.0011018079988,0.248793527076248,0.00914466565070349,,
4.01333759334436,0.24276599104751,0.00898669079268544,,
4.02557337868992,0.236789616770432,0.00883432189142797,,
4.03780916403548,0.23080702923413,0.0086236583380912,,
4.05004494938104,0.224687501464554,0.00844091053363716,,
4.06228073472661,0.2184270569758,0.00829899635402054,,
4.07451652007217,0.212086017638839,0.00812398467866915,,
4.08675230541773,0.205909114858381,0.007905297628227,,
4.09898809076329,0.199596407983477,0.00771420246748944,,
4.11122387610886,0.193123860577019,0.00751802591063155,,
4.12345966145442,0.186761767167377,0.00735024404932938,,
4.13569544679998,0.180220163822698,0.00715173205727071,,
4.14793123214554,0.173722621361995,0.0069723231953307,,
4.1601670174911,0.16717530181883,0.00678475855577565,,
4.17240280283667,0.160712340583745,0.00658454972407929,,
4.18463858818223,0.153903531588139,0.00641163629129071,,
4.19687437352779,0.147213058552477,0.00617592154630886,,
4.20911015887335,0.140537106791227,0.00601103617202314,,
4.22134594421891,0.133739872209945,0.00577639791670403,,
4.23358172956448,0.12691284948873,0.00557098909256881,,
