Time domain (s),Current (AC) (A),Potential (AC) (V),Frequency (Hz),Column 5
0,0.446745338599905,0.0138475616195453,0.12589,0.5
0.0193931706251489,0.448129155694051,0.0139159871340873,,
0.0387863412502979,0.449718613916309,0.0139944021077887,,
0.0581795118754468,0.451112940294626,0.0140917605627173,,
0.0775726825005957,0.45209172389611,0.0141452748708706,,
0.0969658531257447,0.45360846923329,0.0142196256399547,,
0.116359023750894,0.454801415004105,0.014282353969798,,
0.135752194376043,0.455827916436421,0.0142922613238134,,
0.155145365001192,0.456219884332546,0.0143990162563075,,
0.17453853562634,0.457251782424302,0.0144418021590074,,
0.193931706251489,0.458104454615727,0.0145389964036484,,
0.213324876876638,0.4583473042905,0.0145737907390213,,
0.232718047501787,0.459062503683575,0.0146344573174768,,
0.252111218126936,0.459122435006823,0.014619655584613,,
0.271504388752085,0.459565813184976,0.0146864025051046,,
0.290897559377234,0.4593809065905,0.0146994982755366,,
0.310290730002383,0.459832237740458,0.0147347487505969,,
0.329683900627532,0.459734813835842,0.0147754592177183,,
0.349077071252681,0.459725156655792,0.0148002549711381,,
0.36847024187783,0.459037792664037,0.014836221585508,,
0.387863412502979,0.458606627978299,0.0148369103564363,,
0.407256583128128,0.457918127847714,0.0148767404739605,,
0.426649753753277,0.45751962715332,0.0148361668487453,,
0.446042924378426,0.456894182727764,0.0148745145122846,,
0.465436095003575,0.456070766111194,0.0148489341986022,,
0.484829265628723,0.455267799993552,0.0148688082047923,,
0.504222436253872,0.453689987194295,0.0148545036641883,,
0.523615606879021,0.452881340382507,0.0148564513806546,,
0.54300877750417,0.451610285067173,0.014864392772616,,
0.562401948129319,0.450231012528345,0.0148418549106504,,
0.581795118754468,0.448653767798502,0.0148232809025699,,
0.601188289379617,0.447581536778305,0.0147975911153622,,
0.620581460004766,0.445480248013426,0.0147874328845186,,
0.639974630629915,0.443639135040467,0.0147520136377737,,
0.659367801255064,0.442027238076329,0.0147204077188174,,
0.678760971880213,0.440080464192242,0.014656534478358,,
0.698154142505362,0.437620439591995,0.014637686786465,,
0.717547313130511,0.435599816684,0.0146020713996546,,
0.73694048375566,0.433386902279137,0.0145590984796828,,
0.756333654380809,0.431005839327531,0.0144861754278205,,
0.775726825005957,0.428374825833468,0.0144693347505531,,
0.795119995631106,0.425894634769001,0.0143914260919051,,
0.814513166256255,0.422818254853834,0.0143720264709901,,
0.833906336881404,0.42016593875672,0.0142733588951582,,
0.853299507506553,0.417495444438338,0.0142045912758504,,
0.872692678131702,0.414352316366946,0.0140817254895893,,
0.892085848756851,0.411141019965794,0.0140613816595208,,
0.911479019382,0.408212622133149,0.0139918659711253,,
0.930872190007149,0.404794264430348,0.0139160236252622,,
0.950265360632298,0.401533830024826,0.0138068557138209,,
0.969658531257447,0.39775332807017,0.0137600010451071,,
0.989051701882596,0.394419044640741,0.0136639790794635,,
1.00844487250774,0.390704722772895,0.013584464809115,,
1.02783804313289,0.386954044462509,0.0134299201215478,,
1.04723121375804,0.383101681726897,0.0133799773871486,,
1.06662438438319,0.379119231095324,0.0132606922974352,,
1.08601755500834,0.375110081201262,0.0131693503249868,,
1.10541072563349,0.371139275992691,0.0130205621202775,,
1.12480389625864,0.366788716380409,0.0129486380143313,,
1.14419706688379,0.362496951952547,0.0128179083798554,,
1.16359023750894,0.358003238847768,0.0127214439587142,,
1.18298340813409,0.353630524528314,0.0126007722043506,,
1.20237657875923,0.349092786043898,0.0124926078002221,,
1.22176974938438,0.344641678145219,0.0123762556887006,,
1.24116292000953,0.340033499053383,0.0122426021988269,,
1.26055609063468,0.334983077922224,0.0120818448887139,,
1.27994926125983,0.330281735446381,0.0119486156087496,,
1.29934243188498,0.325263410237151,0.0118101863363465,,
1.31873560251013,0.320254458173262,0.0116285697583183,,
1.33812877313528,0.315092411402119,0.0115447312837311,,
1.35752194376043,0.310112998947793,0.0113882388796975,,
1.37691511438557,0.304843587057277,0.0112401212003288,,
1.39630828501072,0.299377623149283,0.0110957940417644,,
1.41570145563587,0.293979259501636,0.0109562198587456,,
1.43509462626102,0.28845166006215,0.0107877218581334,,
1.45448779688617,0.283071474635772,0.0106421357540314,,
1.47388096751132,0.277414923439155,0.010456892865486,,
1.49327413813647,0.271793841076617,0.0103059471200542,,
1.51266730876162,0.266240749522147,0.0101427950765816,,
1.53206047938677,0.260281097788463,0.0100048401894535,,
1.55145365001191,0.254274012258654,0.00983083202141488,,
1.57084682063706,0.24867998420199,0.00962763091336738,,
1.59023999126221,0.242562125136319,0.00946767184770803,,
1.60963316188736,0.236582342442752,0.00929599911486978,,
1.62902633251251,0.230476199808759,0.00913564320768234,,
1.64841950313766,0.22442739668131,0.00892094281810962,,
1.66781267376281,0.218198799584116,0.00872793643208114,,
1.68720584438796,0.212026157324268,0.0085644787750172,,
1.70659901501311,0.205663211810504,0.00839262358630455,,
1.72599218563826,0.199352777213259,0.00817385899211498,,
1.7453853562634,0.192743041043157,0.00802201921289525,,
1.76477852688855,0.186396569542419,0.0078094763640455,,
1.7841716975137,0.180000960037311,0.0075951773773979,,
1.80356486813885,0.173437770054874,0.00741814500323024,,
1.822958038764,0.166798174736164,0.00721470670254565,,
1.84235120938915,0.160244073864362,0.00700491893740907,,
1.8617443800143,0.153718980037047,0.00682499919901858,,
1.88113755063945,0.146970847955795,0.00660045075359017,,
1.9005307212646,0.14026564061969,0.00643531450247581,,
1.91992389188974,0.133564942334564,0.00622883831147147,,
1.93931706251489,0.126764086310763,0.00599818215562564,,
1.95871023314004,0.119881037743526,0.00579653192251639,,
1.97810340376519,0.113057103899754,0.00558344626743823,,
1.99749657439034,0.106185736259857,0.00534705643571876,,
2.01688974501549,0.0993686547533989,0.00513859603707267,,
2.03628291564064,0.0923884663162531,0.00491829425213641,,
2.05567608626579,0.0854182545982024,0.00472024296116258,,
2.07506925689094,0.0785366617088409,0.00449593170837126,,
2.09446242751609,0.071530945652373,0.00428684183695704,,
2.11385559814123,0.0644934177086835,0.00407161688674362,,
2.13324876876638,0.0575265789027825,0.00386837472612456,,
2.15264193939153,0.050517489934165,0.003621475436002,,
2.17203511001668,0.043485962223668,0.00339108840257163,,
2.19142828064183,0.0364052255001248,0.00320208236160369,,
2.21082145126698,0.0293657093134839,0.00295779675189101,,
2.23021462189213,0.0222986062558928,0.00275070021091173,,
2.24960779251728,0.01523356244993,0.00251628546403948,,
2.26900096314243,0.00818868510818811,0.00226031811692673,,
2.28839413376757,0.00108465753864328,0.00206994365689583,,
2.30778730439272,-0.00599717981939085,0.0018486292418527,,
2.32718047501787,-0.0131676360061141,0.00163931130059414,,
2.34657364564302,-0.0201827252079241,0.00137582677142944,,
2.36596681626817,-0.0273179610909375,0.00114527552771149,,
2.38535998689332,-0.0343569092081638,0.000924412690959109,,
2.40475315751847,-0.0413765429652911,0.000707253708470468,,
2.42414632814362,-0.0483927683059304,0.000473441065985902,,
2.44353949876877,-0.0554422257073281,0.000260893655739114,,
2.46293266939391,-0.0624629956032847,1.84782187457877E-05,,
2.48232584001906,-0.069422698037164,-0.000227741423242112,,
2.50171901064421,-0.0763877971304826,-0.000450809695384358,,
2.52111218126936,-0.0834389587401243,-0.000645421693113324,,
2.54050535189451,-0.0904412663801041,-0.000884032925111633,,
2.55989852251966,-0.0973520438356445,-0.00111725258600215,,
2.57929169314481,-0.104337664436568,-0.0013514871576974,,
2.59868486376996,-0.11121073628471,-0.00157682016338878,,
2.61807803439511,-0.117986100193527,-0.00180890403645684,,
2.63747120502026,-0.124787098234682,-0.00203587914502368,,
2.6568643756454,-0.131530863282308,-0.00225632005256493,,
2.67625754627055,-0.138344855911323,-0.00245443520309507,,
2.6956507168957,-0.145105450015359,-0.00269554836128005,,
2.71504388752085,-0.15173673731888,-0.00293330661206248,,
2.734437058146,-0.158494917127904,-0.00316008101916632,,
2.75383022877115,-0.164996684604879,-0.0033483572366344,,
2.7732233993963,-0.171576916669756,-0.00360988948793617,,
2.79261657002145,-0.178210263224904,-0.00381544427677172,,
2.8120097406466,-0.184471808348149,-0.00403543132532391,,
2.83140291127174,-0.191082148092004,-0.00428074553003199,,
2.85079608189689,-0.197525191393237,-0.00448314155153051,,
2.87018925252204,-0.203793269314751,-0.00470050123548171,,
2.88958242314719,-0.210190014958688,-0.0049048518155419,,
2.90897559377234,-0.21647719421427,-0.00512305079651831,,
2.92836876439749,-0.222563702949118,-0.00533645118798143,,
2.94776193502264,-0.228876658354391,-0.00550945584870721,,
2.96715510564779,-0.234885696622813,-0.00577565668971181,,
2.98654827627294,-0.240767842385732,-0.00598759971487262,,
3.00594144689809,-0.246911158062048,-0.00619142117289506,,
3.02533461752323,-0.252815387523463,-0.00638657369615414,,
3.04472778814838,-0.25875994991332,-0.00658142060582234,,
3.06412095877353,-0.264441709190213,-0.00678816135784555,,
3.08351412939868,-0.270188086363025,-0.00697725634605284,,
3.10290730002383,-0.275965068275553,-0.00719547585331526,,
3.12230047064898,-0.281676438170686,-0.00739373240714869,,
3.14169364127413,-0.287187563597146,-0.00758062195996612,,
3.16108681189928,-0.292541901865157,-0.00779274516030348,,
3.18047998252443,-0.298108698094255,-0.00797728103233242,,
3.19987315314957,-0.303171900787245,-0.00816878671878873,,
3.21926632377472,-0.308571755617106,-0.00836596678295942,,
3.23865949439987,-0.314021174503397,-0.00857157630855721,,
3.25805266502502,-0.319038363573799,-0.00871150171913593,,
3.27744583565017,-0.324071955648549,-0.00892712807227403,,
3.29683900627532,-0.328896711204729,-0.00908635731443352,,
3.31623217690047,-0.33398569004741,-0.00927003564384998,,
3.33562534752562,-0.338773095039575,-0.0094479118764399,,
3.35501851815077,-0.343243233263645,-0.00964124212164652,,
3.37441168877592,-0.348128985273227,-0.00979565452870457,,
3.39380485940106,-0.352547074137177,-0.00998599249756049,,
3.41319803002621,-0.357158661645501,-0.0101491627866208,,
3.43259120065136,-0.361641581431401,-0.0102988678321023,,
3.45198437127651,-0.366117471358295,-0.0104761237147168,,
3.47137754190166,-0.370474208725461,-0.0106237305176355,,
3.49077071252681,-0.374293055365607,-0.0107937793931856,,
3.51016388315196,-0.378373213936504,-0.0109376640962529,,
3.52955705377711,-0.382588360002062,-0.0110941382546987,,
3.54895022440226,-0.386126225307975,-0.0112442082119304,,
3.5683433950274,-0.39003908743625,-0.0114224881281437,,
3.58773656565255,-0.39369972674441,-0.0115347874385408,,
3.6071297362777,-0.39743840458841,-0.0116775226695953,,
3.62652290690285,-0.400693868386554,-0.0118219342140016,,
3.645916077528,-0.404588836328266,-0.011938601061908,,
3.66530924815315,-0.407710874822638,-0.0120784512094381,,
3.6847024187783,-0.410964776429891,-0.0122037071676622,,
3.70409558940345,-0.413950833308125,-0.0123308606669874,,
3.7234887600286,-0.417062433527002,-0.0124852183372828,,
3.74288193065374,-0.420268617303423,-0.0125910974815762,,
3.76227510127889,-0.422899062728071,-0.0127275562305287,,
3.78166827190404,-0.425219626287015,-0.0128403869436622,,
3.80106144252919,-0.428245448024276,-0.0129541481817581,,
3.82045461315434,-0.430899468329633,-0.0130576189085008,,
3.83984778377949,-0.432897652495749,-0.0131705431302702,,
3.85924095440464,-0.435572336326065,-0.013262516856186,,
3.87863412502979,-0.437927694136657,-0.0133923342112867,,
3.89802729565494,-0.439768168031524,-0.0134682358553091,,
3.91742046628009,-0.441886853922228,-0.0136004228560869,,
3.93681363690523,-0.443644957751968,-0.0136711473146547,,
3.95620680753038,-0.445440057102338,-0.0137594354318948,,
3.97559997815553,-0.447216126127316,-0.0138356107597297,,
3.99499314878068,-0.449101832549327,-0.0139115488949271,,
4.01438631940583,-0.450476489524161,-0.0140039992868166,,
4.03377949003098,-0.452114801716081,-0.0140738798869622,,
4.05317266065613,-0.453158416239514,-0.0141366789184572,,
4.07256583128128,-0.454420382444212,-0.0142134563506797,,
4.09195900190643,-0.455421249744191,-0.014271317670056,,
4.11135217253157,-0.456254962618902,-0.0143372731881897,,
4.13074534315672,-0.457278339669438,-0.0144021544973585,,
4.15013851378187,-0.458293763748167,-0.0144595368700631,,
4.16953168440702,-0.458794871980587,-0.0144868140233836,,
4.18892485503217,-0.459036230473146,-0.0145627886497559,,
4.20831802565732,-0.45984722057127,-0.014612179455133,,
4.22771119628247,-0.460156463358884,-0.0146546551828455,,
4.24710436690762,-0.460152486872981,-0.0146608199107239,,
4.26649753753277,-0.460408686178999,-0.0147151393054257,,
4.28589070815791,-0.460320706428401,-0.0147493132908232,,
4.30528387878306,-0.460174428554123,-0.0147858386763104,,
4.32467704940821,-0.460224915723352,-0.0148033361947282,,
4.34407022003336,-0.459882724909688,-0.0148158549484552,,
4.36346339065851,-0.459240167393014,-0.0148242479187077,,
4.38285656128366,-0.458790043390562,-0.0148634782125425,,
4.40224973190881,-0.458230139973724,-0.0148394829842746,,
4.42164290253396,-0.457325773465563,-0.0148551034878777,,
4.44103607315911,-0.45666368856276,-0.0148514520896783,,
4.46042924378426,-0.455480968041409,-0.0148680761005942,,
4.4798224144094,-0.454336805231578,-0.0148596443584683,,
4.49921558503455,-0.453254419970594,-0.0148411091222611,,
4.5186087556597,-0.452169691423274,-0.0148567455907531,,
4.53800192628485,-0.45066828396029,-0.014816217579507,,
4.55739509691,-0.449131869219627,-0.014817312314757,,
4.57678826753515,-0.447411542005964,-0.0148161445971571,,
4.5961814381603,-0.445994776885767,-0.0147688543150415,,
4.61557460878545,-0.44413321341388,-0.0147591841536636,,
4.6349677794106,-0.442174794106791,-0.0147022031838842,,
4.65436095003574,-0.439849188931792,-0.0146782626923789,,
4.67375412066089,-0.437728514798137,-0.0146371941556027,,
4.69314729128604,-0.435482084297809,-0.0146240755781863,,
4.71254046191119,-0.433158396357084,-0.0145262792291576,,
4.73193363253634,-0.430538744251315,-0.0144862301645832,,
4.75132680316149,-0.428314184423451,-0.0144542091585116,,
4.77071997378664,-0.425465316308861,-0.0143877222376418,,
4.79011314441179,-0.422839486448207,-0.0143281868856118,,
4.80950631503694,-0.420265776956349,-0.0142255189647194,,
4.82889948566209,-0.417087428581248,-0.0142101721449288,,
4.84829265628723,-0.414370352570862,-0.0141133998294989,,
4.86768582691238,-0.41091925986804,-0.0140410013382777,,
4.88707899753753,-0.407731325321566,-0.0139416541143107,,
4.90647216816268,-0.404607795644981,-0.0138851475298067,,
4.92586533878783,-0.401211592649352,-0.0137977146744808,,
4.94525850941298,-0.397634743579857,-0.0137235646068592,,
4.96465168003813,-0.393759303024274,-0.0136342707016079,,
4.98404485066328,-0.390229958759581,-0.0135336280409284,,
5.00343802128843,-0.386094697455461,-0.0134307776641607,,
5.02283119191357,-0.382546322865376,-0.013351007955587,,
5.04222436253872,-0.378514663220758,-0.0132227779665994,,
5.06161753316387,-0.374346666916617,-0.0131214624998806,,
5.08101070378902,-0.370523701773214,-0.013030070352066,,
5.10040387441417,-0.365793955826638,-0.0129020729943194,,
5.11979704503932,-0.361625604479114,-0.0127793919446315,,
5.13919021566447,-0.357169738999087,-0.0126906818981807,,
5.15858338628962,-0.352707269712115,-0.0125681262869071,,
5.17797655691477,-0.348348544101998,-0.0124425236625201,,
5.19736972753992,-0.343489988415644,-0.0123323727700519,,
5.21676289816506,-0.338863347067832,-0.0121943289356845,,
5.23615606879021,-0.334265180199429,-0.0120598407101826,,
5.25554923941536,-0.329029000369671,-0.0119297679168571,,
5.27494241004051,-0.324204386830844,-0.0117553743107823,,
5.29433558066566,-0.319153681664977,-0.0116356308006829,,
5.31372875129081,-0.314087922659621,-0.0114895748727024,,
5.33312192191596,-0.308757727341735,-0.0113360222889556,,
5.35251509254111,-0.303434916926239,-0.0112119682588085,,
5.37190826316626,-0.298069501304642,-0.0110457692022221,,
5.3913014337914,-0.292658924164579,-0.0108590438596923,,
5.41069460441655,-0.286976809844302,-0.0107130974052367,,
5.4300877750417,-0.281784868420212,-0.0105711102432702,,
5.44948094566685,-0.27607839812378,-0.010412610824611,,
5.468874116292,-0.270350909259006,-0.0102332566994332,,
5.48826728691715,-0.264596011044974,-0.0100593785312055,,
5.5076604575423,-0.258822437548934,-0.00991717014149041,,
5.52705362816745,-0.252972529725297,-0.00974710302035264,,
5.5464467987926,-0.247016818973178,-0.00953662420358947,,
5.56583996941774,-0.240966879706899,-0.00935133570107549,,
5.58523314004289,-0.235034530809458,-0.00920289188183032,,
5.60462631066804,-0.228839165773022,-0.00899861428412008,,
5.62401948129319,-0.222810813144501,-0.00882960540705824,,
5.64341265191834,-0.21667055084129,-0.00864490532474127,,
5.66280582254349,-0.210385075793952,-0.0084781953917048,,
5.68219899316864,-0.203881604108732,-0.00826248009132735,,
5.70159216379379,-0.197730832521349,-0.008074165101986,,
5.72098533441894,-0.191417877116076,-0.00789510290620843,,
5.74037850504409,-0.184822875246418,-0.00768246882942103,,
5.75977167566923,-0.178251164222761,-0.00750776732905711,,
5.77916484629438,-0.171789658665551,-0.00729215922150628,,
5.79855801691953,-0.165279299138679,-0.0071034451099381,,
5.81795118754468,-0.158578352323184,-0.00693673517690163,,
5.83734435816983,-0.151971705030525,-0.00670906673600991,,
5.85673752879498,-0.145368821197737,-0.00648814916249485,,
5.87613069942013,-0.138488861507943,-0.00629259295561235,,
5.89552387004528,-0.131779677685935,-0.00609554061055428,,
5.91491704067043,-0.124985283451726,-0.00589031424229391,,
5.93431021129557,-0.118166178197979,-0.00564826599774948,,
5.95370338192072,-0.111259306219664,-0.00544561453802572,,
5.97309655254587,-0.104458450195863,-0.00522356345738695,,
5.99248972317102,-0.0975409979247004,-0.00502793654885325,,
6.01188289379617,-0.0906065745797742,-0.0048159228220408,,
6.03127606442132,-0.0836556772218224,-0.00458781648704854,,
6.05066923504647,-0.0766860335731864,-0.0043645817239204,,
6.07006240567162,-0.0696851461067434,-0.00411795611761079,,
6.08945557629677,-0.0626959040633011,-0.00394984127433595,,
6.10884874692192,-0.0557237041022991,-0.0037203117835185,,
6.12824191754706,-0.0486950522432138,-0.00345967584670293,,
6.14763508817221,-0.0416631339849942,-0.00328473259230488,,
6.16702825879736,-0.0346242568764448,-0.00305748608062384,,
6.18642142942251,-0.0274721209283447,-0.00280753749668961,,
6.20581460004766,-0.0203923428219388,-0.00261247620136817,,
6.22520777067281,-0.0133966389889046,-0.00238564705750122,,
6.24460094129796,-0.00623740217312114,-0.00215148318745761,,
6.26399411192311,0.000821073330234515,-0.00193996209150793,,
6.28338728254826,0.00789410561234119,-0.00172240170609372,,
6.3027804531734,0.0150088909964264,-0.00145583367264068,,
6.32217362379855,0.0220401701765546,-0.00124002714432558,,
6.3415667944237,0.0291248478816621,-0.000991957855904335,,
6.36095996504885,0.0361245992092758,-0.000785892190618753,,
6.380353135674,0.0431226818329839,-0.000547442888209293,,
6.39974630629915,0.0502655511487571,-0.000318440238731288,,
6.4191394769243,0.057282344558811,-0.000124982274412044,,
6.43853264754945,0.0642428990968122,0.000125762273277541,,
6.4579258181746,0.0711665291228596,0.000336389335439335,,
6.47731898879974,0.0781898553311823,0.000606451398899921,,
6.49671215942489,0.0852026722553336,0.000789450080182164,,
6.51610533005004,0.0920964786371106,0.00103830164816765,,
6.53549850067519,0.0989769353876428,0.00127258867592728,,
6.55489167130034,0.105986059860599,0.00150611395040823,,
6.57428484192549,0.112801756697858,0.00172444977329134,,
6.59367801255064,0.119589618133798,0.00193739402506621,,
6.61307118317579,0.126458997530744,0.00218777822240224,,
6.63246435380094,0.133269013673857,0.00241671473162608,,
6.65185752442609,0.13995093016396,0.00262209162598337,,
6.67125069505123,0.146729134419851,0.00281853730525672,,
