Time domain (s),Current (AC) (A),Potential (AC) (V),Frequency (Hz),Column 5
0,-0.152108956599619,-0.00388257254186941,31.623,0.3
0.000239330847010088,-0.14093978689678,-0.00368700014322609,,
0.000478661694020175,-0.129427073881499,-0.00348011352579469,,
0.000717992541030263,-0.117612244286726,-0.00324857492534125,,
0.00095732338804035,-0.105590467634105,-0.00299403692931799,,
0.00119665423505044,-0.0933236294632523,-0.00274200442006789,,
0.00143598508206053,-0.0808597810522521,-0.00249118816653215,,
0.00167531592907061,-0.0681670126203183,-0.00225742381812033,,
0.0019146467760807,-0.0553980619193435,-0.00198721892816911,,
0.00215397762309079,-0.0424906488947226,-0.00174051513926976,,
0.00239330847010088,-0.0293658388255633,-0.00144407713386707,,
0.00263263931711096,-0.0162800295995873,-0.00119202029950216,,
0.00287197016412105,-0.00313637223300447,-0.000926841586293303,,
0.00311130101113114,0.0100733439780132,-0.000642090277991336,,
0.00335063185814123,0.0231540914916861,-0.000384171091080354,,
0.00358996270515131,0.036301690929141,-7.92208159925423E-05,,
0.0038292935521614,0.049249037831471,0.000197174815547818,,
0.00406862439917149,0.0621295794617454,0.000501348207297525,,
0.00430795524618158,0.0748557971814333,0.000769520429885429,,
0.00454728609319166,0.0875187551602641,0.00104127756619254,,
0.00478661694020175,0.0997857332862959,0.00129775244944197,,
0.00502594778721184,0.112071745316657,0.00157266272869006,,
0.00526527863422193,0.123966815880658,0.00186329615369374,,
0.00550460948123201,0.13551629045626,0.00212001428808595,,
0.0057439403282421,0.146628731659923,0.00237579286493794,,
0.00598327117525219,0.157779054065339,0.00262826322624576,,
0.00622260202226228,0.168413758265869,0.00286975079844787,,
0.00646193286927237,0.178584044531125,0.00312483610954262,,
0.00670126371628245,0.188512254988632,0.00335648417301027,,
0.00694059456329254,0.197885543161851,0.00357975223460238,,
0.00717992541030263,0.206734629212546,0.00381202362912436,,
0.00741925625731272,0.21530753704357,0.00400092942612984,,
0.0076585871043228,0.223231799272177,0.00420746180908438,,
0.00789791795133289,0.230626657710779,0.00441834534685892,,
0.00813724879834298,0.237630388076117,0.00456434772351955,,
0.00837657964535306,0.243907844366482,0.00476222036578378,,
0.00861591049236315,0.24994420453535,0.00493213128916103,,
0.00885524133937324,0.255108737243202,0.00506309770454605,,
0.00909457218638333,0.259979550682296,0.00521546717987498,,
0.00933390303339342,0.264109348100906,0.00533102971663002,,
0.0095732338804035,0.267717392612625,0.00544487125154847,,
0.00981256472741359,0.270632005864682,0.00555693401248414,,
0.0100518955744237,0.273014416223157,0.00564307228285577,,
0.0102912264214338,0.274579115123118,0.0057143175019978,,
0.0105305572684439,0.275774332350817,0.00579465119196954,,
0.0107698881154539,0.276059281095032,0.00583207538031827,,
0.011009218962464,0.275817251939009,0.00587031445999608,,
0.0112485498094741,0.275061493973017,0.00588578523269012,,
0.0114878806564842,0.273854707117197,0.00589854071450091,,
0.0117272115034943,0.271877793563685,0.00591064549950371,,
0.0119665423505044,0.269302804879062,0.00587177396685412,,
0.0122058731975145,0.26591029134283,0.00585905193207603,,
0.0124452040445246,0.262538491173074,0.00579460254174125,,
0.0126845348915346,0.257898137261881,0.00575391878807618,,
0.0129238657385447,0.253030496140176,0.00566188471812668,,
0.0131631965855548,0.247323123945146,0.00560799242739751,,
0.0134025274325649,0.241234513842827,0.00550524314459899,,
0.013641858279575,0.23459877229451,0.0054064375709566,,
0.0138811891265851,0.227364022580555,0.00526537015185902,,
0.0141205199735952,0.21972638855831,0.00514456251233275,,
0.0143598508206053,0.211533598993144,0.0050009105498412,,
0.0145991816676153,0.202733403951606,0.00486290201386641,,
0.0148385125146254,0.193501773745285,0.00468225459316551,,
0.0150778433616355,0.184193448100934,0.00451795668991251,,
0.0153171742086456,0.174207739390768,0.00434262430668575,,
0.0155565050556557,0.163769299002763,0.00413012010817093,,
0.0157958359026658,0.152853191589216,0.00394809527787254,,
0.0160351667496759,0.141916160876425,0.00371509717056107,,
0.016274497596686,0.130471559381536,0.00348747491350965,,
0.016513828443696,0.118678376187765,0.0032741923113373,,
0.0167531592907061,0.106717246779328,0.003027502205315,,
0.0169924901377162,0.0944379525975541,0.00279180096967702,,
0.0172318209847263,0.0820519192660153,0.00252226654068854,,
0.0174711518317364,0.0693111462077231,0.00230084718778345,,
0.0177104826787465,0.0565187063625584,0.00201665687743002,,
0.0179498135257566,0.0435403593881048,0.00176754338189555,,
0.0181891443727667,0.0305202357927533,0.00150596326528296,,
0.0184284752197767,0.0173905739440592,0.00119271660589959,,
0.0186678060667868,0.00424206479794158,0.000935746098446266,,
0.0189071369137969,-0.00893681462199459,0.000638055349657218,,
0.019146467760807,-0.0220937677305717,0.000379711993566012,,
0.0193857986078171,-0.0351172502502165,8.22508130426947E-05,,
0.0196251294548272,-0.0481314024246022,-0.000174877807653129,,
0.0198644603018373,-0.0609449521759158,-0.000479525539132108,,
0.0201037911488474,-0.0737848135008603,-0.000727155202694174,,
0.0203431219958574,-0.0864292973960779,-0.00100922922810387,,
0.0205824528428675,-0.0989202038083297,-0.00127075005225041,,
0.0208217836898776,-0.111079882963881,-0.00155698215188504,,
0.0210611145368877,-0.123099980154356,-0.00185591348150371,,
0.0213004453838978,-0.134742944789455,-0.00205586592104012,,
0.0215397762309079,-0.146192211456974,-0.00235692569815971,,
0.021779107077918,-0.157070880860168,-0.00260567431698,,
0.0220184379249281,-0.167721050107966,-0.00286563681349161,,
0.0222577687719381,-0.178013353963349,-0.00310793927702235,,
0.0224970996189482,-0.188028873126618,-0.00334596052043645,,
0.0227364304659583,-0.197214831292896,-0.00356953264595727,,
0.0229757613129684,-0.206310798279148,-0.00376753907635008,,
0.0232150921599785,-0.214918601601442,-0.00399418680851005,,
0.0234544230069886,-0.2226863006366,-0.00420034367251221,,
0.0236937538539987,-0.230515626602195,-0.00441163161531222,,
0.0239330847010088,-0.237617232289302,-0.00458429127660542,,
0.0241724155480188,-0.243914375608164,-0.00473102036605599,,
0.0244117463950289,-0.249888735632784,-0.00490523835498369,,
0.024651077242039,-0.254935892597276,-0.00505242810128648,,
0.0248904080890491,-0.260040524488564,-0.0051744185494953,,
0.0251297389360592,-0.264300526875266,-0.00531618531562872,,
0.0253690697830693,-0.267857674353596,-0.00542816597930385,,
0.0256084006300794,-0.270665548455888,-0.00553073282374461,,
0.0258477314770895,-0.273109119227537,-0.00560668799314312,,
0.0260870623240995,-0.274904697520937,-0.00569385856055238,,
0.0263263931711096,-0.276168726044922,-0.00577884898959313,,
0.0265657240181197,-0.276534522230807,-0.00585317437633304,,
0.0268050548651298,-0.276592556978319,-0.005843237567142,,
0.0270443857121399,-0.275941112272324,-0.0058646923179535,,
0.02728371655915,-0.274402724945994,-0.00588669438383693,,
0.0275230474061601,-0.272342771319676,-0.00588074689339102,,
0.0277623782531702,-0.269812754899201,-0.00588590381762222,,
0.0280017091001802,-0.266849670503522,-0.00586671130244065,,
0.0282410399471903,-0.262782712960232,-0.00581171221901089,,
0.0284803707942004,-0.258643958410173,-0.00578458971656737,,
0.0287197016412105,-0.253469535536346,-0.00568847054773514,,
0.0289590324882206,-0.247965938081776,-0.00561473808565616,,
0.0291983633352307,-0.241812948597169,-0.00552697459358553,,
0.0294376941822408,-0.235034312811208,-0.00542251039022901,,
0.0296770250292509,-0.228065757847497,-0.00529566708171769,,
0.0299163558762609,-0.220236151971544,-0.00516027349553028,,
0.030155686723271,-0.211981595520762,-0.00503147201531817,,
0.0303950175702811,-0.203198894876586,-0.00487969698497004,,
0.0306343484172912,-0.194057815671005,-0.00469958015582472,,
0.0308736792643013,-0.184738853433059,-0.00451271462778102,,
0.0311130101113114,-0.174607777943754,-0.00434793630352059,,
0.0313523409583215,-0.164139503776784,-0.00413046978168863,,
0.0315916718053316,-0.153336270215009,-0.00392436308823463,,
0.0318310026523417,-0.14240614395771,-0.00372704992359951,,
0.0320703334993517,-0.130959489786864,-0.00349028142357177,,
0.0323096643463618,-0.119185340497421,-0.00328663156666176,,
0.0325489951933719,-0.107174946866016,-0.00304505885655981,,
0.032788326040382,-0.0949199115819162,-0.00282739621349437,,
0.0330276568873921,-0.0824795289892428,-0.00255223356118472,,
0.0332669877344022,-0.0698832363272887,-0.00229397078203464,,
0.0335063185814123,-0.0570525187406982,-0.0020481305346931,,
0.0337456494284223,-0.0441678251067835,-0.00178996809663934,,
0.0339849802754324,-0.0311346856797954,-0.00148412843455992,,
0.0342243111224425,-0.0179646700878555,-0.00124751956809499,,
0.0344636419694526,-0.00479810672366139,-0.000973069945698235,,
0.0347029728164627,0.0083526417053184,-0.000682202391470099,,
0.0349423036634728,0.0215478025777318,-0.000406027206278026,,
0.0351816345104829,0.034560461896876,-0.000123734254839913,,
0.035420965357493,0.0475999692845034,0.000152015240851622,,
0.035660296204503,0.0605139368766688,0.000439307003278433,,
0.0358996270515131,0.0732709680615751,0.000697214027631787,,
0.0361389578985232,0.0858698965460648,0.00100283476368279,,
0.0363782887455333,0.0983828225731282,0.00127562875798715,,
0.0366176195925434,0.110603522186675,0.00151835691101798,,
0.0368569504395535,0.122494860612573,0.00182315059318272,,
0.0370962812865636,0.134102183328782,0.00208273300978368,,
0.0373356121335737,0.145388705449118,0.00236032209224391,,
0.0375749429805838,0.156485681605514,0.00259019442236808,,
0.0378142738275938,0.167070025267508,0.00283546454984362,,
0.0380536046746039,0.17721434984708,0.00309653383905584,,
0.038292935521614,0.187052452495247,0.00332422907145036,,
0.0385322663686241,0.19665281794621,0.00355048912210076,,
0.0387715972156342,0.205783120603016,0.0037899729130122,,
0.0390109280626443,0.214198718812971,0.00399302376398269,,
0.0392502589096544,0.222281970124794,0.00417210525545064,,
0.0394895897566645,0.22983283193613,0.00436947923287168,,
0.0397289206036745,0.236860261378426,0.00457162397333422,,
0.0399682514506846,0.243229155052331,0.00474026695012908,,
0.0402075822976947,0.249062486908359,0.00490469256023207,,
0.0404469131447048,0.254586424515594,0.00504563227247967,,
0.0406862439917149,0.259197107928862,0.00519911158114805,,
0.040925574838725,0.263437749849152,0.00530377950733696,,
0.0411649056857351,0.267265430688271,0.00542078634775356,,
0.0414042365327452,0.270117157413281,0.00554893104987997,,
0.0416435673797552,0.272490983854117,0.00561673730598766,,
0.0418828982267653,0.274475548290741,0.00572045959335821,,
0.0421222290737754,0.275762762722696,0.00577182207220028,,
0.0423615599207855,0.276156130078822,0.00583223349356121,,
0.0426008907677956,0.276254098704043,0.0058567896964461,,
0.0428402216148057,0.275457473825816,0.00586883062802412,,
0.0430795524618158,0.274404264452961,0.005902216847399,,
0.0433188833088258,0.272365024193119,0.0058793512399582,,
0.0435582141558359,0.269727708802164,0.00590476794376116,,
0.043797545002846,0.266622943113725,0.00584508931646832,,
0.0440368758498561,0.262599511631068,0.00580939221123478,,
0.0442762066968662,0.258336663489062,0.00576868413245579,,
0.0445155375438763,0.253619427532935,0.0057095132919236,,
0.0447548683908864,0.247992669520944,0.00563511492984059,,
0.0449941992378965,0.242125748421982,0.00552504378763841,,
0.0452335300849066,0.235366473102434,0.00542709871491409,,
0.0454728609319166,0.228312918693412,0.00530098211919228,,
0.0457121917789267,0.220824010374598,0.00516654025310181,,
0.0459515226259368,0.212608268160094,0.00501655159833536,,
0.0461908534729469,0.204135568237153,0.00486504262392495,,
0.046430184319957,0.194834520262104,0.00470128595446528,,
0.0466695151669671,0.185417216185126,0.00452775058905708,,
0.0469088460139772,0.175411143996431,0.00435816805472289,,
0.0471481768609873,0.165074077809668,0.00418132143313077,,
0.0473875077079973,0.154451666339016,0.0039651106953249,,
0.0476268385550074,0.143257118097072,0.00375527009682575,,
0.0478661694020175,0.131943514649622,0.00352134459453168,,
0.0481055002490276,0.120293832165936,0.00330552305855436,,
0.0483448310960377,0.108247026862157,0.00304978096937347,,
0.0485841619430478,0.0960272602831368,0.0028203343287494,,
0.0488234927900579,0.0835513057491628,0.00256433682586854,,
0.049062823637068,0.0709441432349819,0.00229815926265342,,
0.049302154484078,0.0581451254964094,0.00203870759354174,,
0.0495414853310881,0.0452048929823394,0.00176444192982217,,
0.0497808161780982,0.0321907408079538,0.00152333139689231,,
0.0500201470251083,0.0190431646963621,0.00123552880706557,,
0.0502594778721184,0.00592469926197902,0.000982061116071353,,
0.0504988087191285,-0.00727512678306397,0.000689841997679519,,
0.0507381395661386,-0.0203715726026354,0.00041917797119595,,
0.0509774704131487,-0.0334405405554187,0.000133053814256101,,
0.0512168012601587,-0.0464341659702341,-0.000131434673835251,,
0.0514561321071688,-0.0593832389864371,-0.000421400678515038,,
0.0516954629541789,-0.0721118825958924,-0.000689329649959713,,
0.051934793801189,-0.0847851506062345,-0.000988613693735374,,
0.0521741246481991,-0.0973471075976348,-0.00125335607520682,,
0.0524134554952092,-0.109518916202023,-0.00152315808045245,,
0.0526527863422193,-0.121604325809312,-0.00180013599441642,,
0.0528921171892294,-0.133162617561184,-0.00206331092633505,,
0.0531314480362394,-0.144621401180867,-0.0023212513977211,,
0.0533707788832495,-0.155650569053092,-0.00260322964299275,,
0.0536101097302596,-0.166365117683178,-0.00284541200127197,,
0.0538494405772697,-0.176625371802596,-0.00307567201290482,,
0.0540887714242798,-0.186507513680385,-0.00330759981518725,,
0.0543281022712899,-0.195953601872488,-0.0035332258925469,,
0.0545674331183,-0.205129949783149,-0.00372428902312683,,
0.0548067639653101,-0.21376649056884,-0.00395448974229362,,
0.0550460948123201,-0.22184563652875,-0.00416285867137756,,
0.0552854256593302,-0.229563138306414,-0.00435603504626236,,
0.0555247565063403,-0.236424300996192,-0.00454776711748561,,
0.0557640873533504,-0.243108746946761,-0.00471864952511547,,
0.0560034182003605,-0.249163207985432,-0.00486414107437616,,
0.0562427490473706,-0.25436053685687,-0.00504076420898025,,
0.0564820798943807,-0.259390572637811,-0.00515527468454202,,
0.0567214107413908,-0.263765944743643,-0.00527704620672198,,
0.0569607415884008,-0.267209588571895,-0.00541430066415316,,
0.0572000724354109,-0.270323311391782,-0.00549715048313537,,
0.057439403282421,-0.27295857410678,-0.0056230466325089,,
0.0576787341294311,-0.274817365489311,-0.00570050995899374,,
0.0579180649764412,-0.275759730360486,-0.00575772414814413,,
0.0581573958234513,-0.276450922337285,-0.0058214787524018,,
0.0583967266704614,-0.276592370371414,-0.00583674276162416,,
0.0586360575174715,-0.275946523872575,-0.00585239597267551,,
0.0588753883644815,-0.274619562169817,-0.00590806247642872,,
0.0591147192114916,-0.272538895177023,-0.00590707882961938,,
0.0593540500585017,-0.270145335055964,-0.00587669676185998,,
0.0595933809055118,-0.267168721659659,-0.00584840665393038,,
0.0598327117525219,-0.263604669725838,-0.00579155886181404,,
0.060072042599532,-0.259139586350339,-0.00577433668089045,,
0.0603113734465421,-0.254135162367135,-0.00567363222801287,,
0.0605507042935522,-0.248594989959149,-0.00560418250636996,,
0.0607900351405622,-0.242520002160908,-0.00551417806314491,,
0.0610293659875723,-0.236039704164609,-0.00542462819549305,,
0.0612686968345824,-0.228665325833851,-0.0053179747318497,,
0.0615080276815925,-0.221219010541144,-0.00517041706819299,,
0.0617473585286026,-0.213198832363273,-0.00503530322082035,,
0.0619866893756127,-0.204443749541064,-0.00487680077604891,,
0.0622260202226228,-0.195450882869925,-0.00474284085128529,,
0.0624653510696329,-0.185807364572138,-0.00456484334772345,,
0.0627046819166429,-0.176006769911913,-0.00438008042174687,,
0.062944012763653,-0.165528185713431,-0.00417302656915464,,
0.0631833436106631,-0.154872791472288,-0.00398122304290816,,
0.0634226744576732,-0.143845396365663,-0.0037691688590078,,
0.0636620053046833,-0.132390624794441,-0.00355263733375732,,
0.0639013361516934,-0.120816844669438,-0.00331563926546297,,
0.0641406669987035,-0.108684410122044,-0.00305950797445353,,
0.0643799978457136,-0.0964911883752855,-0.00285464186182871,,
0.0646193286927236,-0.084090366446511,-0.00259779297994722,,
0.0648586595397337,-0.0715378797555487,-0.00231942853446832,,
0.0650979903867438,-0.0586819702367584,-0.00210814059166831,,
0.0653373212337539,-0.0457916783956882,-0.00182487463565817,,
0.065576652080764,-0.0327974931601571,-0.00154491689519309,,
0.0658159829277741,-0.0196904573987165,-0.0012709203280501,,
0.0660553137747842,-0.00655874287406544,-0.00100339120067217,,
0.0662946446217943,0.00662970014976137,-0.000719006289404245,,
0.0665339754688044,0.0197703951317244,-0.000436055039560124,,
0.0667733063158144,0.032892569378348,-0.000143803994455904,,
0.0670126371628245,0.0459246358156313,0.000125294102794715,,
0.0672519680098346,0.0587725212374986,0.000422730958203221,,
0.0674912988568447,0.0715605058428022,0.000677170133449589,,
0.0677306297038548,0.0842122674073219,0.000961409094031751,,
0.0679699605508649,0.0966684649352096,0.00125465746882236,,
0.068209291397875,0.108862106547504,0.00151202021874308,,
0.068448622244885,0.120962817921018,0.00176637577640903,,
0.0686879530918951,0.13248168896417,0.00205617302560857,,
0.0689272839389052,0.143916773506895,0.00231521116777689,,
0.0691666147859153,0.15500588884741,0.0025489876787459,,
0.0694059456329254,0.165723119951758,0.00281100564741577,,
0.0696452764799355,0.176087803960489,0.00304916371959818,,
0.0698846073269456,0.186008760074557,0.00329940529230832,,
0.0701239381739557,0.195483725685237,0.00348990742493971,,
0.0703632690209657,0.204529122200185,0.00374541842553455,,
0.0706025998679758,0.212949385582769,0.00397693270087407,,
0.0708419307149859,0.221098509132122,0.00417396612669485,,
0.071081261561996,0.228766560079913,0.00437703218086138,,
0.0713205924090061,0.235813023426538,0.00455653936182987,,
0.0715599232560162,0.242391663261868,0.00473630195649832,,
0.0717992541030263,0.248443325196961,0.00488869879758047,,
0.0720385849500364,0.253783455002591,0.00504743233093752,,
0.0722779157970465,0.258643445241183,0.00514706799910591,,
0.0725172466440565,0.263110814551271,0.00529909692283415,,
0.0727565774910666,0.266915169527242,0.00540883055407582,,
0.0729959083380767,0.269853295249352,0.00552112744423638,,
0.0732352391850868,0.272443958914011,0.00559028374418791,,
0.0734745700320969,0.274434308164696,0.0057019481813767,,
0.073713900879107,0.275469230060842,0.00575702024014912,,
0.0739532317261171,0.275853080464804,0.00581052332904974,,
0.0741925625731271,0.276297391506046,0.00587046953259973,,
0.0744318934201372,0.275468856847032,0.00587297806001175,,
0.0746712242671473,0.274528544651813,0.00589370305739445,,
0.0749105551141574,0.272503113302954,0.00591014683466051,,
0.0751498859611675,0.270076663714856,0.00589081749071063,,
0.0753892168081776,0.266796860749355,0.0058323186314615,,
0.0756285476551877,0.263526388129114,0.00580545154271839,,
0.0758678785021978,0.258977284994556,0.00574763074603002,,
0.0761072093492079,0.254172903613708,0.00570350498869177,,
0.0763465401962179,0.248794892606327,0.00561191181143883,,
0.076585871043228,0.242763944037709,0.00554539174574931,,
0.0768252018902381,0.236290363889996,0.00543082349804092,,
0.0770645327372482,0.229215909507594,0.00531753840011184,,
0.0773038635842583,0.221911555418006,0.00520629965242358,,
0.0775431944312684,0.213758699730549,0.00507304667629427,,
0.0777825252782785,0.205012993905325,0.00490779401230501,,
0.0780218561252886,0.196063699946546,0.00474614450587163,,
0.0782611869722986,0.186537417436941,0.00457231419845261,,
0.0785005178193087,0.176699151507732,0.00437210634521579,,
0.0787398486663188,0.166339086019905,0.00418379347287123,,
0.0789791795133289,0.155844500279304,0.00396099975100839,,
