Time domain (s),Current (AC) (A),Potential (AC) (V),Frequency (Hz),Column 5
0,0.163732749828279,0.00288011010435696,5011.9,0.4
6.23516031844211E-06,0.202858232324284,0.00338966530499762,,
1.24703206368842E-05,0.23460716325884,0.00374284303552441,,
1.87054809553263E-05,0.256930712532985,0.00390921199905403,,
2.49406412737684E-05,0.268970563407318,0.00395220027156995,,
3.11758015922105E-05,0.270784679002838,0.00386561707404853,,
3.74109619106526E-05,0.262509222062643,0.00359089851402583,,
4.36461222290948E-05,0.243871433461228,0.00321061511171061,,
4.98812825475369E-05,0.215872181633583,0.00270109280186803,,
5.6116442865979E-05,0.179513491386189,0.00204970151820438,,
6.23516031844211E-05,0.136398960884578,0.00138420739141898,,
6.85867635028632E-05,0.0879434973761931,0.000625025654822142,,
7.48219238213053E-05,0.0365689474937961,-0.000158862552601668,,
8.10570841397474E-05,-0.0150841722808503,-0.000871998999768753,,
8.72922444581895E-05,-0.0672886788918261,-0.00163236297781388,,
9.35274047766316E-05,-0.117769845069348,-0.00233340657504888,,
9.97625650950737E-05,-0.163688547528025,-0.00291491039552705,,
0.000105997725413516,-0.20323703071554,-0.00338150655991587,,
0.000112232885731958,-0.234751969878835,-0.00374300200771271,,
0.0001184680460504,-0.257213098451156,-0.00391357733880771,,
0.000124703206368842,-0.269711161528908,-0.00397202976801392,,
0.000130938366687284,-0.271656351832964,-0.00385861133415144,,
0.000137173527005726,-0.26295587055115,-0.00359815824397147,,
0.000143408687324168,-0.244105222867478,-0.00319684300383205,,
0.000149643847642611,-0.216018000078633,-0.00270595333085266,,
0.000155879007961053,-0.179509444085969,-0.00207480998766929,,
0.000162114168279495,-0.136019006121831,-0.00135260481668631,,
0.000168349328597937,-0.0874223207450733,-0.000599199069608591,,
0.000174584488916379,-0.0357370249336821,0.000143011015405925,,
0.000180819649234821,0.0159783365364824,0.000873005823629924,,
0.000187054809553263,0.0678516005337811,0.00162465374030063,,
0.000193289969871705,0.117912714767095,0.00230132708375042,,
0.000199525130190147,0.163605230962078,0.00291747039594314,,
0.00020576029050859,0.20304365649291,0.00340807318807679,,
0.000211995450827032,0.234569957006108,0.00372421222592756,,
0.000218230611145474,0.256845430135504,0.00392139986684636,,
0.000224465771463916,0.269163099260616,0.00394697063474503,,
0.000230700931782358,0.270868458117381,0.00386542338379581,,
0.0002369360921008,0.26268837291593,0.00358966693638108,,
0.000243171252419242,0.24381653472468,0.00319874884282889,,
0.000249406412737684,0.215921529786973,0.00271550262576747,,
0.000255641573056126,0.179628868351731,0.00208272387903508,,
0.000261876733374569,0.136402256543328,0.00137678503475147,,
0.000268111893693011,0.0879523436181014,0.00064679205379381,,
0.000274347054011453,0.0365195993404057,-0.000110677534058912,,
0.000280582214329895,-0.0150219594946194,-0.000871326565683894,,
0.000286817374648337,-0.067296773492265,-0.00163373708224901,,
0.000293052534966779,-0.117757934442987,-0.0023138018323885,,
0.000299287695285221,-0.163755327981646,-0.00289304897869558,,
0.000305522855603663,-0.203294733652954,-0.00335935643497187,,
0.000311758015922105,-0.234657552146572,-0.0037171900406312,,
0.000317993176240548,-0.25726952937993,-0.00391755895258861,,
0.00032422833655899,-0.269821768462049,-0.00396769731905788,,
0.000330463496877432,-0.271734349090051,-0.00385543006311284,,
0.000336698657195874,-0.262980905993936,-0.00358875330311292,,
0.000342933817514316,-0.244162174163423,-0.00320106398952902,,
0.000349168977832758,-0.215966599365846,-0.0026949184682441,,
0.0003554041381512,-0.179143105597532,-0.0020973273931868,,
0.000361639298469642,-0.135957255884196,-0.00136990903077816,,
0.000367874458788084,-0.0874286807882753,-0.000605276558105938,,
0.000374109619106526,-0.0357499762943844,0.000173045795451188,,
0.000380344779424969,0.0159780763528968,0.000885144355225798,,
0.000386579939743411,0.0677774482119028,0.0016176662730687,,
0.000392815100061853,0.117953216678577,0.00231087272413211,,
0.000399050260380295,0.163647236156499,0.00291289857507149,,
0.000405285420698737,0.202920184926929,0.00339049853853757,,
0.000411520581017179,0.234600600850627,0.00373508811634737,,
0.000417755741335621,0.256834560243486,0.0039296189117235,,
0.000423990901654063,0.269005225642769,0.0039662409876291,,
0.000430226061972505,0.270954231972747,0.00382585940876812,,
0.000436461222290948,0.262530499298083,0.00359831721616022,,
0.00044269638260939,0.243880308612424,0.00321453277116301,,
0.000448931542927832,0.215818294722089,0.0026909368544632,,
0.000455166703246274,0.179513231202603,0.00207842614814346,,
0.000461401863564716,0.136192259480512,0.00135186842827251,,
0.000467637023883158,0.0879500597844061,0.000635276620086778,,
0.0004738721842016,0.0365320014246497,-0.000150530217199574,,
0.000480107344520042,-0.0150631841382835,-0.00089213364972407,,
0.000486342504838484,-0.0673131939674412,-0.00162821873731156,,
0.000492577665156927,-0.117832809497048,-0.00230865259529134,,
0.000498812825475369,-0.163805398867218,-0.00289615350453909,,
0.000505047985793811,-0.203190949311612,-0.0033836992797589,,
0.000511283146112253,-0.234905767287176,-0.00373804463360194,,
0.000517518306430695,-0.257271032662869,-0.00391658501952508,,
0.000523753466749137,-0.269786325675841,-0.00395624583967935,,
0.000529988627067579,-0.271616630472239,-0.00386711908714066,,
0.000536223787386021,-0.263092727117143,-0.00360791402000515,,
0.000542458947704463,-0.244160902154783,-0.00319094093292227,,
0.000548694108022906,-0.216113632000962,-0.00269989228775414,,
0.000554929268341348,-0.179492503243622,-0.00206897187108801,,
0.00056116442865979,-0.135978764393934,-0.00135676367532112,,
0.000567399588978232,-0.0873724233152245,-0.000607803667724394,,
0.000573634749296674,-0.0357558159704154,0.000154078768811683,,
0.000579869909615116,0.0159593720440254,0.000886759658843328,,
0.000586105069933558,0.0678156373804023,0.00162847638189323,,
0.000592340230252,0.11800126391404,0.00230740457224776,,
0.000598575390570442,0.163792245141505,0.00290939387785594,,
0.000604810550888885,0.202927788069484,0.003392672985715,,
0.000611045711207327,0.23454717648773,0.00374463375672907,,
0.000617280871525769,0.256702213526309,0.00393988449512017,,
0.000623516031844211,0.269175761528446,0.00396481937426429,,
0.000629751192162653,0.270861866799881,0.0038644147326683,,
0.000635986352481095,0.262610462386705,0.0035957407703453,,
0.000642221512799537,0.244023987770215,0.00319802889981347,,
0.000648456673117979,0.215794762562242,0.00269220132290604,,
0.000654691833436421,0.179428989539463,0.00206511999323133,,
0.000660926993754863,0.136217323832585,0.00136192935781709,,
0.000667162154073306,0.0879432371926075,0.000650565359189947,,
0.000673397314391748,0.0365448949667774,-0.000124140833893005,,
0.00067963247471019,-0.0150624324968142,-0.000858899325975493,,
0.000685867635028632,-0.0672706973151367,-0.00161331372418072,,
0.000692102795347074,-0.117812052628779,-0.0023404598238761,,
0.000698337955665516,-0.163647265065786,-0.00291969417931703,,
0.000704573115983958,-0.203136310758649,-0.00337790867210774,,
0.0007108082763024,-0.235066676380187,-0.00374445651187516,,
0.000717043436620842,-0.257258890762211,-0.00391319361283493,,
0.000723278596939285,-0.269538052716664,-0.0039694551494649,,
0.000729513757257727,-0.271580956411733,-0.0038796742355065,,
0.000735748917576169,-0.263079313207844,-0.003629022603024,,
0.000741984077894611,-0.244141648569453,-0.00320656588906765,,
0.000748219238213053,-0.215986084225474,-0.00268660257824083,,
0.000754454398531495,-0.179359983070721,-0.0020599689288674,,
0.000760689558849937,-0.135986627720075,-0.00135861835085471,,
0.000766924719168379,-0.087308186878884,-0.000616887009672773,,
0.000773159879486821,-0.0357615978278718,0.000163498327802714,,
0.000779395039805264,0.0159310120332017,0.000893524199558016,,
0.000785630200123706,0.0677713772615735,0.00162079820791039,,
0.000791865360442148,0.117936015652645,0.00229499377793818,,
0.00079810052076059,0.163569065443688,0.00292665058301811,,
0.000804335681079032,0.203144607724099,0.00336932051939032,,
0.000810570841397474,0.234370338377426,0.00371938458774057,,
0.000816806001715916,0.25704883588082,0.00393879909879802,,
0.000823041162034358,0.269242541982067,0.00395034376876957,,
0.0008292763223528,0.2711029991651,0.0038586296068166,,
0.000835511482671243,0.262541629373686,0.00357519498541947,,
0.000841746642989685,0.243877012953673,0.0032153477320378,,
0.000847981803308127,0.215797306579523,0.00266661228234177,,
0.000854216963626569,0.179662027304244,0.00206598246303624,,
0.000860452123945011,0.136322813821877,0.00135489438165548,,
0.000866687284263453,0.0879204566742293,0.000611352219336503,,
0.000872922444581895,0.0365858883361433,-0.000159390632630707,,
0.000879157604900337,-0.0150857333823635,-0.000889062014677755,,
0.000885392765218779,-0.0673370152201616,-0.00163591152942599,,
0.000891627925537222,-0.117679185544431,-0.00230650921164521,,
0.000897863085855664,-0.163694618478354,-0.00290462836673111,,
0.000904098246174106,-0.203373887281533,-0.00338927975175851,,
0.000910333406492548,-0.234750408777322,-0.00372571423901968,,
0.00091656856681099,-0.25715157948782,-0.00391228180683401,,
0.000922803727129432,-0.269423225027579,-0.00398303356709073,,
0.000929038887447874,-0.2716019445543,-0.00383882934663715,,
0.000935274047766316,-0.26302947359657,-0.00359729394690023,,
0.000941509208084758,-0.24418848161485,-0.00320744480427138,,
0.0009477443684032,-0.215996202476023,-0.00268540206412693,,
0.000953979528721643,-0.179279210522055,-0.00204893406625928,,
0.000960214689040085,-0.135986107352904,-0.00135343805022625,,
0.000966449849358527,-0.0873560028400484,-0.000624099230688735,,
0.000972685009676969,-0.0357615978278718,0.000160781182464209,,
0.000978920169995411,0.015928988383092,0.000880793633604604,,
0.000985155330313853,0.0678531038167197,0.00162810727405294,,
0.000991390490632295,0.117953216678577,0.00231142090409309,,
0.000997625650950737,0.163651543640304,0.00290400344157637,,
0.00100386081126918,0.202955858987435,0.0033753358808255,,
0.00101009597158762,0.234549460321425,0.0037195271145305,,
0.00101633113190606,0.256602303029462,0.0039207091600959,,
0.00102256629222451,0.269097822089933,0.00396104424160182,,
0.00102880145254295,0.271142980709411,0.00385067734285416,,
0.00103503661286139,0.262488494103662,0.00360258936532043,,
0.00104127177317983,0.243940006290661,0.00320311235531578,,
0.00104750693349827,0.215680917788925,0.0027026459784234,,
0.00105374209381672,0.179561076073055,0.00207284567614385,,
0.00105997725413516,0.136397949059523,0.0013614323413198,,
0.0010662124144536,0.0879406931753267,0.000601262053527396,,
0.00107244757477204,0.0365456466082468,-0.000163660954524136,,
0.00107868273509048,-0.0150771184147535,-0.000900146213482778,,
0.00108491789540893,-0.0673053884598751,-0.00161801710824339,,
0.00109115305572737,-0.117779153859852,-0.00230131063835159,,
0.00109738821604581,-0.163650271631663,-0.00288882799299817,,
0.00110362337636425,-0.203238823091351,-0.00338352386217133,,
0.0011098585366827,-0.23498474746003,-0.00375307755538978,,
0.00111609369700114,-0.257401066637064,-0.00393620803485062,,
0.00112232885731958,-0.269708097144456,-0.00396238728250564,,
0.00112856401763802,-0.271541235051008,-0.00387914615547791,,
0.00113479917795646,-0.26309243802427,-0.00359846157021648,,
0.00114103433827491,-0.244241905977747,-0.00320798932969879,,
0.00114726949859335,-0.216048354830279,-0.00267691075653609,,
0.00115350465891179,-0.17934223276833,-0.00207189732481172,,
0.00115973981923023,-0.135991947028935,-0.00134291299498157,,
0.00116597497954867,-0.0874235927537137,-0.000613895774353779,,
0.00117221013986712,-0.0357479526442747,0.000157197912788121,,
0.00117844530018556,0.0159553247438059,0.000885433063338326,,
0.001184680460504,0.0677961525207742,0.00163453559772497,,
0.00119091562082244,0.117972181171034,0.00229902472791554,,
0.00119715078114088,0.16369583266842,0.00291384144460372,,
0.00120338594145933,0.202972308371898,0.00337323817884272,,
0.00120962110177777,0.234315931098761,0.00374575204384886,,
0.00121585626209621,0.256607101971151,0.00390430396113972,,
0.00122209142241465,0.26905786945491,0.00396688053091676,,
0.0012283265827331,0.271058970320569,0.00387190287093109,,
0.00123456174305154,0.26265018374743,0.0035981417985731,,
0.00124079690336998,0.243859783018453,0.00319825182633116,,
0.00124703206368842,0.215919506136864,0.00271662091288727,,
0.00125326722400686,0.179428989539463,0.00206788282023318,,
0.00125950238432531,0.136252708800218,0.00137063080105948,,
0.00126573754464375,0.0878885986396446,0.000582390044747694,,
0.00127197270496219,0.0365459067918323,-0.000158095100657007,,
0.00127820786528063,-0.0151046978748205,-0.000874414646129029,,
0.00128444302559907,-0.0673155067104238,-0.00163386499090645,,
0.00129067818591752,-0.11770526172156,-0.00231258670014256,,
0.00129691334623596,-0.163694618478354,-0.00290667490525109,,
0.0013031485065544,-0.203262817799795,-0.00336984859941936,,
0.00130938366687284,-0.234838697740681,-0.00372337899238717,,
0.00131561882719128,-0.257278375621839,-0.00391887092996113,,
0.00132185398750973,-0.269725558353975,-0.00399090177679318,,
0.00132808914782817,-0.271667452999281,-0.00386433616020732,,
0.00133432430814661,-0.262897647246564,-0.00360711550452919,,
0.00134055946846505,-0.244362052975691,-0.00321011809521288,,
0.0013467946287835,-0.215973653231943,-0.00269330133736023,,
0.00135302978910194,-0.179506206245794,-0.00208770135307779,,
0.00135926494942038,-0.135952977309679,-0.00138278212352105,,
0.00136550010973882,-0.0873853168573523,-0.000630991680060866,,
0.00137173527005726,-0.0357243626658526,0.000151745349445953,,
0.00137797043037571,0.0159525205429395,0.00087249418900015,,
0.00138420559069415,0.0677589751773296,0.00162622153498804,,
0.00139044075101259,0.117823674162267,0.00231218835603775,,
0.00139667591133103,0.163664726275304,0.0029068832136363,,
0.00140291107164947,0.202892114008978,0.00337250361769526,,
0.00140914623196792,0.234490774468243,0.0037274903420923,,
0.00141538139228636,0.256833808602016,0.00393126710613867,,
0.0014216165526048,0.269068970621226,0.00397887470845593,,
0.00142785171292324,0.271055183203935,0.00385483985602209,,
0.00143408687324168,0.262478115669528,0.00360685785994752,,
0.00144032203356013,0.24385067659296,0.00323738456645684,,
0.00144655719387857,0.215744662767382,0.00269498242257304,,
0.00145279235419701,0.179610135133572,0.00206414423290147,,
0.00145902751451545,0.13630587297953,0.00135126177578249,,
0.0014652626748339,0.0879548587260949,0.000623763013646084,,
0.00147149783515234,0.0365471788004727,-0.000139142692149985,,
0.00147773299547078,-0.0150791420648632,-0.000885736389583336,,
0.00148396815578922,-0.0672798326499178,-0.001631083891239,,
0.00149020331610766,-0.117810549345841,-0.00232542690208781,,
0.00149643847642611,-0.163671606685677,-0.00290635513360726,,
0.00150267363674455,-0.203258539225277,-0.00337699869337271,,
0.00150890879706299,-0.234756479727651,-0.00373745259924441,,
0.00151514395738143,-0.257421303138161,-0.00394010924890376,,
0.00152137911769987,-0.269728333645554,-0.00397257246617455,,
0.00152761427801832,-0.271722958830862,-0.00384692231012318,,
0.00153384943833676,-0.262955350183979,-0.00361079196479874,,
0.0015400845986552,-0.244278042586849,-0.00321999995263722,,
0.00154631975897364,-0.216034420553809,-0.00267136317533412,,
0.00155255491929209,-0.179334427260764,-0.00205427516634282,,
0.00155879007961053,-0.136010911521392,-0.00135458922814369,,
0.00156502523992897,-0.087517432300231,-0.000625489780522237,,
0.00157126040024741,-0.0357861707220615,0.000168344238654861,,
0.00157749556056585,0.015981372011647,0.000875947722752457,,
0.0015837307208843,0.0678531038167197,0.0016296933414055,,
0.00158996588120274,0.117996956430235,0.00234582102389158,,
0.00159620104152118,0.163608786804414,0.00291827073868589,,
0.00160243620183962,0.202897664592136,0.00337366941374517,,
0.00160867136215806,0.234386787761889,0.00373428777360463,,
0.00161490652247651,0.256809524800699,0.00392659295834052,,
0.00162114168279495,0.269235199023097,0.00399036090589844,,
0.00162737684311339,0.270978775957649,0.00386972842375366,,
0.00163361200343183,0.262543913207381,0.00361819787606743,,
0.00163984716375027,0.243995916852264,0.00321936040935,,
0.00164608232406872,0.215886115910053,0.00268012674563911,,
0.00165231748438716,0.17952794602983,0.00207136924478268,,
0.0016585526447056,0.136258779750548,0.00136928593288932,,
0.00166478780502404,0.0879379178837477,0.000599900739958414,,
0.00167102296534249,0.0365125165650216,-0.000144436283303406,,
0.00167725812566093,-0.015073071114534,-0.000853384635571164,,
0.00168349328597937,-0.0673484054793507,-0.00165209562913171,,
0.00168972844629781,-0.117824946170907,-0.00234068457765968,,
0.00169596360661625,-0.163749777398488,-0.00289869523229047,,
0.0017021987669347,-0.203163601125843,-0.00338660828808335,,
0.00170843392725314,-0.235004232319658,-0.00372318712940123,,
0.00171466908757158,-0.257298612122936,-0.00392477300087091,,
0.00172090424789002,-0.269522152608658,-0.0039707817449699,,
0.00172713940820846,-0.271731515979898,-0.00386606475434981,,
0.00173337456852691,-0.26303074560521,-0.00360535401958861,,
0.00173960972884535,-0.244171020405331,-0.00319191669325214,,
0.00174584488916379,-0.215988859517053,-0.00268060548947124,,
0.00175208004948223,-0.179436130133422,-0.00204766959781644,,
0.00175831520980067,-0.135872725128184,-0.00136731796683076,,
0.00176455037011912,-0.0874603075485618,-0.000582695198259042,,
0.00177078553043756,-0.0357474900956782,0.000145923678263493,,
0.001777020690756,0.0159854193118665,0.0008780125339376,,
0.00178325585107444,0.0677761762032624,0.00161434064797383,,
0.00178949101139289,0.117903348158016,0.0023185508981145,,
0.00179572617171133,0.163759577646877,0.00291165237929425,,
0.00180196133202977,0.202940681611612,0.00338556857342454,,
0.00180819649234821,0.234317694565285,0.00372751957835682,,
0.00181443165266665,0.256727538061968,0.00392192611960862,,
0.0018206668129851,0.269089727489494,0.00397310054620359,,
0.00182690197330354,0.27096940934857,0.00386259477519912,,
0.00183313713362198,0.262857636792966,0.00359662151281537,,
0.00183937229394042,0.243734287802362,0.00320683632451502,,
0.00184560745425886,0.215682681255449,0.00270144363704272,,
0.00185184261457731,0.179508663535213,0.00205980995667909,,
0.00185807777489575,0.136236288325042,0.00137323648313936,,
0.00186431293521419,0.0879108587908517,0.000632270766635745,,
0.00187054809553263,0.0364975993727841,-0.000148739495994921,,
0.00187678325585107,-0.0150596572052351,-0.000872638543056414,,
0.00188301841616952,-0.0672676907492593,-0.0016118427746199,,
0.00188925357648796,-0.117750822758316,-0.00231442493027734,,
0.0018954887368064,-0.163745209731097,-0.00291270488481832,,
0.00190172389712484,-0.203292710002845,-0.00339679529901904,,
0.00190795905744329,-0.234841241757962,-0.00372270655830231,,
0.00191419421776173,-0.257130360070955,-0.00391581756757997,,
0.00192042937808017,-0.269753889455511,-0.00394756266910257,,
0.00192666453839861,-0.271690580429106,-0.00383319953844108,,
0.00193289969871705,-0.263058556339575,-0.0036224188617644,,
0.0019391348590355,-0.244267172694831,-0.0032231337147457,,
0.00194537001935394,-0.215982788566724,-0.00264797964547858,,
0.00195160517967238,-0.179409533589123,-0.00207348339216429,,
0.00195784033999082,-0.135925108756739,-0.00137657855363305,,
0.00196407550030926,-0.0873565232072195,-0.000628641815295872,,
0.00197031066062771,-0.0356940079142065,0.000101559474046553,,
0.00197654582094615,0.0159765730699582,0.000875052362149908,,
0.00198278098126459,0.0678308147562253,0.00162997839498535,,
0.00198901614158303,0.117966601678589,0.00232056820036997,,
0.00199525130190147,0.1636338222472,0.00290427753155642,,
0.00200148646221992,0.203157530175514,0.00337368768641033,,
0.00200772162253836,0.23454312918751,0.00373359706685417,,
0.0020139567828568,0.256572699919285,0.00392717037456558,,
