Time domain (s),Current (AC) (A),Potential (AC) (V),Frequency (Hz),Column 5
0,-0.090036019861411,-0.00100347386244648,1258.9,0.5
2.48232584001906E-05,-0.174797018146835,-0.00236313725762782,,
4.96465168003813E-05,-0.252195836818084,-0.00355744405297642,,
7.44697752005719E-05,-0.319652872663122,-0.00459435914453321,,
9.92930336007626E-05,-0.374605067491617,-0.00550312836661959,,
0.000124116292000953,-0.414829707701303,-0.00620572905389638,,
0.000148939550401144,-0.439517791437007,-0.00663637439360976,,
0.000173762808801334,-0.447054510378841,-0.00681182192253704,,
0.000198586067201525,-0.437342156587482,-0.00673902503957224,,
0.000223409325601716,-0.411046933468988,-0.00642290899737707,,
0.000248232584001906,-0.368414957097268,-0.00584287463079125,,
0.000273055842402097,-0.312209956183386,-0.00505247118266938,,
0.000297879100802288,-0.243752763125137,-0.00405069574242756,,
0.000322702359202478,-0.166181748412566,-0.00289593007069922,,
0.000347525617602669,-0.0821659861905166,-0.0016259498937079,,
0.00037234887600286,0.00387096700894269,-0.000319950801328073,,
0.00039717213440305,0.090366955799797,0.00100180635186975,,
0.000421995392803241,0.174858476156636,0.00232434659963321,,
0.000446818651203432,0.252028504871124,0.00352945700882312,,
0.000471641909603622,0.319385453986164,0.00462796351834438,,
0.000496465168003813,0.374265788033703,0.0055204715070083,,
0.000521288426404003,0.41423827643195,0.00621617890133352,,
0.000546111684804194,0.438942727667665,0.00665628491640069,,
0.000570934943204385,0.446454700085622,0.00683382756675321,,
0.000595758201604575,0.436798585166316,0.00676385051114936,,
0.000620581460004766,0.410493527346081,0.00641489258195671,,
0.000645404718404957,0.36854454793249,0.00586001856291318,,
0.000670227976805147,0.312332872202986,0.00505229773409255,,
0.000695051235205338,0.244252522192697,0.00404812320808734,,
0.000719874493605529,0.166866982144016,0.00289532557664884,,
0.000744697752005719,0.0831975292388878,0.00162926774173577,,
0.00076952101040591,-0.00287950835864438,0.000316832161567415,,
0.000794344268806101,-0.0900325404362461,-0.00100235760922818,,
0.000819167527206291,-0.174706411075195,-0.00230937506800544,,
0.000843990785606482,-0.2520541745078,-0.00357167885747955,,
0.000868814044006672,-0.319695619886576,-0.00461085736710087,,
0.000893637302406863,-0.374477890951407,-0.00552089568323089,,
0.000918460560807054,-0.414928764805487,-0.00618649858691267,,
0.000943283819207244,-0.439429172608318,-0.00663093222984212,,
0.000968107077607435,-0.447165851984117,-0.00681235428945648,,
0.000992930336007626,-0.437486446218809,-0.00675754625643421,,
0.00101775359440782,-0.410718873382014,-0.00640584062701199,,
0.00104257685280801,-0.368741597010705,-0.00582788420872493,,
0.0010674001112082,-0.312095064144268,-0.00505150777027641,,
0.00109222336960839,-0.243910899448447,-0.00403954351411961,,
0.00111704662800858,-0.166178837056815,-0.00288803043253827,,
0.00114186988640877,-0.0822595046179073,-0.00166787636459009,,
0.00116669314480896,0.00391080287664671,-0.000335037392902748,,
0.00119151640320915,0.0904318932347619,0.00100427584745155,,
0.00121633966160934,0.174850416671815,0.0023238726213437,,
0.00124116292000953,0.251978266232264,0.00354412285879979,,
0.00126598617840972,0.319287319994779,0.00463493924230329,,
0.00129080943680991,0.373952426742833,0.00552171140673696,,
0.0013156326952101,0.414464474572006,0.00619596956614288,,
0.00134045595361029,0.438746246658864,0.00663789249798707,,
0.00136527921201049,0.446386602764538,0.00683712137240367,,
0.00139010247041068,0.436576399016501,0.00677904872804591,,
0.00141492572881087,0.410527291971915,0.00644082400287616,,
0.00143974898721106,0.368754591598566,0.00585997734740973,,
0.00146457224561125,0.312531980532829,0.0050697284574257,,
0.00148939550401144,0.244591020555166,0.00404192714406904,,
0.00151421876241163,0.166928475658155,0.00288075589618009,,
0.00153904202081182,0.0830550148244815,0.00163530924761623,,
0.00156386527921201,-0.0029106456634362,0.000313857776068627,,
0.0015886885376122,-0.0900582455772601,-0.00100008216997516,,
0.00161351179601239,-0.174794390825793,-0.00231867259865837,,
0.00163833505441258,-0.252357452566559,-0.00352795264294681,,
0.00166315831281277,-0.319482096795336,-0.00462833102325,,
0.00168798157121296,-0.374519715062062,-0.00551882975612061,,
0.00171280482961315,-0.415054805206867,-0.00620411134538612,,
0.00173762808801334,-0.439399206946694,-0.0066530666725062,,
0.00176245134641354,-0.446951831832139,-0.00682396504024041,,
0.00178727460481373,-0.437339600275116,-0.00676051720730753,,
0.00181209786321392,-0.410806924141289,-0.00642170859583935,,
0.00183692112161411,-0.368607390611488,-0.00583595214352473,,
0.0018617443800143,-0.31210578645447,-0.00505381240384395,,
0.00188656763841449,-0.243868507268377,-0.00404250416111696,,
0.00191139089681468,-0.166057625245459,-0.00291425379660737,,
0.00193621415521487,-0.0822398352144242,-0.00161457613206872,,
0.00196103741361506,0.00384788918897156,-0.000316600324360206,,
0.00198586067201525,0.0904558586631935,0.00100110912293649,,
0.00201068393041544,0.1747883905926,0.00232310326527907,,
0.00203550718881563,0.25199474024529,0.00353765889400925,,
0.00206033044721582,0.319594361513411,0.00461358961151692,,
0.00208515370561601,0.374020524063918,0.00552684960616689,,
0.0021099769640162,0.414184309837556,0.00621413873391274,,
0.0021348002224164,0.438749974614398,0.00664132368864934,,
0.00215962348081659,0.446355145920701,0.00683571317603615,,
0.00218444673921678,0.436947774396345,0.00676120928430324,,
0.00220926999761697,0.410577779141144,0.00643599491972235,,
0.00223409325601716,0.36882471266694,0.00587206379379612,,
0.00225891651441735,0.312540643591403,0.0050259610273895,,
0.00228373977281754,0.244438671439018,0.00404952110057932,,
0.00230856303121773,0.166983578391378,0.00288141190960989,,
0.00233338628961792,0.0830979750739662,0.00163946857883923,,
0.00235820954801811,-0.002959144589714,0.000331975424459507,,
0.0023830328064183,-0.090117395805063,-0.00100632116680988,,
0.00240785606481849,-0.174711310673896,-0.00236521692323954,,
0.00243267932321868,-0.252326279757429,-0.00352775858661802,,
0.00245750258161887,-0.31961680025529,-0.00464552647475092,,
0.00248232584001906,-0.374732670083888,-0.00551062271899649,,
0.00250714909841925,-0.41509400199648,-0.00619428659975174,,
0.00253197235681945,-0.43960811447394,-0.00663630398379134,,
0.00255679561521964,-0.446853697840754,-0.00681790636123347,,
0.00258161887361983,-0.437169889537482,-0.00676040558198565,,
0.00260644213202002,-0.410979972286734,-0.00644681742400222,,
0.00263126539042021,-0.368558394624473,-0.00586258079337743,,
0.0026560886488204,-0.312372068992598,-0.00504758714551068,,
0.00268091190722059,-0.243832718895253,-0.00405207817910558,,
0.00270573516562078,-0.166199642599128,-0.00288716490696617,,
0.00273055842402097,-0.0822248523836122,-0.00162913379134899,,
0.00275538168242116,0.00383262232345219,-0.000332736193960237,,
0.00278020494082135,0.0904036317813819,0.00100836992079367,,
0.00280502819922154,0.174786934914725,0.0023185420828975,,
0.00282985145762173,0.252126567853832,0.00354799024687313,,
0.00285467471602192,0.319371891328889,0.00462698808476292,,
0.00287949797442211,0.374189027654045,0.00553105015289335,,
0.0029043212328223,0.414505766117585,0.00621012022232659,,
0.0029291444912225,0.438351509424343,0.00661464008479218,,
0.00295396774962269,0.446150569922741,0.00685801076340153,,
0.00297879100802288,0.436530243376559,0.00677940936370103,,
0.00300361426642307,0.410464662318947,0.00643525304066017,,
0.00302843752482326,0.368691429380522,0.00584230963493182,,
0.00305326078322345,0.312469954453615,0.0050373639833432,,
0.00307808404162364,0.24442741656374,0.00404806825408288,,
0.00310290730002383,0.166908557724303,0.00289599532858009,,
0.00312773055842402,0.0831594685881046,0.00162629335623699,,
0.00315255381682421,-0.00288238421005616,0.000327661535098667,,
0.0031773770752244,-0.0900270727681298,-0.00100898815334505,,
0.00320220033362459,-0.174801349676122,-0.0023465153885498,,
0.00322702359202478,-0.252123123933006,-0.00354911165202942,,
0.00325184685042497,-0.319872218465863,-0.00461646611019484,,
0.00327667010882516,-0.374563243380962,-0.00552734419220791,,
0.00330149336722536,-0.414980104078838,-0.00619230310364838,,
0.00332631662562555,-0.439490666122456,-0.00662946736215719,,
0.00335113988402574,-0.446761386560869,-0.00684460542090459,,
0.00337596314242593,-0.437211145578723,-0.00674685426791477,,
0.00340078640082612,-0.410742803306107,-0.00641805071990831,,
0.00342560965922631,-0.368529494093001,-0.00585092710977753,,
0.0034504329176265,-0.3120575715629,-0.00505883382601402,,
0.00347525617602669,-0.244006974188204,-0.00405012387731718,,
0.00350007943442688,-0.166136657902776,-0.00292240587972659,,
0.00352490269282707,-0.0822421785007597,-0.00160088571567352,,
0.00354972595122726,0.00391396276276583,-0.00035337657462442,,
0.00357454920962745,0.0904062235980863,0.000988840641410249,,
0.00359937246802764,0.174884145793311,0.00233333501401001,,
0.00362419572642783,0.252063689670496,0.00353817752242724,,
0.00364901898482802,0.319400436816976,0.00462457354318602,,
0.00367384224322822,0.374205466162732,0.00552760522373008,,
0.00369866550162841,0.414493623633846,0.00619057033519121,,
0.0037234887600286,0.438841753329206,0.00665744238512245,,
0.00374831201842879,0.446202477265507,0.00685968686054172,,
0.00377313527682898,0.436824254802991,0.00673176080709004,,
0.00379795853522917,0.410678788983941,0.0064306918582786,,
0.00382278179362936,0.368621592346855,0.00584973529480326,,
0.00384760505202955,0.312636150261745,0.00504099438227223,,
0.00387242831042974,0.244378917637462,0.00405956737954494,,
0.00389725156882993,0.166851963808866,0.00291041045091101,,
0.00392207482723012,0.0830890634850235,0.00163027408694472,,
0.00394689808563031,-0.00291671690530553,0.000330495100960615,,
0.0039717213440305,-0.0900365879308256,-0.000998952178255852,,
0.00399654460243069,-0.17481576443752,-0.00233096855718706,,
0.00402136786083088,-0.25233409071188,-0.0035549041475762,,
0.00404619111923107,-0.319489055645666,-0.00462278925534898,,
0.00407101437763127,-0.374616073836526,-0.00553977925306048,,
0.00409583763603146,-0.415003749968224,-0.006176505544639,,
0.00412066089443165,-0.439388555645168,-0.0066682236738993,,
0.00414548415283184,-0.446813009868928,-0.00685050954177369,,
0.00417030741123203,-0.437613409732989,-0.00675169708957002,,
0.00419513066963222,-0.410760413457962,-0.00643694802823935,,
0.00421995392803241,-0.368609094819732,-0.00584651533359581,,
0.0042447771864326,-0.311998989404511,-0.00505294516095889,,
0.00426960044483279,-0.24385118115123,-0.00404551804480668,,
0.00429442370323298,-0.166244591091564,-0.00290064752853159,,
0.00431924696163317,-0.0821567550625281,-0.00164339779016753,,
0.00434407022003336,0.0038732747909398,-0.000321499817332871,,
0.00436889347843355,0.0904460594657904,0.0010164893749729,,
0.00439371673683374,0.174811468412571,0.00231908475369291,,
0.00441853999523393,0.252060813819084,0.00354057489087811,,
0.00444336325363412,0.319499138877776,0.00462603669355843,,
0.00446818651203432,0.374109710962021,0.00552901342009759,,
0.00449300977043451,0.414562289024345,0.00621291257268508,,
0.0045178330288347,0.438764708914841,0.00666185244399164,,
0.00454265628723489,0.446148546175451,0.00684275759250053,,
0.00456747954563508,0.436667574157557,0.00674488107568738,,
0.00459230280403527,0.410598300648749,0.00643451459622346,,
0.00461712606243546,0.368460864206841,0.00585653241824691,,
0.00464194932083565,0.312510038851687,0.00506439791897995,,
0.00466677257923584,0.244424221173282,0.00404198209807349,,
0.00469159583763603,0.16682920552794,0.00290781730881884,,
0.00471641909603622,0.083073193045751,0.00163429259853087,,
0.00474124235443641,-0.00289882271874329,0.000317697687139962,,
0.0047660656128366,-0.0900331085056608,-0.00101318698275898,,
0.00479088887123679,-0.174677297517693,-0.00231197336203515,,
0.00481571212963698,-0.252303485972165,-0.00355405064319259,,
0.00484053538803718,-0.319478049300756,-0.00461119224306605,,
0.00486535864643737,-0.374630204563216,-0.00552195526513222,,
0.00489018190483756,-0.414827719458351,-0.00620739141253557,,
0.00491500516323775,-0.439268195937934,-0.00665359732211313,,
0.00493982842163794,-0.447185237352893,-0.00683916325713696,,
0.00496465168003813,-0.437436811153702,-0.00675845299751021,,
0.00498947493843832,-0.41081899561635,-0.006402601775366,,
0.00501429819683851,-0.368722566685314,-0.005843111619936,,
0.0050391214552387,-0.312210808287508,-0.00504138936417986,,
0.00506394471363889,-0.243901100251044,-0.00406641087042958,,
0.00508876797203908,-0.166112727978683,-0.0028704022182513,,
0.00511359123043927,-0.0822093014833855,-0.00162303389683904,,
0.00513841448883946,0.00388019813693114,-0.000339421692082009,,
0.00516323774723965,0.0904114427358337,0.00101594670417748,,
0.00518806100563984,0.174745075299731,0.00231889241467709,,
0.00521288426404003,0.251964703574989,0.0035393899451539,,
0.00523770752244023,0.319204807912298,0.00463110276585699,,
0.00526253078084042,0.374120078228839,0.00552517694365173,,
0.00528735403924061,0.414298562798583,0.00618862977190382,,
0.0053121772976408,0.438767300731546,0.00661897801653,,
0.00533700055604099,0.44642267517237,0.00683636918946595,,
0.00536182381444118,0.436606116147757,0.00677119030538842,,
0.00538664707284137,0.410477940941515,0.00643129291770395,,
0.00541147033124156,0.368354386695928,0.00585996360890872,,
0.00543629358964175,0.312291616161745,0.00505274423538005,,
0.00546111684804194,0.244400859318604,0.00405882550048275,,
0.00548594010644213,0.166859206693903,0.00288692104857091,,
0.00551076336484232,0.0830844479210293,0.00163726354940463,,
0.00553558662324251,-0.00292481189446463,0.000341966749420219,,
0.0055604098816427,-0.0900746485816088,-0.00100139591414772,,
0.00558523314004289,-0.174758034383253,-0.00233879778552915,,
0.00561005639844309,-0.252175883379894,-0.00353770869607528,,
0.00563487965684328,-0.319440769745418,-0.00464724207008205,,
0.00565970291524347,-0.37460478345691,-0.00549895529689559,,
0.00568452617364366,-0.415253629502003,-0.00618956914191937,,
0.00570934943204385,-0.439535046545478,-0.00664366095115687,,
0.00573417269044404,-0.447025964890754,-0.00682626623918292,,
0.00575899594884423,-0.437179972769593,-0.00674819377177682,,
0.00578381920724442,-0.411028187178304,-0.00642699791878165,,
0.00580864246564461,-0.368537873116868,-0.0058554625324696,,
0.0058334657240448,-0.312300563255026,-0.00504730722354996,,
0.00585828898244499,-0.243916651151271,-0.00406631298360871,,
0.00588311224084518,-0.166195311069841,-0.00288642646252946,,
0.00590793549924537,-0.0822438827090037,-0.00164331364184811,,
0.00593275875764556,0.0038334744275742,-0.000333141479744281,,
0.00595758201604575,0.0904373964072166,0.00100135985058225,,
0.00598240527444594,0.174655923905966,0.00232825176858498,,
0.00600722853284614,0.252044375310397,0.00355022275331018,,
0.00603205179124633,0.319301805764854,0.00460730424724121,,
0.00605687504964652,0.374041294101892,0.00550796603633685,,
0.00608169830804671,0.414063950130322,0.00619771435578853,,
0.0061065215664469,0.438846936962615,0.00663669037913683,,
0.00613134482484709,0.446216039922782,0.00686179228584294,,
0.00615616808324728,0.436829154401693,0.00676728170181118,,
0.00618099134164747,0.410512593175811,0.00643872888145092,,
0.00620581460004766,0.368771633681006,0.00586667830134546,,
0.00623063785844785,0.312493600343,0.00504156453006965,,
0.00625546111684804,0.244460897154867,0.00406884773707139,,
0.00628028437524823,0.166842164611463,0.00290385031661211,,
0.00630510763364842,0.0830376887073339,0.00166129905716517,,
0.00632993089204861,-0.00289679897145352,0.000330258111815862,,
0.0063547541504488,-0.0901805225187687,-0.00101177878639103,,
0.00637957740884899,-0.174680776942858,-0.00231953640691795,,
0.00640440066724919,-0.25228587582031,-0.00355403690469158,,
0.00642922392564938,-0.319539826849602,-0.00462330616645446,,
0.00645404718404957,-0.374654418522017,-0.00551598245175722,,
0.00647887044244976,-0.41522969957791,-0.00620589735053523,,
0.00650369370084995,-0.439356246697209,-0.00665841266676592,,
0.00652851695925014,-0.447055646517671,-0.00682376926659911,,
0.00655334021765033,-0.437207382118851,-0.00676901790489381,,
0.00657816347605052,-0.411116237937579,-0.00641309799024414,,
0.00660298673445071,-0.368433135318537,-0.0058576126078993,,
0.0066278099928509,-0.312155066476193,-0.00503202314102147,,
0.00665263325125109,-0.243930213808546,-0.00403375445319742,,
0.00667745650965128,-0.166198719486329,-0.00288830863718692,,
0.00670227976805147,-0.0822191006807886,-0.00161636213721827,,
0.00672710302645166,0.00388974880396535,-0.000323383709302849,,
0.00675192628485185,0.0903886489505699,0.00101043413059143,,
0.00677674954325205,0.174778555890859,0.00232419204149537,,
0.00680157280165224,0.251978834301679,0.00352892464190324,,
0.00682639606005243,0.319369867581599,0.00463415958236268,,
0.00685121931845262,0.374174896927355,0.00551880914836911,,
0.00687604257685281,0.414195529208496,0.00619793760643228,,
0.006900865835253,0.43842738219554,0.00665278159860794,,
0.00692568909365319,0.446389762650657,0.00681942274829828,,
0.00695051235205338,0.436715469510081,0.00675792921715379,,
0.00697533561045357,0.410728104510003,0.00645450411539583,,
0.00700015886885376,0.368728353892476,0.00585238682552491,,
0.00702498212725395,0.312460119751873,0.00504786019822134,,
0.00704980538565414,0.24439219626003,0.0040598730611956,,
0.00707462864405433,0.16694115070697,0.00288622381963766,,
0.00709945190245452,0.0830956672919691,0.00164519409919306,,
0.00712427516085471,-0.00295076556584755,0.000306964483117067,,
0.0071490984192549,-0.0900870751000548,-0.00101561698014985,,
0.0071739216776551,-0.174830179198917,-0.00231133108710635,,
0.00719874493605529,-0.252182274160809,-0.0035650637691762,,
0.00722356819445548,-0.319742911665348,-0.0046197341561558,,
0.00724839145285567,-0.374494293955756,-0.00552938092500321,,
0.00727321471125586,-0.415011560922675,-0.00617255572555875,,
0.00729803796965605,-0.43969581018983,-0.00663175482259826,,
0.00732286122805624,-0.44736183593218,-0.00683726562666553,,
0.00734768448645643,-0.437230175904114,-0.0067478726343122,,
0.00737250774485662,-0.410876157601202,-0.0064544920942069,,
0.00739733100325681,-0.368569045925998,-0.00585382936814538,,
0.007422154261657,-0.312244324382974,-0.00505932326011749,,
0.00744697752005719,-0.243884342203311,-0.00403122656898613,,
0.00747180077845738,-0.166154339063307,-0.00289700339110155,,
0.00749662403685757,-0.0822303200517284,-0.00162490405030802,,
0.00752144729525776,0.00387675421610468,-0.000329231158854526,,
0.00754627055365796,0.0904624979744775,0.00101213770473407,,
0.00757109381205815,0.17489021703518,0.0023273896776379,,
0.00759591707045834,0.252171054789869,0.00353326600826653,,
0.00762074032885853,0.319483268438504,0.00461135710508032,,
0.00764556358725872,0.374122350506498,0.0055279658593852,,
0.00767038684565891,0.414266253850623,0.00621546793389882,,
0.0076952101040591,0.438931188757679,0.00665938294840984,,
0.00772003336245929,0.446406201159344,0.00685938117889107,,
0.00774485662085948,0.436644212302878,0.0067776680086804,,
0.00776967987925967,0.410497255301614,0.00642178587490871,,
0.00779450313765986,0.368489161164559,0.00583609983241251,,
0.00781932639606005,0.312564857550204,0.00506159526474548,,
0.00784414965446024,0.244423333564822,0.00405984558419314,,
0.00786897291286043,0.166828033884773,0.00290085188873634,,
0.00789379617126062,0.0831658238646813,0.00164058483205753,,
0.00791861942966081,-0.00289853868403596,0.000335561173259169,,
0.00794344268806101,-0.0900674767052485,-0.00102521847514048,,
0.0079682659464612,-0.174768472658748,-0.00233102351119152,,
0.00799308920486139,-0.252178794735644,-0.00353685690900418,,
0.00801791246326158,-0.319697892164235,-0.00463145824957412,,
0.00804273572166177,-0.374590936764927,-0.00554090924478023,,
0.00806755898006196,-0.415181200651632,-0.00618465591044615,,
