Time domain (s),Current (AC) (A),Potential (AC) (V),Frequency (Hz),Column 5
0,-0.268381912499682,-0.00665737692502155,0.0039811,0.4
0.613249164803698,-0.272455809263461,-0.00697621959676775,,
1.2264983296074,-0.276266053327228,-0.00727797510354478,,
1.83974749441109,-0.280259640090937,-0.00757163591546073,,
2.45299665921479,-0.283926089359763,-0.0078631038009509,,
3.06624582401849,-0.287664407116773,-0.0081143925646785,,
3.67949498882219,-0.291402724873782,-0.00842213630594868,,
4.29274415362588,-0.29505703224195,-0.00871989045787958,,
4.90599331842958,-0.298789163411481,-0.00897534247035026,,
5.51924248323328,-0.302006940541691,-0.00924433837908545,,
6.13249164803698,-0.305432055080287,-0.00955492630177712,,
6.74574081284067,-0.308863009294914,-0.00980703741291444,,
7.35898997764437,-0.311966016554614,-0.0100709391829978,,
7.97223914244807,-0.315026931892032,-0.0103377697608575,,
8.58548830725177,-0.317942144421548,-0.0106084857922508,,
9.19873747205546,-0.321353671595122,-0.0108901351808157,,
9.81198663685916,-0.324140526889106,-0.0111300803335181,,
10.4252358016629,-0.327318293565718,-0.0114057102126321,,
11.0384849664666,-0.329702442487864,-0.0116679341732353,,
11.6517341312703,-0.332434948321758,-0.0119100262597791,,
12.264983296074,-0.335180174242056,-0.0121341150090717,,
12.8782324608776,-0.337592769902888,-0.0123998730398625,,
13.4914816256813,-0.339857003101388,-0.0126583127306179,,
14.104730790485,-0.342802975112573,-0.0128786650423511,,
14.7179799552887,-0.345081258224692,-0.0131346174541402,,
15.3312291200924,-0.347326931660758,-0.0133800817169751,,
15.9444782848961,-0.349135034124523,-0.0135840956230133,,
16.5577274496998,-0.351431125357608,-0.0138344571762388,,
17.1709766145035,-0.353415227562346,-0.0140555306516954,,
17.7842257793072,-0.354983267304521,-0.014284858876207,,
18.3974749441109,-0.356817041215393,-0.0144780590057927,,
19.0107241089146,-0.358456139985707,-0.0146823525467443,,
19.6239732737183,-0.360303963810198,-0.0149261518780226,,
20.237222438522,-0.361842631716495,-0.0151316982569738,,
20.8504716033257,-0.363341520443492,-0.0153424693935174,,
21.4637207681294,-0.364558948349511,-0.015543291414196,,
22.0769699329331,-0.366163298156513,-0.0156940882206356,,
22.6902190977368,-0.367282434485773,-0.0159114234188298,,
23.3034682625405,-0.368790342910402,-0.0161263743614466,,
23.9167174273442,-0.369380323645253,-0.0162840295820774,,
24.5299665921479,-0.370601162847172,-0.0164876037990083,,
25.1432157569516,-0.37127104885207,-0.0166532065382294,,
25.7564649217553,-0.371962732459579,-0.0168242253641937,,
26.369714086559,-0.372687546110313,-0.0169772445323133,,
26.9829632513627,-0.373446588357189,-0.0171513246246979,,
27.5962124161664,-0.374009278724846,-0.0172974265081183,,
28.2094615809701,-0.374320400474575,-0.0174682981578127,,
28.8227107457738,-0.374545372548203,-0.0176145619351304,,
29.4359599105775,-0.374940851598221,-0.017763018638874,,
30.0492090753812,-0.375556503780178,-0.0179302991875754,,
30.6624582401849,-0.375467000626753,-0.0180370461363464,,
31.2757074049886,-0.375133503088668,-0.01818619456856,,
31.8889565697923,-0.374777803217951,-0.0183039797375955,,
32.502205734596,-0.375252146803674,-0.0184472411190013,,
33.1154548993997,-0.374627474924084,-0.0185683671893702,,
33.7287040642034,-0.374257204772576,-0.0186804419191224,,
34.3419532290071,-0.373831660063785,-0.018800787955259,,
34.9552023938108,-0.373373563497515,-0.0189221495076604,,
35.5684515586145,-0.372502757946007,-0.0190052599474382,,
36.1817007234182,-0.371856115008083,-0.0191235896686734,,
36.7949498882219,-0.370986928376663,-0.0192206377012387,,
37.4081990530255,-0.370387985762754,-0.0193145361616218,,
38.0214482178292,-0.369212360686145,-0.0193797205316906,,
38.6346973826329,-0.368235226776013,-0.0194584892714977,,
39.2479465474366,-0.367095796127081,-0.0195396422668823,,
39.8611957122403,-0.366053674139139,-0.0196164094094149,,
40.474444877044,-0.36466255923513,-0.0197034641732339,,
41.0876940418477,-0.363456232495427,-0.0197388895014696,,
41.7009432066514,-0.361546138066131,-0.0198116828847068,,
42.3141923714551,-0.36036340130485,-0.0198469610366723,,
42.9274415362588,-0.358022674132201,-0.0199158395311225,,
43.5406907010625,-0.356658849595386,-0.0199486156864945,,
44.1539398658662,-0.354736439809707,-0.019981097489326,,
44.7671890306699,-0.352800037928985,-0.0200393057041874,,
45.3804381954736,-0.350978521555921,-0.0200580412433831,,
45.9936873602773,-0.348846866348896,-0.020088639189956,,
46.606936525081,-0.346761466001522,-0.0201004132915714,,
47.2201856898847,-0.344486941096749,-0.0201224161439653,,
47.8334348546884,-0.342138813146556,-0.0201199583002531,,
48.4466840194921,-0.339819710120795,-0.0201421230465444,,
49.0599331842958,-0.337358720313053,-0.0201348525387965,,
49.6731823490995,-0.335064074544332,-0.0201320856249172,,
50.2864315139032,-0.332094050006129,-0.0201425498577277,,
50.8996806787069,-0.329568592487748,-0.0201330569883003,,
51.5129298435106,-0.326584864947373,-0.0201181038792488,,
52.1261790083143,-0.323763549782949,-0.0201053289789961,,
52.739428173118,-0.320510850233703,-0.0200666510551892,,
53.3526773379217,-0.317559385457935,-0.0200385845404636,,
53.9659265027254,-0.31455449631927,-0.0200001862515702,,
54.5791756675291,-0.311443625733429,-0.0199401972038395,,
55.1924248323328,-0.308019262836302,-0.0199118069013191,,
55.8056739971365,-0.304716954950079,-0.0198485652580174,,
56.4189231619402,-0.301488134472128,-0.0197852941794614,,
57.0321723267439,-0.298092160495112,-0.0197409646868794,,
57.6454214915476,-0.294640969779387,-0.0196832715889634,,
58.2586706563513,-0.290640213512432,-0.0196148640585778,,
58.871919821155,-0.287404917354129,-0.0195589517935315,,
59.4851689859587,-0.283500602469547,-0.0194722208175069,,
60.0984181507624,-0.27983617685083,-0.0193853868180929,,
60.7116673155661,-0.275590269827724,-0.0193009223566292,,
61.3249164803698,-0.271758979802815,-0.0192045954877877,,
61.9381656451734,-0.267976257380541,-0.0191032646257598,,
62.5514148099771,-0.263932426275536,-0.0189872455719668,,
63.1646639747808,-0.259565736250165,-0.0188994549267965,,
63.7779131395845,-0.255507103590071,-0.0188098245782489,,
64.3911623043882,-0.251059987927482,-0.0186643702704172,,
65.0044114691919,-0.247023037232849,-0.0185768445425336,,
65.6176606339956,-0.242501162153349,-0.0184617085463614,,
66.2309097987993,-0.238028375043653,-0.0183283521279396,,
66.844158963603,-0.233633353916746,-0.0181627346710913,,
67.4574081284067,-0.229088409225994,-0.0180618453378738,,
68.0706572932104,-0.224540400150791,-0.0179179805337601,,
68.6839064580141,-0.219973946950301,-0.017769170606968,,
69.2971556228178,-0.215271099732416,-0.0176462931389838,,
69.9104047876215,-0.210457414307091,-0.0174810730580655,,
70.5236539524252,-0.205787350220983,-0.0173436987274669,,
71.1369031172289,-0.200829176177822,-0.0171654241113823,,
71.7501522820326,-0.196053651011709,-0.0170007927355442,,
72.3634014468363,-0.191026904139116,-0.0168379569102028,,
72.97665061164,-0.186170143875741,-0.0166754890255367,,
73.5898997764437,-0.181065226290337,-0.0164881189159538,,
74.2031489412474,-0.176012865789212,-0.0163153192571204,,
74.8163981060511,-0.170974266108833,-0.0161407093301635,,
75.4296472708548,-0.165759261957459,-0.0159756658607688,,
76.0428964356585,-0.160698055214426,-0.0157550191964955,,
76.6561456004622,-0.155461311279016,-0.0155665894177672,,
77.2693947652659,-0.150106848725794,-0.0153897276938766,,
77.8826439300696,-0.144925437166242,-0.0151759688790483,,
78.4958930948733,-0.139609944332276,-0.0149997988836268,,
79.109142259677,-0.134308732686228,-0.014768921628872,,
79.7223914244807,-0.128820882681487,-0.0145469375002429,,
80.3356405892844,-0.123393279631441,-0.0143517376130862,,
80.9488897540881,-0.118012451808218,-0.0141219218671798,,
81.5621389188918,-0.112493264136063,-0.0139407202830215,,
82.1753880836955,-0.10689301482237,-0.0136848966504686,,
82.7886372484992,-0.101445869094122,-0.0134769954511937,,
83.4018864133029,-0.0957362848559277,-0.0132466498707147,,
84.0151355781066,-0.0901920039224121,-0.013021249412914,,
84.6283847429103,-0.0847171052783733,-0.0127884754239767,,
85.2416339077139,-0.0789777444742788,-0.0125387761639675,,
85.8548830725177,-0.0734077342750823,-0.0122922853466481,,
86.4681322373214,-0.0676968780282479,-0.0120271472958953,,
87.081381402125,-0.0620704369002768,-0.0117997158055658,,
87.6946305669287,-0.0563043060961592,-0.0115644839729163,,
88.3078797317324,-0.0506059386614306,-0.0113012150607954,,
88.9211288965361,-0.0449417998228439,-0.0110516482594289,,
89.5343780613398,-0.0392212878740573,-0.0107912640022034,,
90.1476272261435,-0.0333732281497825,-0.0105136748389922,,
90.7608763909472,-0.0276744559850319,-0.0102704807701253,,
91.3741255557509,-0.0219690346842065,-0.0100191037006359,,
91.9873747205546,-0.0161839972062065,-0.00973715811982689,,
92.6006238853583,-0.0104352119744581,-0.0094963188712831,,
93.213873050162,-0.00463647149428637,-0.00918549730626239,,
93.8271222149657,0.00115995624290277,-0.00894015446385055,,
94.4403713797694,0.00689234990876229,-0.0086650102664283,,
95.0536205445731,0.0127049668468293,-0.00837679313680573,,
95.6668697093768,0.018434296128237,-0.008113025665069,,
96.2801188741805,0.0241916385090209,-0.00784706158749993,,
96.8933680389842,0.0298953252526094,-0.00751514782325735,,
97.5066172037879,0.0356663417262776,-0.00726075547993199,,
98.1198663685916,0.0413868536750642,-0.0069678287096635,,
98.7331155333953,0.0471132342091691,-0.00667986545910715,,
99.346364698199,0.0527958749916163,-0.00638499780177559,,
99.9596138630027,0.0585589992298566,-0.0060999320840387,,
100.572863027806,0.0641292407033514,-0.00582906887637513,,
101.18611219261,0.0698516606650986,-0.00550236699180084,,
101.799361357414,0.0755356890933354,-0.00522938444584664,,
102.412610522217,0.0811653969707692,-0.00493177930988953,,
103.025859687021,0.0867411601181349,-0.0046384110108102,,
103.639108851825,0.09242010051181,-0.00433958615151386,,
104.252358016629,0.0979274353761792,-0.00403765403321277,,
104.865607181432,0.103365185586061,-0.00373681285901473,,
105.478856346236,0.108885211627547,-0.00342297234075151,,
106.09210551104,0.114494307183148,-0.00315215144626624,,
106.705354675843,0.120008117727869,-0.00286595431095193,,
107.318603840647,0.125295742008895,-0.00253276195286212,,
107.931853005451,0.130903652283718,-0.00224638636632069,,
108.545102170254,0.136193155668417,-0.00193816982128237,,
109.158351335058,0.141566582714096,-0.00165303051541033,,
109.771600499862,0.146825066433542,-0.00131708780077089,,
110.384849664666,0.152022464828961,-0.00105040255947797,,
110.998098829469,0.15735845434761,-0.000722537982368987,,
111.611347994273,0.162676375561707,-0.000412467016326357,,
112.224597159077,0.167664037077895,-7.62575446975333E-05,,
112.83784632388,0.172832584004607,0.000191058714854364,,
113.451095488684,0.177913391244418,0.000487604181666157,,
114.064344653488,0.182996597955073,0.000808091548231804,,
114.677593818291,0.188021725907578,0.00110654294774282,,
115.290842983095,0.192989497834116,0.00138942677727405,,
115.904092147899,0.197912633821091,0.00170605812556035,,
116.517341312703,0.20270394345806,0.0020107645165548,,
117.130590477506,0.207597476334857,0.00228627481494925,,
117.74383964231,0.212156817850675,0.00262341149708023,,
118.357088807114,0.217014069571934,0.00292249207514628,,
118.970337971917,0.221868256908741,0.00322628965267224,,
119.583587136721,0.22632378517393,0.00350763181077296,,
120.196836301525,0.231110411506359,0.00382455015278627,,
120.810085466328,0.235388321110487,0.00411405691447619,,
121.423334631132,0.239949512820691,0.00442933792048406,,
122.036583795936,0.244174200426932,0.0047151211225378,,
122.64983296074,0.248605878530113,0.00500194191729664,,
123.263082125543,0.252828022119074,0.00530703832540702,,
123.876331290347,0.257104283893827,0.00558764460215722,,
124.489580455151,0.261073182126197,0.00589496337194717,,
125.102829619954,0.265189864635153,0.00616476691046497,,
125.716078784758,0.26932366144218,0.00644770961050423,,
126.329327949562,0.273194268097792,0.00674841280694904,,
126.942577114365,0.277096559332265,0.00703242989376074,,
127.555826279169,0.281023134368055,0.00728320354054279,,
128.169075443973,0.284846561066822,0.00758138266395392,,
128.782324608776,0.288676463445941,0.00787407211248681,,
129.39557377358,0.291814624398976,0.00812831911924539,,
130.008822938384,0.29591164859258,0.00843320948057702,,
130.622072103188,0.299035470539124,0.00867337171827787,,
131.235321267991,0.302485157971909,0.00898522351719011,,
131.848570432795,0.305863381646534,0.00923635038702031,,
132.461819597599,0.308918746400794,0.0094828963954412,,
133.075068762402,0.312167687742693,0.0097667184736947,,
133.688317927206,0.315627088696006,0.0100333393253695,,
134.30156709201,0.318432908482447,0.0102909382716816,,
134.914816256813,0.321560662092061,0.0105518891575476,,
135.528065421617,0.324447890431488,0.0108026885601769,,
136.141314586421,0.327247697086175,0.0110609829143655,,
136.754563751225,0.330055598341301,0.0113059872513559,,
137.367812916028,0.33283250884046,0.0115295811204397,,
137.981062080832,0.335289566985131,0.0117763920461469,,
138.594311245636,0.337937195151566,0.0119965235934743,,
139.207560410439,0.340397259862114,0.0122520326367499,,
139.820809575243,0.342752557315553,0.0124963967569647,,
140.434058740047,0.344912427986965,0.0127228826397583,,
141.04730790485,0.347156251228645,0.0129706980435089,,
141.660557069654,0.349125783152593,0.0131745077424723,,
142.273806234458,0.351199157236457,0.0134478471908817,,
142.887055399262,0.353129141255403,0.0136509909172222,,
143.500304564065,0.355176150069267,0.013862129994441,,
144.113553728869,0.356715511798458,0.0140569766585497,,
144.726802893673,0.358448218840992,0.0142801547546707,,
145.340052058476,0.360117788000102,0.014483375748553,,
145.95330122328,0.36160858212666,0.0146955303420362,,
146.566550388084,0.363064453834181,0.0149026662247058,,
147.179799552887,0.364401681826697,0.0150885498539597,,
147.793048717691,0.365853159322551,0.0152910460047115,,
148.406297882495,0.366811791288822,0.0154774189950637,,
149.019547047298,0.368091431981073,0.0156366637194125,,
149.632796212102,0.369228376431299,0.0158212227622347,,
150.246045376906,0.370125489434234,0.0160298451252334,,
150.85929454171,0.370843827404617,0.0162231280414709,,
151.472543706513,0.371446065677275,0.0163878219672235,,
152.085792871317,0.372177123734062,0.0165497452996903,,
152.699042036121,0.373208375829986,0.0166977457569963,,
153.312291200924,0.37331383690999,0.0168468500363286,,
153.925540365728,0.373930645463439,0.0170053735969535,,
154.538789530532,0.37419036650038,0.0171932698617026,,
155.152038695335,0.374434823433637,0.017323509822603,,
155.765287860139,0.374316179718632,0.0174738246267578,,
156.378537024943,0.374756525982511,0.0176320832700965,,
156.991786189747,0.374604578768557,0.0177504829000599,,
157.60503535455,0.374494492202587,0.0178763480463289,,
158.218284519354,0.37430577237521,0.0179962378360283,,
158.831533684158,0.374111501964675,0.0181287553497098,,
159.444782848961,0.373616806240706,0.0182505731485487,,
160.058032013765,0.373133674231649,0.0183704666176547,,
160.671281178569,0.372666500149172,0.018448275032299,,
161.284530343372,0.371911389565366,0.0185522403495635,,
161.897779508176,0.371425944813327,0.0186668759464168,,
162.51102867298,0.370363933235736,0.0187467190729964,,
163.124277837784,0.369578525718858,0.018860423779941,,
163.737527002587,0.368768140577769,0.0189513088061917,,
164.350776167391,0.367802339108253,0.019026118504331,,
164.964025332195,0.366363812973101,0.0191078565253893,,
165.577274496998,0.365205128738838,0.019174118961637,,
166.190523661802,0.363770534266756,0.0192785294871189,,
166.803772826606,0.36256073841258,0.0193404759792428,,
167.417021991409,0.361019295214704,0.0193882898700219,,
168.030271156213,0.35931711637954,0.0194325788891296,,
168.643520321017,0.357677844153501,0.019524236590799,,
169.256769485821,0.35602446419527,0.0195622816566443,,
169.870018650624,0.354008446137372,0.0196120161977493,,
170.483267815428,0.352255155682294,0.0196219910694615,,
171.096516980232,0.350120956457988,0.0196737235284341,,
171.709766145035,0.348214099868867,0.0197038652285699,,
172.323015309839,0.345917546087186,0.0197342571283645,,
172.936264474643,0.343835846128584,0.0197352579270018,,
173.549513639446,0.341341552821893,0.0197472086401418,,
174.16276280425,0.339264940897853,0.0197792783494166,,
174.776011969054,0.336474385215097,0.0197803233009353,,
175.389261133857,0.334101279640692,0.0197935397299984,,
176.002510298661,0.331170109184596,0.0197606163983561,,
176.615759463465,0.328564110391848,0.0197597774936162,,
177.229008628269,0.325673875486543,0.0197841351663333,,
177.842257793072,0.323095860883884,0.0197254854226614,,
178.455506957876,0.319913989088479,0.0197144472023969,,
179.06875612268,0.316836422001587,0.0196778591816269,,
179.682005287483,0.313743359536711,0.0196538694495851,,
180.295254452287,0.310897991845268,0.0196582994553181,,
180.908503617091,0.307518149250556,0.0196016660265479,,
181.521752781894,0.304181323675319,0.0195453563855721,,
182.135001946698,0.300621780950861,0.0194930830538063,,
182.748251111502,0.297348787081943,0.0194466011082723,,
183.361500276306,0.293853076063804,0.0193952697046358,,
183.974749441109,0.29014852435434,0.0193275943761941,,
184.587998605913,0.286410206597331,0.0192432623733736,,
185.201247770717,0.282760235622255,0.0191871698173962,,
185.81449693552,0.278896567195591,0.0191217683623295,,
186.427746100324,0.274941545421116,0.0190652526745754,,
187.040995265128,0.271191432674895,0.0189853359598606,,
187.654244429931,0.267050466364622,0.0189043890112544,,
188.267493594735,0.263050577376286,0.0187765369853374,,
188.880742759539,0.259026173312334,0.0186936620275917,,
189.493991924343,0.254969853395222,0.0185785113137928,,
190.107241089146,0.250588361814763,0.0184634047528749,,
190.72049025395,0.246220284143603,0.0183624455109292,,
191.333739418754,0.241889441634462,0.0182218700964545,,
191.946988583557,0.237685337440765,0.0181227799931403,,
192.560237748361,0.233125070827754,0.0179891586574321,,
193.173486913165,0.228527106504127,0.0178457353821289,,
193.786736077968,0.223984214372773,0.0177269494144561,,
194.399985242772,0.219167666928007,0.0175734923969326,,
195.013234407576,0.214572709170257,0.0174489371194682,,
195.62648357238,0.209960637114437,0.0172989019502268,,
196.239732737183,0.205045133179305,0.017150191367417,,
196.852981901987,0.200259374125494,0.0170026655535822,,
197.466231066791,0.195405851702294,0.0168391968702788,,
198.079480231594,0.190387633069449,0.0166902692024706,,
198.692729396398,0.185494562741248,0.0165246223103681,,
199.305978561202,0.180476633201276,0.0163414945567739,,
199.919227726005,0.175369402872889,0.0161603757592674,,
200.532476890809,0.170223318462396,0.0159771265852502,,
201.145726055613,0.165108687356465,0.0158171018266691,,
201.758975220416,0.159890445364916,0.0156446553908842,,
202.37222438522,0.154757774863722,0.0154232139747514,,
202.985473550024,0.14949744094989,0.0152577142589196,,
203.598722714828,0.144202647165618,0.0150498130596448,,
204.211971879631,0.138885651048713,0.0148423386715537,,
204.825221044435,0.133453942879874,0.0146319354756859,,
205.438470209239,0.128081440931388,0.0144168373567988,,
206.051719374042,0.12251559366956,0.0142304643664466,,
206.664968538846,0.117064198276081,0.0140282478506082,,
207.27821770365,0.111607541392318,0.0137835967366664,,
207.891466868453,0.106111307694265,0.0135612428276586,,
208.504716033257,0.100603943920608,0.0133732214630804,,
209.117965198061,0.0950552398661384,0.0131300605088742,,
209.731214362865,0.0895481362760675,0.0129175526923424,,
210.344463527668,0.0838865414547616,0.0126721951323034,,
210.957712692472,0.0782256115470632,0.0124286478403883,,
211.570961857276,0.0726278773413632,0.0121963300978885,,
212.184211022079,0.0669345979411962,0.0119476316365161,,
212.797460186883,0.0613065378931374,0.0116967255310914,,
213.410709351687,0.0554964649723512,0.0114376952955517,,
