Time domain (s),Current (AC) (A),Potential (AC) (V),Frequency (Hz),Column 5
0,-0.373681741666741,-0.0120179442798731,0.39811,0.5
0.00613249164803697,-0.369652141273751,-0.0118996763816637,,
0.0122649832960739,-0.365314647258007,-0.0117757363864381,,
0.0183974749441109,-0.360873196539378,-0.0116529413018287,,
0.0245299665921479,-0.356345115235011,-0.0115369358564692,,
0.0306624582401849,-0.352158727683571,-0.0114343044267518,,
0.0367949498882218,-0.347328433450597,-0.0113128617963159,,
0.0429274415362588,-0.342720822428176,-0.0111648558711708,,
0.0490599331842958,-0.337983123509794,-0.0110364046544347,,
0.0551924248323328,-0.333096022335353,-0.010941710055282,,
0.0613249164803697,-0.328197559772619,-0.0108151221691699,,
0.0674574081284067,-0.323081526624064,-0.0107128556512022,,
0.0735898997764437,-0.318239871002797,-0.0105555444764294,,
0.0797223914244807,-0.313085209134045,-0.0104113290720886,,
0.0858548830725176,-0.307587717373537,-0.010230460563148,,
0.0919873747205546,-0.302447825309566,-0.010100460752172,,
0.0981198663685916,-0.297194887432075,-0.0099821768890731,,
0.104252358016629,-0.291757966072906,-0.0098309164072572,,
0.110384849664666,-0.286259835234307,-0.00966928102824527,,
0.116517341312703,-0.280689914623428,-0.00951793387988831,,
0.122649832960739,-0.2751219822555,-0.00936748076531924,,
0.128782324608776,-0.26916627150338,-0.00918537155642829,,
0.134914816256813,-0.263517389243861,-0.00902258442470538,,
0.14104730790485,-0.257772574261939,-0.00887098183812318,,
0.147179799552887,-0.251926287880821,-0.00871930626919104,,
0.153312291200924,-0.246055574514872,-0.00855591703308045,,
0.159444782848961,-0.240009043665082,-0.00840495304206135,,
0.165577274496998,-0.233977850689487,-0.00824366204851401,,
0.171709766145035,-0.22780833281142,-0.00804577040643073,,
0.177842257793072,-0.221733682525603,-0.00787212715014229,,
0.183974749441109,-0.215526388031459,-0.00770510932281665,,
0.190107241089146,-0.209214852799723,-0.00753277746812975,,
0.196239732737183,-0.202803905420419,-0.00732992302624513,,
0.20237222438522,-0.196645535904614,-0.00713400190761249,,
0.208504716033257,-0.190072333698744,-0.00697378740372789,,
0.214637207681294,-0.183716205017956,-0.00677939663374749,,
0.220769699329331,-0.177205277421669,-0.00661489669749749,,
0.226902190977368,-0.17070741542192,-0.00643096521055453,,
0.233034682625405,-0.164128035461165,-0.00624856179156508,,
0.239167174273442,-0.157572230381119,-0.00606024908292202,,
0.245299665921479,-0.150748296537347,-0.00584241729439405,,
0.251432157569516,-0.144170620784836,-0.00568132472161054,,
0.257564649217553,-0.137440915455223,-0.00545186821314303,,
0.26369714086559,-0.130465094051703,-0.0052644335733989,,
0.269829632513627,-0.123740856390206,-0.00509522171417576,,
0.275962124161664,-0.11697195427098,-0.00488481359906379,,
0.282094615809701,-0.110191548746107,-0.00471109964112371,,
0.288227107457738,-0.103247255195101,-0.00448255085063476,,
0.294359599105775,-0.0963695677829657,-0.00427271062943424,,
0.300492090753812,-0.0893834501213041,-0.00406356145986031,,
0.306624582401849,-0.0824020900409905,-0.00387396927939321,,
0.312757074049886,-0.0754921646895721,-0.00369091358065043,,
0.318889565697923,-0.0684958927871232,-0.00347988511556352,,
0.32502205734596,-0.0614602820777082,-0.00328170154408047,,
0.331154548993997,-0.0544596786459725,-0.00307050886870552,,
0.337287040642034,-0.0474193103552095,-0.00284521235418955,,
0.343419532290071,-0.0403942799386428,-0.00260407866971857,,
0.349552023938108,-0.0332991639580407,-0.00246130694748903,,
0.355684515586145,-0.026298986578366,-0.00218687506582116,,
0.361817007234181,-0.0191854083417869,-0.00199983726760511,,
0.367949498882218,-0.0120899373178006,-0.00177676899546286,,
0.374081990530255,-0.00500497557798578,-0.00159457083933257,,
0.380214482178292,0.00206947687765759,-0.00138293798915967,,
0.386346973826329,0.00913512425737351,-0.00116669128604618,,
0.392479465474366,0.0162300272119451,-0.000956997029545548,,
0.398611957122403,0.0233181133335407,-0.000829257390722038,,
0.40474444877044,0.0303638427794046,-0.000543130087462984,,
0.410876940418477,0.0374229928651902,-0.000291085541663794,,
0.417009432066514,0.0444517157329523,-0.000151285569498949,,
0.423141923714551,0.0515471867569386,8.01756728954217E-05,,
0.429274415362588,0.0585316002103561,0.000292130101548604,,
0.435406907010625,0.065491018609528,0.000538171849058244,,
0.441539398658662,0.0725208776161194,0.000736706648100771,,
0.447671890306699,0.0794822842582427,0.000960324568566762,,
0.453804381954736,0.0864158554990469,0.00117042250869082,,
0.459936873602773,0.0934224236596367,0.00138000957236484,,
0.46606936525081,0.10032191073556,0.0016042113516308,,
0.472201856898847,0.107219729107579,0.00176004691451404,,
0.478334348546884,0.11390416640571,0.00198735500505309,,
0.484466840194921,0.120886875650883,0.00218765050329006,,
0.490599331842958,0.127678997607434,0.00242017227045821,,
0.496731823490995,0.134432490843786,0.00261180567602715,,
0.502864315139032,0.141256424687558,0.00283637236704326,,
0.508996806787069,0.147947998357711,0.00302175209749445,,
0.515129298435106,0.154487045390024,0.00324921527552702,,
0.521261790083143,0.161203046045008,0.00344937393185774,,
0.52739428173118,0.167773336895129,0.00367191080126394,,
0.533526773379217,0.174385132316858,0.00387668102983652,,
0.539659265027254,0.180812198665804,0.00407792529862361,,
0.545791756675291,0.187434219336998,0.00426069591006195,,
0.551924248323328,0.193690971374556,0.00449646539180604,,
0.558056739971365,0.200124073461032,0.00469306159717631,,
0.564189231619402,0.206432448806649,0.00485719890237446,,
0.570321723267439,0.212879752628493,0.00506554070470155,,
0.576454214915476,0.218950710463114,0.00524615377541693,,
0.582586706563513,0.22515033602016,0.00546729485737885,,
0.58871919821155,0.231313889169373,0.00565603177593133,,
0.594851689859586,0.237276629780499,0.0058541560492551,,
0.600984181507623,0.243395269941615,0.00604865401206256,,
0.60711667315566,0.249325098031029,0.00625942247752764,,
0.613249164803697,0.255226203110663,0.00641664926645813,,
0.619381656451734,0.26118241092352,0.00661680336139181,,
0.625514148099771,0.266888384159214,0.00677583190208875,,
0.631646639747808,0.272564533750637,0.00697554810292234,,
0.637779131395845,0.278264258222769,0.00714639978432263,,
0.643911623043882,0.283908631431309,0.00732841776527593,,
0.650044114691919,0.289114100008336,0.00753905851162884,,
0.656176606339956,0.295000470787527,0.00770040424193841,,
0.662309097987993,0.300147428214843,0.00784617736331272,,
0.66844158963603,0.305474499150949,0.00805973740366595,,
0.674574081284067,0.310682559544681,0.00819349580566797,,
0.680706572932104,0.315708837725717,0.00841258882043228,,
0.686839064580141,0.320967740332062,0.00855444826328666,,
0.692971556228178,0.326089170140056,0.00868503193306225,,
0.699104047876215,0.330818348017218,0.00888157340167028,,
0.705236539524252,0.335600072315236,0.0090681938320718,,
0.711369031172289,0.340442296005918,0.00920758555921575,,
0.717501522820326,0.345304970195528,0.00939702949428423,,
0.723634014468363,0.349765167204841,0.00949285531986233,,
0.7297665061164,0.354245246643668,0.00964442141526956,,
0.735898997764437,0.358650624954466,0.00981474397463211,,
0.742031489412474,0.362980734067819,0.00994974307658403,,
0.748163981060511,0.367452292465425,0.010116179325808,,
0.754296472708548,0.371426506090485,0.0102321665255798,,
0.760428964356585,0.375574832991143,0.010383568410699,,
0.766561456004622,0.37968367906748,0.0105348288925153,,
0.772693947652659,0.383389763928814,0.0106762458798726,,
0.778826439300696,0.387413967662365,0.0108096758612994,,
0.784958930948733,0.391325977686517,0.0109224518376698,,
0.79109142259677,0.394684120031363,0.0110582172542975,,
0.797223914244807,0.398145935044387,0.0111750209441097,,
0.803356405892844,0.401935526109677,0.011303980756598,,
0.809488897540881,0.405337409799453,0.0114399331904971,,
0.815621389188918,0.408412369541084,0.0115391390111608,,
0.821753880836955,0.411481932623275,0.0116646640918008,,
0.827886372484992,0.414902846638442,0.0117492004601099,,
0.834018864133029,0.417670196792027,0.0118758385215876,,
0.840151355781065,0.420616204776526,0.0119790355645182,,
0.846283847429102,0.423199216405049,0.0120912276820886,,
0.852416339077139,0.425926801699607,0.0121926184118557,,
0.858548830725176,0.428748402482293,0.0122946477371859,,
0.864681322373213,0.431309259403644,0.0123945560129686,,
0.87081381402125,0.43328500482788,0.0124454475179179,,
0.876946305669287,0.435700151944367,0.012550090523658,,
0.883078797317324,0.438128364657391,0.0126249886603675,,
0.889211288965361,0.440212327305123,0.0127060309986695,,
0.895343780613398,0.442036682230348,0.0128265978409048,,
0.901476272261435,0.444089969129688,0.0128717191788055,,
0.907608763909472,0.445689084531995,0.0129423113568636,,
0.913741255557509,0.44727570240718,0.0130234494845003,,
0.919873747205546,0.448883906920122,0.0131000809520225,,
0.926006238853583,0.450214325489289,0.0131388710710589,,
0.93213873050162,0.451819121585743,0.0132302769030641,,
0.938271222149657,0.453144995599592,0.0132697649158224,,
0.944403713797694,0.454294200025478,0.0133096087175373,,
0.950536205445731,0.455169310958783,0.013366721967826,,
0.956668697093768,0.456241826013688,0.0133597703989863,,
0.962801188741805,0.457227994517562,0.0134655035785802,,
0.968933680389842,0.457845485971313,0.013526151911448,,
0.975066172037879,0.458201949529021,0.0135730795625117,,
0.981198663685916,0.458842731828773,0.013622160192901,,
0.987331155333953,0.459277873000413,0.0136418426204226,,
0.99346364698199,0.459624679378072,0.0136685769675147,,
0.999596138630027,0.459870085365211,0.0136940113164972,,
1.00572863027806,0.459603376775022,0.0137335540660182,,
1.0118611219261,0.459788567404205,0.0137512842156764,,
1.01799361357414,0.459490899030916,0.0137513389524391,,
1.02412610522217,0.459146080896209,0.0137467410643879,,
1.03025859687021,0.458929646449218,0.0137673768238562,,
1.03639108851825,0.458557845017314,0.0138196139408842,,
1.04252358016629,0.458218991611461,0.0137875427594465,,
1.04865607181432,0.45699991464757,0.0138077725545931,,
1.05478856346236,0.456340954126549,0.0137611733241045,,
1.0609210551104,0.455480897032732,0.0137849108334489,,
1.06705354675843,0.454502113431249,0.0137575835047627,,
1.07318603840647,0.453423349612783,0.0137625827957391,,
1.07931853005451,0.451923362323336,0.0137608813947043,,
1.08545102170254,0.450587263060022,0.0137235691682558,,
1.09158351335058,0.449417324100501,0.0137122158514309,,
1.09771600499862,0.447862234077831,0.0136721485412687,,
1.10384849664666,0.445848428002811,0.0136692839840307,,
1.10998098829469,0.444331114596217,0.0136058851288463,,
1.11611347994273,0.442662694725319,0.0136050275862334,,
1.12224597159077,0.440650592858544,0.0135433164478935,,
1.1283784632388,0.438621448909328,0.0135014975613315,,
1.13451095488684,0.436721824786658,0.0134880733703242,,
1.14064344653488,0.434224875674458,0.0134258376713432,,
1.14677593818291,0.431863695152365,0.0133615219753871,,
1.15290842983095,0.429545119836373,0.0133223304534256,,
1.15904092147899,0.426666144042805,0.0132646926424962,,
1.16517341312703,0.424184816839509,0.0131821860957966,,
1.17130590477506,0.421289367032915,0.0131249314422051,,
1.1774383964231,0.418545023690625,0.0130545217200218,,
1.18357088807114,0.415685362257156,0.0129947126841792,,
1.18970337971917,0.412499344944956,0.0129364545232744,,
1.19583587136721,0.409343719346442,0.0128185515368151,,
1.20196836301525,0.406177584463756,0.0127655298595242,,
1.20810085466328,0.402733947672002,0.0126954303123288,,
1.21423334631132,0.399452494698137,0.0126166093743056,,
1.22036583795936,0.395880474218667,0.012526188804026,,
1.22649832960739,0.392097699986352,0.0124363748995306,,
1.23263082125543,0.388367756209602,0.0123368680266731,,
1.23876331290347,0.384582141630214,0.0122521674480764,,
1.24489580455151,0.380513060412904,0.0121651588026603,,
1.25102829619954,0.37667688765561,0.012048934410251,,
1.25716078784758,0.372754084312579,0.0119521598141228,,
1.26329327949562,0.368601780926018,0.0118272870132361,,
1.26942577114365,0.364129086389582,0.0117167780511127,,
1.27555826279169,0.360002346126683,0.0116258192360017,,
1.28169075443973,0.355656899139133,0.011513449223953,,
1.28782324608776,0.351057809157932,0.0114016174567357,,
1.2939557377358,0.346370100348042,0.0112674029150464,,
1.30008822938384,0.341822704683576,0.0111408150289343,,
1.30622072103188,0.337001783595945,0.0110228937968873,,
1.31235321267991,0.332223183679707,0.0108621821007429,,
1.31848570432795,0.327195769359841,0.010766689257137,,
1.32461819597599,0.322425122415408,0.0106507567941279,,
1.33075068762402,0.3172412049718,0.0104845577375414,,
1.33688317927206,0.312097052387219,0.0103709287799547,,
1.3430156709201,0.307099177676917,0.0102268388140279,,
1.34914816256813,0.301570442098602,0.0100707067603478,,
1.35528065421617,0.296243655197203,0.0099309638056444,,
1.36141314586421,0.29087593179361,0.00976785281474335,,
1.36754563751225,0.285291312386626,0.00962692389685182,,
1.37367812916028,0.279635009720378,0.00947273043684405,,
1.37981062080832,0.274245415644319,0.0093091404992709,,
1.38594311245636,0.268384394962758,0.00915228774488419,,
1.39207560410439,0.262927236130692,0.00899938516019239,,
1.39820809575243,0.256981253567298,0.00881054332951159,,
1.40434058740047,0.250973067402998,0.00867594563048479,,
1.4104730790485,0.245135586097808,0.00852633181294049,,
1.41660557069654,0.239151542883631,0.00834331032467439,,
1.42273806234458,0.233033719322299,0.00819880527163175,,
1.42887055399262,0.226839738955062,0.00801102168502688,,
1.43500304564065,0.220796687530436,0.00780367882861599,,
1.44113553728869,0.214724558052647,0.00767798497629135,,
1.44726802893673,0.208348511438007,0.0074724301874558,,
1.45340052058476,0.201897550669306,0.00729535676071658,,
1.4595330122328,0.195516142899565,0.00712755209242966,,
1.46566550388084,0.18922388652359,0.00694287481709699,,
1.47179799552887,0.182788263629086,0.00675674701755824,,
1.47793048717691,0.17616315408045,0.00659085813595928,,
1.48406297882495,0.169584342189109,0.00640075735974088,,
1.49019547047298,0.163110090574408,0.00619936256485687,,
1.49632796212102,0.156475856410798,0.00601531932369026,,
1.50246045376906,0.14974963050635,0.00583497993678694,,
1.5085929454171,0.143039878614927,0.00565272476319612,,
1.51472543706513,0.136359701837406,0.00543689770859501,,
1.52085792871317,0.129741941686822,0.00525777621465817,,
1.52699042036121,0.122796725023017,0.00507050350450289,,
1.53312291200924,0.115941831396146,0.0048401940148195,,
1.53925540365728,0.109051149396149,0.00466728058203136,,
1.54538789530532,0.102203108106592,0.00444842932130118,,
1.55152038695335,0.0952402457865937,0.00427323519007494,,
1.55765287860139,0.08834501923128,0.00406045058719062,,
1.56378537024943,0.0814506447800883,0.00384265300913889,,
1.56991786189747,0.0743963587886658,0.00362963577501363,,
1.5760503535455,0.0674707405196671,0.00347117284752985,,
1.58218284519354,0.0604553317788114,0.00323241108943462,,
1.58831533684158,0.0533976728752393,0.00304876925119313,,
1.59444782848961,0.0464081467970897,0.00283659131409308,,
1.60058032013765,0.0393637665160857,0.00262244285354285,,
1.60671281178569,0.0323382035344427,0.00240756456949187,,
1.61284530343372,0.0252592065234819,0.00218823892348707,,
1.61897779508176,0.0181756649572038,0.00199446622278332,,
1.6251102867298,0.0110995082933164,0.00177864372957925,,
1.63124277837784,0.00407078542555429,0.00158010893053628,,
1.63737527002587,-0.00305784665051361,0.00138718008825478,,
1.64350776167391,-0.0101888930215939,0.00117111584101615,,
1.64964025332195,-0.0172397705965283,0.000948775111675904,,
1.65577274496998,-0.0242604694838081,0.000730995779211874,,
1.66190523661802,-0.0313821427095463,0.000515259952548419,,
1.66803772826606,-0.038397728972094,0.000300272194972528,,
1.67417021991409,-0.0454585477617852,7.01177927830976E-05,,
1.68030271156213,-0.0525148930048358,-0.000132421912717007,,
1.68643520321017,-0.0595419116643539,-0.000320187253734616,,
1.6925676948582,-0.0665300885776437,-0.000528353442281748,,
1.69870018650624,-0.0735462429096061,-0.000744068742659199,,
1.70483267815428,-0.0804482862978959,-0.00094725388581729,,
1.71096516980232,-0.087500584046367,-0.00117373408282306,,
1.71709766145035,-0.0944659671743929,-0.00139156587135103,,
1.72323015309839,-0.101353808827316,-0.00158012033402866,,
1.72936264474643,-0.108217507530115,-0.0017817317952642,,
1.73549513639446,-0.115127787924918,-0.00199963884684085,,
1.7416276280425,-0.121881849230685,-0.00221860414249297,,
1.74776011969054,-0.128717712532165,-0.00242390349310329,,
1.75389261133857,-0.135475111245744,-0.00261796356181021,,
1.76002510298661,-0.142254593657817,-0.00285707198606788,,
1.76615759463465,-0.148933314757463,-0.00305525555755137,,
1.77229008628269,-0.155584768525205,-0.00325909526116108,,
1.77842257793072,-0.162321858757209,-0.00346337285887133,,
1.78455506957876,-0.168893001711451,-0.00369604059073936,,
1.7906875612268,-0.175394769188426,-0.00385477720203609,,
1.79682005287483,-0.181946952825954,-0.004061536199647,,
1.80295254452287,-0.188355059858184,-0.00428675973181303,,
1.80908503617091,-0.194760042508634,-0.00447056578034211,,
1.81521752781894,-0.20120706229577,-0.00468445880266755,,
1.82135001946698,-0.207550977484143,-0.00486479818957042,,
1.82748251111502,-0.213714175589972,-0.00506401947884338,,
1.83361500276306,-0.219934322654622,-0.00526678725418739,,
1.83974749441109,-0.226232792289821,-0.00545044277661955,,
1.84587998605913,-0.232446832608264,-0.00564758863031312,,
1.85201247770717,-0.23832926240589,-0.00585133710598562,,
1.8581449693552,-0.244265587789234,-0.00604120068956648,,
1.86427746100324,-0.250415507272496,-0.00620836448159201,,
1.87040995265128,-0.25641261608321,-0.00641005576727327,,
1.87654244429931,-0.262148412963174,-0.00660243496123147,,
1.88267493594735,-0.26796714797768,-0.0067617006945655,,
1.88880742759539,-0.273620361766486,-0.00699420421614638,,
1.89493991924343,-0.278990250934723,-0.00716107835947044,,
1.90107241089146,-0.284745646209493,-0.0073225153177181,,
1.9072049025395,-0.290298027677194,-0.00750212260042238,,
1.91333739418754,-0.295596056064475,-0.00767369042113231,,
1.91946988583557,-0.3010245273911,-0.00788194327622005,,
1.92560237748361,-0.306361539541963,-0.00801885816486037,,
1.93173486913165,-0.311453713775101,-0.00820571122650282,,
1.93786736077968,-0.316800951175428,-0.00835362820440855,,
1.94399985242772,-0.322074339551847,-0.0085377444279251,,
1.95013234407576,-0.326639629402875,-0.00865838197181246,,
1.95626483572379,-0.331756230620844,-0.00884932660645266,,
1.96239732737183,-0.336902655483084,-0.00900588971213789,,
1.96852981901987,-0.341368533186544,-0.00917854770670123,,
1.97466231066791,-0.346218212788293,-0.00932383732000641,,
1.98079480231594,-0.350941070893217,-0.00946876202156144,,
1.98692729396398,-0.355373148466504,-0.00964603386906493,,
1.99305978561202,-0.35959305211341,-0.00978211174137877,,
1.99919227726005,-0.36434694101011,-0.0099452820304391,,
2.00532476890809,-0.368241624917115,-0.0100832551631544,,
2.01145726055613,-0.372605818195349,-0.0102583763120312,,
2.01758975220416,-0.376810312959382,-0.0103986483887724,,
2.0237222438522,-0.38060309941513,-0.0105242875043343,,
2.02985473550024,-0.384364571044394,-0.0106550171388102,,
2.03598722714828,-0.388471499886457,-0.0107824078307726,,
2.04211971879631,-0.392310441982148,-0.0109073148421359,,
2.04825221044435,-0.39588331456574,-0.0110192150303061,,
2.05438470209239,-0.399490768374951,-0.0111873161893903,,
2.06051719374042,-0.402881929754524,-0.0112922260368475,,
2.06664968538846,-0.406412765201431,-0.0113977950061535,,
2.0727821770365,-0.409279811537291,-0.0115072867767734,,
2.07891466868453,-0.412391979825583,-0.0116677544381845,,
2.08504716033257,-0.415579985380734,-0.0117548976448085,,
2.09117965198061,-0.418585853679805,-0.0118673816917791,,
2.09731214362865,-0.421499552716345,-0.0119766180241738,,
2.10344463527668,-0.424216060657316,-0.012073465602652,,
