Time domain (s),Current (AC) (A),Potential (AC) (V),Frequency (Hz),Column 5
0,0.00266387518588672,-0.00192483933060927,0.063096,0.4
0.0386935186065678,0.0084075723830735,-0.00172678238410739,,
0.0773870372131355,0.0141952116969289,-0.00154975876631891,,
0.116080555819703,0.0199881703196442,-0.00137387024551483,,
0.154774074426271,0.0257480278084216,-0.00112143166717615,,
0.193467593032839,0.0314177461394538,-0.000969531038710336,,
0.232161111639407,0.037179945280501,-0.000764645113271012,,
0.270854630245974,0.0428949644647041,-0.000574156706463658,,
0.309548148852542,0.048538519890746,-0.000410673305533127,,
0.34824166745911,0.0542065903924031,-0.000180298289799818,,
0.386935186065678,0.060022676444944,-2.25547634071788E-05,,
0.425628704672246,0.0656614040200098,0.000197635654428652,,
0.464322223278813,0.071343322070275,0.000389049432035105,,
0.503015741885381,0.0769938157252646,0.000605740734046734,,
0.541709260491949,0.082603373829463,0.000786075817914345,,
0.580402779098517,0.0882786427436533,0.000981776104389986,,
0.619096297705084,0.0938210734827828,0.0011836430765868,,
0.657789816311652,0.0992930522888061,0.00136494952383748,,
0.69648333491822,0.104916255576602,0.00156030026667153,,
0.735176853524788,0.110405811229292,0.00175670331983735,,
0.773870372131355,0.115899934549374,0.00193119550577814,,
0.812563890737923,0.121377666303566,0.00214097688190451,,
0.851257409344491,0.126809634655991,0.00231064168618333,,
0.889950927951059,0.132076877889483,0.00251807560080008,,
0.928644446557626,0.137605258714994,0.00270048587007699,,
0.967337965164194,0.142956252153742,0.0028982135096749,,
1.00603148377076,0.148217973713363,0.00310093778364529,,
1.04472500237733,0.153545348264402,0.00325240792152126,,
1.0834185209839,0.158696318344446,0.00346249100900176,,
1.12211203959047,0.163940694331698,0.00364435672607932,,
1.16080555819703,0.169219038731507,0.00381699449101536,,
1.1994990768036,0.174039749113641,0.0040306907559291,,
1.23819259541017,0.179375247174406,0.00416816810991616,,
1.27688611401674,0.18430509011603,0.00438491828243626,,
1.3155796326233,0.189344325800729,0.00454177875120809,,
1.35427315122987,0.194312560275864,0.00474653037830075,,
1.39296666983644,0.199184353368626,0.00491613631207111,,
1.43166018844301,0.203887084949363,0.00507165747678417,,
1.47035370704958,0.208804930536765,0.00528198708451688,,
1.50904722565614,0.213428999946807,0.00543973061090997,,
1.54774074426271,0.218313773309558,0.00564692536408762,,
1.58643426286928,0.222863806034872,0.00578194487436257,,
1.62512778147585,0.227528174991385,0.00597044824122595,,
1.66382130008241,0.231987403645345,0.00613450562961004,,
1.70251481868898,0.236518500787489,0.00629656510012611,,
1.74120833729555,0.240816502346278,0.00646131053757371,,
1.77990185590212,0.245151739067086,0.00662922394423671,,
1.81859537450869,0.249648636522375,0.00682258412801628,,
1.85728889311525,0.253988267454849,0.00695995477920786,,
1.89598241172182,0.25817595117337,0.00712009727880503,,
1.93467593032839,0.262068760161615,0.00726461701732095,,
1.97336944893496,0.266195618739694,0.00746882041280683,,
2.01206296754152,0.270172611572503,0.00758965213063556,,
2.05075648614809,0.274191696327595,0.00774064026622634,,
2.08945000475466,0.278056289851453,0.00790999600033748,,
2.12814352336123,0.281818428861182,0.00804947495159958,,
2.1668370419678,0.285607858238106,0.00819312267071481,,
2.20553056057436,0.289205098673179,0.00835364782861436,,
2.24422407918093,0.292980189043611,0.00848533747577607,,
2.2829175977875,0.29638570308543,0.00863400022629834,,
2.32161111639407,0.299839553455585,0.00876844206971272,,
2.36030463500063,0.303477498167151,0.00891865385047863,,
2.3989981536072,0.306724358040367,0.00905171591635989,,
2.43769167221377,0.30971820383129,0.0091771836866994,,
2.47638519082034,0.312919502667749,0.00926766765761444,,
2.51507870942691,0.316042630791398,0.00944354330049491,,
2.55377222803347,0.319038558051005,0.00955539726584176,,
2.59246574664004,0.322413312611156,0.00969019601171128,,
2.63115926524661,0.325006822591799,0.00979292504830598,,
2.66985278385318,0.327618140693407,0.00994338334932454,,
2.70854630245974,0.330681137499509,0.0100411562250202,,
2.74723982106631,0.333074595212159,0.0101488745371747,,
2.78593333967288,0.335725923767366,0.0102706592213528,,
2.82462685827945,0.338331460011517,0.0103708862613541,,
2.86332037688602,0.340792681093557,0.0105236846650687,,
2.90201389549258,0.34301083288813,0.01060554410655,,
2.94070741409915,0.345235922911651,0.0106934083398551,,
2.97940093270572,0.347601858982809,0.0108248809020184,,
3.01809445131229,0.34961209518325,0.0109295489859731,,
3.05678796991885,0.351567288100706,0.0110104848963588,,
3.09548148852542,0.353694086547468,0.0111119482170299,,
3.13417500713199,0.355286872639557,0.0112127639621122,,
3.17286852573856,0.357332031259034,0.0112714909733262,,
3.21156204434513,0.358923429705333,0.0113981471920472,,
3.25025556295169,0.360558076445407,0.0114645678427854,,
3.28894908155826,0.361800250701339,0.0115160059492179,,
3.32764260016483,0.363157599557804,0.0116162918597276,,
3.3663361187714,0.364889150228846,0.0116637819627119,,
3.40502963737796,0.366196312562589,0.0117672947129455,,
3.44372315598453,0.367130660727543,0.0118364969951905,,
3.4824166745911,0.367956309972316,0.0118763376115316,,
3.52111019319767,0.369245201636497,0.0119576488214066,,
3.55980371180424,0.369993836539951,0.0120414988219424,,
3.5984972304108,0.371248962156587,0.0120981764035935,,
3.63719074901737,0.371490875072562,0.012131305782014,,
3.67588426762394,0.372334332438302,0.0121929027304963,,
3.71457778623051,0.372894016240081,0.0122378614016339,,
3.75327130483707,0.373455781510545,0.0123002089490942,,
3.79196482344364,0.373736779782926,0.0123324994227745,,
3.83065834205021,0.373961115852234,0.0123626963140113,,
3.86935186065678,0.374267323023125,0.012398283536144,,
3.90804537926334,0.374282818401108,0.0124556086933842,,
3.94673889786991,0.374500447515767,0.0124893120592584,,
3.98543241647648,0.374598970366824,0.0125018367598519,,
4.02412593508305,0.374195627990666,0.0125592649404811,,
4.06281945368962,0.374176663498209,0.0125888289737564,,
4.10151297229618,0.374038361467852,0.012597898711407,,
4.14020649090275,0.373518919393969,0.0126384163385911,,
4.17890000950932,0.372701596023932,0.0126189118033837,,
4.21759352811589,0.372290390321633,0.0126412568406056,,
4.25628704672245,0.371845881120385,0.0126641096359599,,
4.29498056532902,0.371136562847634,0.0126457604344736,,
4.33367408393559,0.370304900471106,0.0126421693334811,,
4.37236760254216,0.369386047684135,0.0126636423513022,,
4.41106112114873,0.368031936667846,0.0126652465726473,,
4.44975463975529,0.366935002671218,0.0126431112616103,,
4.48844815836186,0.36618289865329,0.0126210789739623,,
4.52714167696843,0.364748998004103,0.012623271900388,,
4.565835195575,0.363257047506054,0.0126212555854868,,
4.60452871418156,0.361821990485375,0.0126239047583501,,
4.64322223278813,0.360370050440924,0.0125655788024726,,
4.6819157513947,0.358781889834801,0.0125295058986481,,
4.72060927000127,0.357298265211489,0.0125161717285689,,
4.75930278860784,0.355245011991572,0.012495125521931,,
4.7979963072144,0.353485708404739,0.0124665586078865,,
4.83668982582097,0.351157701318495,0.0124395223270524,,
4.87538334442754,0.349693966284833,0.0123519965991683,,
4.91407686303411,0.347150411552614,0.0123614600333419,,
4.95277038164067,0.345466040838416,0.0123424742944871,,
4.99146390024724,0.343004588482077,0.012262634847314,,
5.03015741885381,0.340793837465049,0.012231326775237,,
5.06885093746038,0.338002819233696,0.0121517044130628,,
5.10754445606695,0.335636883162537,0.0121088908360636,,
5.14623797467351,0.333182831583743,0.012037525062647,,
5.18493149328008,0.330432055080287,0.0119876212688315,,
5.22362501188665,0.327703018360867,0.0119250382393385,,
5.26231853049322,0.324730449805383,0.0118403677310965,,
5.30101204909978,0.321981523496312,0.0117800107426902,,
5.33970556770635,0.318849838223628,0.0116883015293263,,
5.37839908631292,0.316020197184467,0.0116536451971023,,
5.41709260491949,0.312761079773444,0.0115700343580056,,
5.45578612352606,0.309631938518041,0.0114501445683066,,
5.49447964213262,0.306476663266935,0.0113898758856625,,
5.53317316073919,0.303357698080655,0.0113121668150007,,
5.57186667934576,0.299823132980409,0.0112222862667939,,
5.61056019795233,0.296171080536649,0.0111339400312036,,
5.64925371655889,0.292628652110262,0.0110346070870437,,
5.68794723516546,0.289175495563003,0.0109450061737499,,
5.72664075377203,0.28541636311915,0.0108379207195575,,
5.7653342723786,0.28169932259758,0.0107524554594565,,
5.80402779098517,0.277974187475572,0.0106563199197667,,
5.84272130959173,0.274106587385837,0.0105379460456501,,
5.8814148281983,0.270059749714954,0.0104041628160449,,
5.92010834680487,0.266003198523545,0.0103102202027805,,
5.95880186541144,0.262136292256705,0.0102145887418157,,
5.997495384018,0.257846847846952,0.0101022159801167,,
6.03618890262457,0.253836551515194,0.0099840739086261,,
6.07488242123114,0.249542481619475,0.00986271603563171,,
6.11357593983771,0.245136706237699,0.0097116984647867,,
6.15226945844428,0.24070852615828,0.0096164312650906,,
6.19096297705084,0.236139904761244,0.00947250759046891,,
6.22965649565741,0.231853958375252,0.0093631740187492,,
6.26835001426398,0.227069095509347,0.00922492766875038,,
6.30704353287055,0.222619609285201,0.00910989469596712,,
6.34573705147711,0.218091518708934,0.00895875570469951,,
6.38443057008368,0.213322151221013,0.00880576965124025,,
6.42312408869025,0.208684407718086,0.00868465829849852,,
6.46181760729682,0.203778646212768,0.0085205861924873,,
6.50051112590339,0.198849699459049,0.00838591990526094,,
6.53920464450995,0.193979785469961,0.00823102056028935,,
6.57789816311652,0.188887327787376,0.00808323350857521,,
6.61659168172309,0.18409598924112,0.00792962931478147,,
6.65528520032966,0.178921515910515,0.00779346182959895,,
6.69397871893622,0.173906997666442,0.00761966137212777,,
6.73267223754279,0.168949864357624,0.00747761051554408,,
6.77136575614936,0.163637725000983,0.00734022146731927,,
6.81005927475593,0.158443998085049,0.00715009548207712,,
6.8487527933625,0.153196615531919,0.00700110894376049,,
6.88744631196906,0.147869934803775,0.00685077942197854,,
6.92613983057563,0.142595232974164,0.00666668030500084,,
6.9648333491822,0.137252565410153,0.00648958309907766,,
7.00352686778877,0.131986912187462,0.00632685029712521,,
7.04222038639533,0.126601487787561,0.00617752525338755,,
7.0809139050019,0.121166975417855,0.00599359538912037,,
7.11960742360847,0.115573606514534,0.00582249193680084,,
7.15830094221504,0.110138689414807,0.00564799975086006,,
7.19699446082161,0.104686137649837,0.00546598685751221,,
7.23568797942817,0.0991723271051165,0.00529576646281393,,
7.27438149803474,0.0934859859338972,0.00514606611958701,,
7.31307501664131,0.0879867456699669,0.00497129797813933,,
7.35176853524788,0.0823781126629616,0.0047768486899602,,
7.39046205385444,0.0767486649691133,0.00458390427914424,,
7.42915557246101,0.0710630176207888,0.0043986498284454,,
7.46784909106758,0.0653567868599195,0.00424034335281887,,
7.50654260967415,0.0596794653863321,0.00406678205678723,,
7.54523612828072,0.0539919678436216,0.00386959528998254,,
7.58392964688728,0.0483151089186308,0.00367885484381247,,
7.62262316549385,0.0426375561707452,0.00351129466019762,,
7.66131668410042,0.036898021910927,0.0033205100611462,,
7.70001020270699,0.0311644718735762,0.00310142346533704,,
7.73870372131355,0.0253999888988337,0.00293533504442411,,
7.77739723992012,0.0196713534403208,0.00273430697696764,,
7.81609075852669,0.0139227705735834,0.00254389399799848,,
7.85478427713326,0.0082001193375379,0.00237728678073346,,
7.89347779573983,0.0023567429178028,0.00216803155977274,,
7.93217131434639,-0.00337377164438339,0.00200781547204087,,
7.97086483295296,-0.00914527957593545,0.00178160554475415,,
8.00955835155953,-0.0149053394297238,0.00160614199542986,,
8.0482518701661,-0.0206902034520002,0.00140208577621426,,
8.08694538877266,-0.0264917770423255,0.00123135394397655,,
8.12563890737923,-0.0322004940019011,0.00102021486675774,,
8.1643324259858,-0.0379761648708217,0.000825817090273073,,
8.20302594459237,-0.0436876571219764,0.000652719399492518,,
8.24171946319894,-0.0493894936711788,0.000448839791800992,,
8.2804129818055,-0.0550742159223103,0.000226055392202884,,
8.31910650041207,-0.0606944126442284,3.87441531284338E-05,,
8.35780001901864,-0.0663739890422237,-0.00014575417948226,,
8.39649353762521,-0.0721172815093886,-0.000341014776851001,,
8.43518705623177,-0.0776814520325542,-0.000511093514389049,,
8.47388057483834,-0.0834155513463633,-0.000720111413614166,,
8.51257409344491,-0.0889945234246173,-0.000900255168330144,,
8.55126761205148,-0.0945288595633079,-0.00110809749709695,,
8.58996113065805,-0.10016114036731,-0.00131125962047118,,
8.62865464926461,-0.105798451387299,-0.00147733332375699,,
8.66734816787118,-0.111249586597192,-0.00169534369309066,,
8.70604168647775,-0.116685226429102,-0.0018816136600539,,
8.74473520508432,-0.122265412697422,-0.0020890862084415,,
8.78342872369088,-0.127594839807857,-0.00225515991172731,,
8.82212224229745,-0.133036839682969,-0.00244002802471677,,
8.86081576090402,-0.138363954050422,-0.002668857689613,,
8.89950927951059,-0.143763919821826,-0.00283786020067556,,
8.93820279811716,-0.149059002698971,-0.00304477531893976,,
8.97689631672372,-0.154202543092184,-0.00322294875133888,,
9.01558983533029,-0.159570650829003,-0.00340076528128286,,
9.05428335393686,-0.164695458004057,-0.00359536174573183,,
9.09297687254343,-0.169746199585094,-0.00377201926254811,,
9.13167039114999,-0.174910612483724,-0.00397194166827486,,
9.17036390975656,-0.179941753567984,-0.00412315056827106,,
9.20905742836313,-0.185167396337078,-0.00431451099447955,,
9.2477509469697,-0.189917770423255,-0.00450536734196261,,
9.28644446557627,-0.19483951876444,-0.00469259027527524,,
9.32513798418283,-0.199851695356243,-0.00489473688238506,,
9.3638315027894,-0.204654337433827,-0.00505714405683966,,
9.40252502139597,-0.209544863744747,-0.00521122657351158,,
9.44121854000254,-0.214267716189432,-0.00539264892207525,,
9.4799120586091,-0.218788434897441,-0.00558493471908239,,
9.51860557721567,-0.223345463670277,-0.00573923432075274,,
9.55729909582224,-0.227975979851383,-0.00592498549136344,,
9.59599261442881,-0.232639683894289,-0.00606515617109515,,
9.63468613303538,-0.236928203206849,-0.00626156474337103,,
9.67337965164194,-0.241580516990566,-0.0064474465329214,,
9.71207317024851,-0.245880368743741,-0.00661858493960521,,
9.75076668885508,-0.250418201749821,-0.00675470643220377,,
9.78946020746165,-0.254467872530858,-0.00691676222331328,,
9.82815372606821,-0.258818778085373,-0.00708932823981767,,
9.86684724467478,-0.262905394935555,-0.0072312484774617,,
9.90554076328135,-0.266842897681938,-0.00740348886646824,,
9.94423428188792,-0.270658692328863,-0.0075945825356869,,
9.98292780049449,-0.274900205140303,-0.00771754830943339,,
10.0216213191011,-0.278719642357425,-0.00787761722089542,,
10.0603148377076,-0.28259840143205,-0.00803069341981955,,
10.0990083563142,-0.286334637720375,-0.00815273382276693,,
10.1377018749208,-0.290047746578875,-0.0083283739836153,,
10.1763953935273,-0.293612319519319,-0.00846864584703289,,
10.2150889121339,-0.297181460127155,-0.00861803160098251,,
10.2537824307405,-0.300776561274969,-0.00875565613123985,,
10.292475949347,-0.304156172595383,-0.0089053343980261,,
10.3311694679536,-0.307330412338946,-0.00901399463830987,,
10.3698629865602,-0.310543448346042,-0.009162688663789,,
10.4085565051667,-0.313922423662136,-0.00929099509643994,,
10.4472500237733,-0.316821678265073,-0.00940526275261799,,
10.4859435423799,-0.319895024596022,-0.00956622943932794,,
10.5246370609864,-0.32286765097008,-0.00967204917759679,,
10.563330579593,-0.325828944903524,-0.00981526640612174,,
10.6020240981996,-0.328891710435328,-0.00992651694876034,,
10.6407176168061,-0.331474986528272,-0.0100305705717871,,
10.6794111354127,-0.334142504284356,-0.0101859592778566,,
10.7181046540193,-0.336468429901917,-0.0102789875585425,,
10.7567981726258,-0.339067721740015,-0.0103627621312397,,
10.7954916912324,-0.341524606428963,-0.0104758229420021,,
10.834185209839,-0.344085680189275,-0.0106015703472546,,
10.8728787284455,-0.346020752242783,-0.0107048292184224,,
10.9115722470521,-0.348500475268683,-0.0108395525364537,,
10.9502657656587,-0.350295799827469,-0.0109035594963607,,
10.9889592842652,-0.352247350174728,-0.010993500754779,,
11.0276528028718,-0.354267935900015,-0.0111130226038028,,
11.0663463214784,-0.356216248407098,-0.0111880530663471,,
11.105039840085,-0.357995441583581,-0.011273796121658,,
11.1437333586915,-0.359617426055825,-0.0113720528393424,,
11.1824268772981,-0.361369039772241,-0.0114412569612905,,
11.2211203959047,-0.362923896879416,-0.0115335806355827,,
11.2598139145112,-0.364097151394468,-0.0116301852996337,,
11.2985074331178,-0.365566899559885,-0.0116698493044507,,
11.3372009517244,-0.366774613945378,-0.0117802756599765,,
11.3758944703309,-0.36781396064174,-0.0118351852866825,,
11.4145879889375,-0.369046883925742,-0.0119158415621548,,
11.4532815075441,-0.370123697058422,-0.0119372244345106,,
11.4919750261506,-0.370786471378649,-0.0120185117282414,,
11.5306685447572,-0.371713476584634,-0.012088624663658,,
11.5693620633638,-0.372330053863784,-0.0121671579214331,,
11.6080555819703,-0.373291518940209,-0.0121988155371517,,
11.6467491005769,-0.373651613022593,-0.0122490026452873,,
11.6854426191835,-0.374072474426844,-0.0122985256205039,,
11.72413613779,-0.37456167738623,-0.0123483024747868,,
11.7628296563966,-0.374824347170475,-0.0123843146683997,,
11.8015231750032,-0.374915006695391,-0.0124262930200656,,
11.8402166936097,-0.37493628393083,-0.0124708855902305,,
11.8789102122163,-0.375093550453645,-0.0124888852480751,,
11.9176037308229,-0.375380793132078,-0.0125050304849155,,
11.9562972494294,-0.374999421814254,-0.0125492128012272,,
11.994990768036,-0.374755196155296,-0.0125318772763019,,
12.0336842866426,-0.374356999632274,-0.0125691257505842,,
12.0723778052491,-0.37381182829271,-0.0126063613469434,,
12.1110713238557,-0.373271108983388,-0.0126031381866261,,
12.1497648424623,-0.373073369458379,-0.0126273192478186,,
12.1884583610688,-0.372121906995354,-0.0126278932352726,,
12.2271518796754,-0.371379285223654,-0.0126483654544565,,
12.265845398282,-0.37037133401328,-0.012629821244412,,
12.3045389168886,-0.369417385351548,-0.0126654379017985,,
12.3432324354951,-0.368498995113174,-0.0126447890710906,,
12.3819259541017,-0.36760974543638,-0.0126182531895749,,
12.4206194727083,-0.366002620337799,-0.0126196366465146,,
12.4593129913148,-0.364815026816255,-0.0126366796586028,,
12.4980065099214,-0.363676694720239,-0.0126115419516539,,
12.536700028528,-0.362127156921924,-0.0125698763495623,,
12.5753935471345,-0.360476147525249,-0.0125573534886723,,
12.6140870657411,-0.358961763420269,-0.0125413407104751,,
12.6527805843477,-0.35701096471448,-0.0125016914232852,,
12.6914741029542,-0.355299881818834,-0.0125121850913499,,
12.7301676215608,-0.353594754236367,-0.0124376991810053,,
12.7688611401674,-0.351727445552248,-0.0124127656811313,,
12.8075546587739,-0.349430891770567,-0.0123753829085023,,
12.8462481773805,-0.34749697608855,-0.0123178369868566,,
12.8849416959871,-0.345198629931057,-0.0123029721835675,,
12.9236352145936,-0.34265345627875,-0.0122474425768235,,
12.9623287332002,-0.340322095715181,-0.0122019651093339,,
13.0010222518068,-0.337874115086716,-0.0121269787996705,,
13.0397157704133,-0.335574092190561,-0.0120700510183598,,
13.0784092890199,-0.332608461864025,-0.0120440468111203,,
13.1171028076265,-0.330101275015206,-0.011967998992608,,
13.155796326233,-0.327357147647825,-0.0118856980223159,,
13.1944898448396,-0.32437342010745,-0.0118330530704678,,
13.2331833634462,-0.321591248118005,-0.0117491184435767,,
13.2718768820527,-0.318500729670411,-0.0116897181009268,,
13.3105704006593,-0.315453690790889,-0.0115898737192279,,
13.3492639192659,-0.312120796878722,-0.0115506218079675,,
13.3879574378725,-0.309181936552209,-0.0114377376087296,,
