Time domain (s),Current (AC) (A),Potential (AC) (V),Frequency (Hz),Column 5
0,0.024043502471741,-0.000665183879396292,6309.6,0.5
4.95277038164067E-06,-0.0322092517773117,-0.00146246344734369,,
9.90554076328135E-06,-0.0889638598498905,-0.00228634418814133,,
1.4858311144922E-05,-0.142768483452067,-0.00298853615500905,,
1.98110815265627E-05,-0.190993458254638,-0.0035858484041027,,
2.47638519082034E-05,-0.231794546902864,-0.00402614160624815,,
2.9716622289844E-05,-0.263534502334978,-0.00431156755418849,,
3.46693926714847E-05,-0.284861887413471,-0.00441475400169544,,
3.96221630531254E-05,-0.295421587745493,-0.004367064229581,,
4.45749334347661E-05,-0.294301212842402,-0.0041789532372194,,
4.95277038164067E-05,-0.281884848637194,-0.00379519224999036,,
5.44804741980474E-05,-0.258583138308002,-0.0032405431989031,,
5.94332445796881E-05,-0.225135211171994,-0.00259883326603294,,
6.43860149613288E-05,-0.182957619323336,-0.00185795367992903,,
6.93387853429694E-05,-0.134006438782781,-0.00103981391529917,,
7.42915557246101E-05,-0.0798065098766679,-0.000163177330088082,,
7.92443261062508E-05,-0.0232323348519249,0.000665556536240342,,
8.41970964878915E-05,0.0330112592778162,0.00147515438778045,,
8.91498668695321E-05,0.0894548138415226,0.00227465959291395,,
9.41026372511728E-05,0.142864380670132,0.00300293410421348,,
9.90554076328135E-05,0.19078660997902,0.00355845383281128,,
0.000104008178014454,0.231474368779019,0.00403080411007606,,
0.000108960948396095,0.263165008685071,0.00430125680907612,,
0.000113913718777736,0.284372886160451,0.00442897678501053,,
0.000118866489159376,0.294807007647492,0.00437487800211001,,
0.000123819259541017,0.293938926573194,0.00416875926936688,,
0.000128772029922658,0.281383917926467,0.00378314701910787,,
0.000133724800304298,0.258112528302283,0.00324904217917688,,
0.000138677570685939,0.22508394290732,0.00257573197635042,,
0.00014363034106758,0.183163970538216,0.00187955747298618,,
0.00014858311144922,0.134332652644157,0.0010161991491362,,
0.000153535881830861,0.0804464400722982,0.000196451979872059,,
0.000158488652212502,0.0240577752157847,-0.000673007955800831,,
0.000163441422594142,-0.0322392174389357,-0.00145184186864267,,
0.000168394192975783,-0.0889262252511683,-0.00226726827929546,,
0.000173346963357424,-0.142711534493246,-0.00299340301904083,,
0.000178299733739064,-0.190849239631988,-0.00356424289373258,,
0.000183252504120705,-0.231786238887675,-0.00402103088382066,,
0.000188205274502346,-0.263216951532176,-0.00432224752151944,,
0.000193158044883986,-0.284943263357123,-0.00444452705099874,,
0.000198110815265627,-0.295345324426573,-0.00437572120261764,,
0.000203063585647268,-0.29444571549976,-0.00416581579549558,,
0.000208016356028908,-0.281735588398489,-0.00376164283018365,,
0.000212969126410549,-0.258444245336115,-0.00324160449811695,,
0.00021792189679219,-0.225082096681722,-0.00262297696449032,,
0.00022287466717383,-0.18302706580928,-0.00184975522936792,,
0.000227827437555471,-0.134037895626618,-0.00102607713146252,,
0.000232780207937112,-0.0798563579678055,-0.000176744099972925,,
0.000237732978318752,-0.0232147957087468,0.000693433672385169,,
0.000242685748700393,0.0330382425750132,0.0014709469718035,,
0.000247638519082034,0.0893705620464587,0.00226250101939707,,
0.000252591289463674,0.14288752949878,0.0029892265146918,,
0.000257544059845315,0.190810078346713,0.00357638257681092,,
0.000262496830226956,0.231319463350505,0.00401554406992455,,
0.000267449600608596,0.263092331304331,0.00431059212060703,,
0.000272402370990237,0.284445883080237,0.00444252981639437,,
0.000277355141371878,0.294760425955489,0.00437771500259743,,
0.000282307911753518,0.294003899512497,0.00416854632259911,,
0.000287260682135159,0.281591085741131,0.0037561165180966,,
0.0002922134525168,0.258334252895698,0.00324881205928262,,
0.00029716622289844,0.225067894946355,0.00261684787566496,,
0.000302118993280081,0.183324237121831,0.00182153291338238,,
0.000307071763661722,0.13435075985675,0.00104585713849215,,
0.000312024534043362,0.0804295045028732,0.000149667231520656,,
0.000316977304425003,0.0240821311919389,-0.000674759614697429,,
0.000321930074806644,-0.0321727533174189,-0.00146397124784503,,
0.000326882845188285,-0.0889490190364321,-0.00226942178935063,,
0.000331835615569925,-0.142597210523543,-0.00300264903031433,,
0.000336788385951566,-0.190841499686213,-0.00356778742702923,,
0.000341741156333206,-0.231630161815993,-0.00402789154783223,,
0.000346693926714847,-0.263572491977085,-0.00430793543794694,,
0.000351646697096488,-0.284958956274703,-0.00442912275658491,,
0.000356599467478129,-0.2953850892856,-0.00436852909726593,,
0.000361552237859769,-0.294462615564846,-0.00415390279768646,,
0.00036650500824141,-0.281690994949437,-0.00378218532402741,,
0.000371457778623051,-0.2583391524944,-0.0032483689926206,,
0.000376410549004691,-0.225068178981062,-0.00261959042395699,,
0.000381363319386332,-0.183036296937268,-0.00184655587591287,,
0.000386316089767973,-0.134083554205823,-0.00104627444546468,,
0.000391268860149613,-0.0798447835534815,-0.000152813348283765,,
0.000396221630531254,-0.0232451164137551,0.000668615070058998,,
0.000401174400912895,0.0330613914036612,0.00147912824923813,,
0.000406127171294535,0.0893737929412547,0.00228839809406356,,
0.000411079941676176,0.142915719943483,0.00298925399169425,,
0.000416032712057817,0.190728453872692,0.00354757637452607,,
0.000420985482439457,0.231373784988283,0.00400576912635664,,
0.000425938252821098,0.26299792526848,0.00431946032309893,,
0.000430891023202739,0.284428343937059,0.00443387456067024,,
0.000435843793584379,0.294730176259158,0.00437182805485481,,
0.00044079656396602,0.293928523802037,0.00416662293243819,,
0.000445749334347661,0.281525473723736,0.00377259585022527,,
0.000450702104729301,0.258055259804417,0.00323652297000487,,
0.000455654875110942,0.225018366394263,0.0025920979658447,,
0.000460607645492583,0.18323071869444,0.00185501020605772,,
0.000465560415874223,0.134239453755812,0.00102198305811996,,
0.000470513186255864,0.0804280488249981,0.00016178458953453,,
0.000475465956637505,0.0241091144891359,-0.000664466042711531,,
0.000480418727019145,-0.0322558334693149,-0.00147825413710212,,
0.000485371497400786,-0.0888617493726028,-0.00226845837695766,,
0.000490324267782427,-0.142785099482446,-0.00298253758194456,,
0.000495277038164067,-0.190840008503999,-0.00354545205878587,,
0.000500229808545708,-0.231707916317126,-0.00402121807089895,,
0.000505182578927349,-0.26350687995969,-0.00430565141213091,,
0.000510135349308989,-0.285007668227011,-0.0044328269999574,,
0.00051508811969063,-0.295558137431045,-0.00437043874892584,,
0.000520040890072271,-0.294140946258787,-0.00416240006064728,,
0.000524993660453911,-0.281868516641523,-0.00375400765817036,,
0.000529946430835552,-0.258405616615917,-0.00324769408875136,,
0.000534899201217193,-0.22512789727828,-0.00255674365044944,,
0.000539851971598833,-0.183018118715998,-0.00185993374140692,,
0.000544804741980474,-0.133954815474722,-0.00102258926948329,,
0.000549757512362115,-0.0799620188789349,-0.000184221279223795,,
0.000554710282743756,-0.0231947002532027,0.000703768459874521,,
0.000559663053125396,0.0330895818483644,0.00147755175623132,,
0.000564615823507037,0.0893322528653066,0.00225533639104736,,
0.000569568593888678,0.142833207861001,0.00298415700776777,,
0.000574521364270318,0.190936793330524,0.00357591203314644,,
0.000579474134651959,0.231488357488355,0.00402757212768057,,
0.0005844269050336,0.263151375019119,0.00431835437375616,,
0.00058937967541524,0.284558680363388,0.00442022192515301,,
0.000594332445796881,0.294751230331839,0.00436689249831668,,
0.000599285216178522,0.293941269859529,0.00416995108434159,,
0.000604237986560162,0.281516278100086,0.0037930936939401,,
0.000609190756941803,0.258244604441195,0.00325958991343445,,
0.000614143527323444,0.225013892847623,0.00260962485868577,,
0.000619096297705084,0.183160100565329,0.00185687864221418,,
0.000624049068086725,0.134383104309048,0.00101542635844654,,
0.000629001838468366,0.0804689853271931,0.000178825482897604,,
0.000633954608850006,0.0240405556116524,-0.000654933240226363,,
0.000638907379231647,-0.0322053463000858,-0.00148373923368617,,
0.000643860149613288,-0.0889368765526935,-0.00227395721204271,,
0.000648812919994928,-0.142734967356601,-0.00299235374101592,,
0.000653765690376569,-0.190918615109255,-0.00356259255628233,,
0.00065871846075821,-0.231747397141446,-0.00400671708293565,,
0.00066367123113985,-0.263367986987802,-0.00429340869029415,,
0.000668624001521491,-0.284876444192222,-0.004430386698691,,
0.000673576771903132,-0.295467317333374,-0.00436647690865666,,
0.000678529542284772,-0.294202084729541,-0.00415912858006084,,
0.000683482312666413,-0.281857226261906,-0.00377510827862304,,
0.000688435083048054,-0.258620488872017,-0.00326143258990097,,
0.000693387853429694,-0.225043538970201,-0.00261778037643046,,
0.000698340623811335,-0.182976294605343,-0.00185209592650137,,
0.000703293394192976,-0.133941749878185,-0.00104409345840706,,
0.000708246164574616,-0.0798029594428262,-0.000160463976111025,,
0.000713198934956257,-0.0232056355894352,0.000665886260267978,,
0.000718151705337898,0.0330213425099267,0.00149416160412086,,
0.000723104475719538,0.0893658044651108,0.00226745031443576,,
0.000728057246101179,0.142780093370729,0.00300139882671013,,
0.00073301001648282,0.19086287329794,0.00359672586238791,,
0.00073796278686446,0.231611486533986,0.00400157544888113,,
0.000742915557246101,0.262867659850828,0.0042984885010946,,
0.000747868327627742,0.284489517912152,0.00444426773678996,,
0.000752821098009382,0.294645533916371,0.00440384219715773,,
0.000757773868391023,0.293827016898503,0.0041635798544335,,
0.000762726638772664,0.281336129086958,0.00378663316377459,,
0.000767679409154304,0.257832647602541,0.00325321868352635,,
0.000772632179535945,0.225058734827043,0.00260529036157342,,
0.000777584949917586,0.183061291991514,0.00182947033242131,,
0.000782537720299226,0.134234980209172,0.00101703376308127,,
0.000787490490680867,0.0803971600505752,0.000172407885548065,,
0.000792443261062508,0.0240622132580869,-0.000644397527157725,,
0.000797396031444149,-0.0322543422871014,-0.0014574403078611,,
0.000802348801825789,-0.0888125403595567,-0.00228842728837808,,
0.00080730157220743,-0.142679154536609,-0.00299944624223425,,
0.00081225434258907,-0.190836458070157,-0.0035771502155626,,
0.000817207112970711,-0.231624268095816,-0.00403584442268512,,
0.000822159883352352,-0.263193802703528,-0.00429943645767361,,
0.000827112653733993,-0.285018887597951,-0.00444498557347472,,
0.000832065424115633,-0.295095160858086,-0.00440110136617822,,
0.000837018194497274,-0.294230275174245,-0.00414372600295998,,
0.000841970964878915,-0.281996119233794,-0.00379051085572391,,
0.000846923735260555,-0.258513691822059,-0.00325052078536281,,
0.000851876505642196,-0.22506732687694,-0.00261481114286966,,
0.000856829276023837,-0.182895557739782,-0.00184049891421845,,
0.000861782046405477,-0.134039670843539,-0.00101479267008076,,
0.000866734816787118,-0.0798691395296357,-0.000189503732915597,,
0.000871687587168759,-0.0232210444723083,0.00065976919263111,,
0.000876640357550399,0.0330201708667589,0.00146352474655753,,
0.00088159312793204,0.0893512476863598,0.00227566250349787,,
0.000886545898313681,0.142755453359868,0.00299859960710114,,
0.000891498668695321,0.19081867039661,0.00356033600746875,,
0.000896451439076962,0.23138685058482,0.00402661043260011,,
0.000901404209458603,0.263064744433381,0.00432208781144361,,
0.000906356979840243,0.284442048611688,0.00443141880358988,,
0.000911309750221884,0.294867294014125,0.00438894279266133,,
0.000916262520603525,0.293845408145803,0.00415502420284275,,
0.000921215290985165,0.281411256267048,0.00375981904415656,,
0.000926168061366806,0.258231574348996,0.00324562472701606,,
0.000931120831748447,0.225040308075405,0.00260836091658012,,
0.000936073602130087,0.183180870603303,0.00188755328065549,,
0.000941026372511728,0.134316604683193,0.00101080335281001,,
0.000945979142893369,0.0804111132555732,0.000183778212561769,,
0.000950931913275009,0.0240553964251108,-0.000675348652934282,,
0.00095588468365665,-0.032247241419418,-0.00144404526924058,,
0.000960837454038291,-0.0888457724203151,-0.00226039044215742,,
0.000965790224419931,-0.142619720274099,-0.00298941198445712,,
0.000970742994801572,-0.190918970152639,-0.00358675342786574,,
0.000975695765183213,-0.231747681176154,-0.00401049173612655,,
0.000980648535564854,-0.263417267009525,-0.00431960629467332,,
0.000985601305946494,-0.284906409853846,-0.00440542212479,,
0.000990554076328135,-0.295362011465629,-0.00437210282487754,,
0.000995506846709775,-0.294462047495432,-0.00418084915037786,,
0.00100045961709142,-0.282025232791296,-0.00379460492906647,,
0.00100541238747306,-0.258329069262289,-0.00324298521748245,,
0.0010103651578547,-0.225202953449694,-0.00258220796232944,,
0.00101531792823634,-0.182932411243059,-0.00186784540075635,,
0.00102027069861798,-0.134089234899969,-0.00103618179905762,,
0.00102522346899962,-0.079907129171742,-0.000162617486166194,,
0.00103017623938126,-0.0232157188215457,0.000672748641592058,,
0.0010351290097629,0.033024608909061,0.00147202544414382,,
0.00104008178014454,0.0893495079737773,0.00229702587278524,,
0.00104503455052618,0.142866191391391,0.00296498149478852,,
0.00104998732090782,0.190718051101536,0.00359084234927076,,
0.00105494009128946,0.231370802623856,0.00401686640066012,,
0.0010598928616711,0.262992599617718,0.00429439786237706,,
0.00106484563205274,0.284514157923013,0.00441371674485902,,
0.00106979840243439,0.294589792105056,0.00437473031322266,,
0.00107475117281603,0.293832342549265,0.00416308870301751,,
0.00107970394319767,0.281376497519738,0.00376072235060709,,
0.00108465671357931,0.258180235075645,0.00323962443663905,,
0.00108960948396095,0.225024011584071,0.00260284834299407,,
0.00109456225434259,0.183168089041472,0.00183449518921686,,
0.00109951502472423,0.134288130203782,0.00102865996967871,,
0.00110446779510587,0.0804725712653732,0.000205222295543095,,
0.00110942056548751,0.0241221800856734,-0.000654416329120888,,
0.00111437333586915,-0.0321973933282804,-0.00148210263473647,,
0.00111932610625079,-0.0888621754246638,-0.0022675104203782,,
0.00112427887663243,-0.142590109655859,-0.00298181802794684,,
0.00112923164701407,-0.190951350109275,-0.0035805796889119,,
0.00113418441739571,-0.231733124397403,-0.00401699691642099,,
0.00113913718777736,-0.26351405183605,-0.00431260137639988,,
0.001144089958159,-0.284916564094633,-0.00442223118094587,,
0.00114904272854064,-0.295343833244359,-0.00438851002987528,,
0.00115399549892228,-0.294305047310951,-0.00412682936385878,,
0.00115894826930392,-0.282056405600426,-0.00380953181056487,,
0.00116390103968556,-0.258564747060702,-0.00325418209591932,,
0.0011688538100672,-0.225191663070077,-0.00262619177375889,,
0.00117380658044884,-0.182913664952375,-0.00184147434780035,,
0.00117875935083048,-0.133952117145002,-0.00104188155972196,,
0.00118371212121212,-0.0798873177509053,-0.000162689613297129,,
0.00118866489159376,-0.0231955523573248,0.000677572572808316,,
0.0011936176619754,0.0330789305468392,0.00147508226064952,,
0.00119857043235704,0.0893485848609785,0.002275531987737,,
0.00120352320273868,0.142836190225428,0.00298335674007566,,
0.00120847597312032,0.190891702820734,0.00357146075877424,,
0.00121342874350197,0.231450651880956,0.00401251816504633,,
0.00121838151388361,0.263092615339039,0.00429109718747611,,
0.00122333428426525,0.28436574978843,0.00442220370394386,,
0.00122828705464689,0.294829872441433,0.0043867343286017,,
0.00123323982502853,0.293743652711899,0.00415122894190034,,
0.00123819259541017,0.281616613360453,0.00376594985029444,,
0.00124314536579181,0.258254687673306,0.00326740025133798,,
0.00124809813617345,0.224956908384463,0.00260709697447448,,
0.00125305090655509,0.183191841443873,0.00182530756657284,,
0.00125800367693673,0.134247442231956,0.00102400605241426,,
0.00126295644731837,0.0804366408748951,0.000172564160998867,,
0.00126790921770001,0.0240714088817369,-0.000648989621166773,,
0.00127286198808165,-0.0321498885234782,-0.00147495174488865,,
0.00127781475846329,-0.0888927091557026,-0.00227315350972512,,
0.00128276752884493,-0.14261318747583,-0.00298975716429872,,
0.00128772029922658,-0.190831061410718,-0.00359249440403353,,
0.00129267306960822,-0.231632789137036,-0.00402358452772189,,
0.00129762583998986,-0.263136427692646,-0.00431031906789636,,
0.0013025786103715,-0.285020094745457,-0.0044527804555643,,
0.00130753138075314,-0.295384521216186,-0.00436363475623169,,
0.00131248415113478,-0.294240997484447,-0.00415619884469098,,
0.00131743692151642,-0.281910411760855,-0.00378709512087561,,
0.00132238969189806,-0.258470305520513,-0.00322784023727829,,
0.0013273424622797,-0.225180088655753,-0.00259537459836867,,
0.00133229523266134,-0.183005621188876,-0.00185786781429664,,
0.00133724800304298,-0.13402866449863,-0.00103685670292686,,
0.00134220077342462,-0.0798830572302952,-0.000171073533623556,,
0.00134715354380626,-0.0231643795481945,0.000658376452077114,,
0.0013521063141879,0.0330952270381727,0.001462593963105,,
0.00135705908456954,0.0894005277080828,0.00228860073695536,,
0.00136201185495119,0.142815420187454,0.00300609052485257,,
0.00136696462533283,0.190848352023527,0.00354615443965711,,
0.00137191739571447,0.231537886040447,0.00403146355813133,,
0.00137687016609611,0.262969166754362,0.00431028987358184,,
0.00138182293647775,0.2844144262364,0.00442635273129088,,
0.00138677570685939,0.294687997105118,0.00438076151522715,,
0.00139172847724103,0.293683650379975,0.00415743530979462,,
0.00139668124762267,0.281337016695418,0.00375480792586247,,
0.00140163401800431,0.258292073741659,0.00324562472701606,,
0.00140658678838595,0.225025786800992,0.00259348898908618,,
0.00141153955876759,0.183184137002437,0.00184517687386032,,
0.00141649232914923,0.134362618305781,0.00101963033979846,,
0.00142144509953087,0.0804126399421251,0.000183848622380189,,
0.00142639786991251,0.0241088304544285,-0.000655032844359749,,
0.00143135064029415,-0.0322053463000858,-0.00147989073605181,,
0.0014363034106758,-0.0889039995353192,-0.00227615193760133,,
0.00144125618105744,-0.14271593703121,-0.00298753152711218,,
0.00144620895143908,-0.190851582918323,-0.00359256481385195,,
0.00145116172182072,-0.231815352445177,-0.00404569149338396,,
0.00145611449220236,-0.263444534341429,-0.00431611671538157,,
0.001461067262584,-0.284952139441727,-0.00442645233542427,,
0.00146602003296564,-0.295426984404932,-0.004383243031997,,
0.00147097280334728,-0.294124969306499,-0.00415882633303566,,
0.00147592557372892,-0.281772086858382,-0.00379471827170086,,
0.00148087834411056,-0.258585197559631,-0.00325210071299509,,
0.0014858311144922,-0.225184491193717,-0.00259695280868799,,
0.00149078388487384,-0.182965856329848,-0.00185617282671746,,
0.00149573665525548,-0.134032498967179,-0.00101199345047176,,
0.00150068942563712,-0.0798670802780075,-0.000170068905727128,,
0.00150564219601877,-0.0232542765330667,0.000678633872021717,,
0.00151059496640041,0.0330136380684901,0.00144440418758318,,
0.00151554773678205,0.0893729053327942,0.00227771640941965,,
0.00152050050716369,0.142700279617968,0.00297679317115174,,
0.00152545327754533,0.190902957696013,0.00356705413453051,,
0.00153040604792697,0.231535826788819,0.00402236523574517,,
0.00153535881830861,0.263135078527786,0.00428912914718671,,
0.00154031158869025,0.284466653118211,0.00439132642261075,,
0.00154526435907189,0.294762804746163,0.0043711102181696,,
0.00155021712945353,0.293896747419154,0.00414264581330714,,
0.00155516989983517,0.281461352888555,0.00375117752693344,,
0.00156012267021681,0.25811551066671,0.00326616722085982,,
0.00156507544059845,0.225007963623107,0.00259726364227664,,
0.00157002821098009,0.183195143347346,0.00185293225775895,,
0.00157498098136173,0.134192268490056,0.00106412934502087,,
0.00157993375174338,0.08045357644432,0.000166994916095398,,
0.00158488652212502,0.0240462008014607,-0.000667136463872176,,
0.00158983929250666,-0.0321775108987668,-0.00146276569436887,,
0.0015947920628883,-0.0889015852403068,-0.00226029083802448,,
