Time domain (s),Current (AC) (A),Potential (AC) (V),Frequency (Hz),Column 5
0,-0.407320398108727,-0.00804501047881168,158.49,0.5
0.000197173323238059,-0.358797825941543,-0.00733820754083547,,
0.000394346646476118,-0.29604745822311,-0.00634006797367181,,
0.000591519969714178,-0.222135946679869,-0.00510438850685135,,
0.000788693292952237,-0.139803090098792,-0.00368892126738096,,
0.000985866616190296,-0.0517591476572888,-0.00211435938249505,,
0.00118303993942836,0.0378177300997118,-0.00045367204144231,,
0.00138021326266641,0.126671135952787,0.00118446080885803,,
0.00157738658590447,0.210259461444632,0.00282036667066432,,
0.00177455990914253,0.285891655244921,0.00433069697227939,,
0.00197173323238059,0.350108494157335,0.00567843633963916,,
0.00216890655561865,0.400991891803227,0.00682088143739268,,
0.00236607987885671,0.43629626978639,0.00769604221266684,,
0.00256325320209477,0.455070679906661,0.0082560342579967,,
0.00276042652533283,0.455959140471211,0.00851078761536472,,
0.00295759984857089,0.440023089181359,0.00844691957965615,,
0.00315477317180895,0.407047511763652,0.00802655057231627,,
0.00335194649504701,0.358542052687586,0.00736121283056512,,
0.00354911981828507,0.296408608353489,0.00636495124623604,,
0.00374629314152312,0.222689352802776,0.00511881822894456,,
0.00394346646476118,0.140142085521998,0.00368704328454639,,
0.00414063978799924,0.0523492297617815,0.00211525890303488,,
0.0043378131112373,-0.0373327408369338,0.000492116676780174,,
0.00453498643447536,-0.126374781240019,-0.00116241943952211,,
0.00473215975771342,-0.21007242458985,-0.00281690569787285,,
0.00492933308095148,-0.285448703118829,-0.00434221000421742,,
0.00512650640418954,-0.349951920024915,-0.00563339799023277,,
0.0053236797274276,-0.400907391477794,-0.00681557987523007,,
0.00552085305066566,-0.436758536272581,-0.00767629430909356,,
0.00571802637390372,-0.455251752032588,-0.00822852097849758,,
0.00591519969714178,-0.457030022326548,-0.00849765212259257,,
0.00611237302037983,-0.440697245559224,-0.00841764880737106,,
0.00630954634361789,-0.407566940234695,-0.00803160076730736,,
0.00650671966685595,-0.358560088891502,-0.00734231251216544,,
0.00670389299009401,-0.296239749719977,-0.00634751342774331,,
0.00690106631333207,-0.222167190497676,-0.00513777463753939,,
0.00709823963657013,-0.139723560380737,-0.00371734237707821,,
0.00729541295980819,-0.0517791010954793,-0.00214763125537809,,
0.00749258628304625,0.0378475892483206,-0.000519484537254478,,
0.00768975960628431,0.126695598441956,0.00116578069641049,,
0.00788693292952237,0.210209187301433,0.00278621397397405,,
0.00808410625276043,0.285819794463965,0.00430980649065438,,
0.00828127957599849,0.350063616673576,0.00566783321531394,,
0.00847845289923655,0.400909805772807,0.0068146491934713,,
0.0086756262224746,0.435799209048551,0.00771116579124964,,
0.00887279954571266,0.455272912618285,0.00826642133119959,,
0.00906997286895072,0.455948631187039,0.00853157838108709,,
0.00926714619218878,0.439867722196446,0.00846897756830955,,
0.00946431951542684,0.407201742609736,0.00806949488776532,,
0.0096614928386649,0.358793991472994,0.00736051897407508,,
0.00985866616190296,0.296450361455468,0.00636656331999719,,
0.010055839485141,0.222603858355868,0.00511321751907357,,
0.0102530128083791,0.140106297148874,0.00367564658782804,,
0.0104501861316171,0.0523256548810725,0.00213337395870017,,
0.0106473594548552,-0.037292407908492,0.000469331593002664,,
0.0108445327780933,-0.126309240231301,-0.00118487213695673,,
0.0110417061013313,-0.20995937877633,-0.00280259646582914,,
0.0112388794245694,-0.285503521817345,-0.00433168997647782,,
0.0114360527478074,-0.350004963506511,-0.005682807220043,,
0.0116332260710455,-0.400800026358421,-0.00677720587199016,,
0.0118303993942836,-0.43679602885395,-0.00766796803121439,,
0.0120275727175216,-0.455479263833165,-0.00824489100586501,,
0.0122247460407597,-0.456794344528135,-0.00849811954088686,,
0.0124219193639977,-0.440747732728453,-0.0084344841756181,,
0.0126190926872358,-0.407374577729151,-0.00803661980107862,,
0.0128162660104738,-0.358693301169243,-0.0073295987345654,,
0.0130134393337119,-0.296198564687413,-0.00635573791230515,,
0.01321061265695,-0.222178267851262,-0.00512182217051471,,
0.013407785980188,-0.139680671139929,-0.00370740194802321,,
0.0136049593034261,-0.0517941549349681,-0.00209547983824221,,
0.0138021326266641,0.0378396007721768,-0.000474198975505491,,
0.0139993059499022,0.126587097183753,0.00117898889869528,,
0.0141964792731403,0.210228217626825,0.00280167409372867,,
0.0143936525963783,0.285386037961523,0.00433564952878251,,
0.0145908259196164,0.350037769515208,0.00567500029582391,,
0.0147879992428544,0.400753870718479,0.00681103033716735,,
0.0149851725660925,0.436189472736432,0.00768316224189558,,
0.0151823458893306,0.454630426110288,0.00826114885284168,,
0.0153795192125686,0.456126436913832,0.00853904045447607,,
0.0155766925358067,0.440376996426701,0.00846559969210414,,
0.0157738658590447,0.407228441872226,0.00805136736761192,,
0.0159710391822828,0.358580965442491,0.007341406759382,,
0.0161682125055209,0.296392986444586,0.00636011502495304,,
0.0163653858287589,0.22256096911506,0.00513576993241127,,
0.016562559151997,0.140230171785611,0.0036930802514914,,
0.016759732475235,0.0523293473322679,0.0021267594704848,,
0.0169569057984731,-0.037285094014778,0.000493994659615193,,
0.0171540791217111,-0.126379325795336,-0.0011949434431342,,
0.0173512524449492,-0.210103952442365,-0.00282280555545222,,
0.0175484257681873,-0.285400701253289,-0.00430942009153101,,
0.0177455990914253,-0.350271743105377,-0.00567614287387608,,
0.0179427724146634,-0.400753089623033,-0.00680050615459837,,
0.0181399457379014,-0.436867037530784,-0.00765751448074337,,
0.0183371190611395,-0.455544023746438,-0.00824417637522856,,
0.0185342923843776,-0.456715098844788,-0.0084940145695569,,
0.0187314657076156,-0.440533925602505,-0.00843348701659075,,
0.0189286390308537,-0.407235116687849,-0.00804423144832178,,
0.0191258123540917,-0.3587458475901,-0.00732747146197354,,
0.0193229856773298,-0.296007125294668,-0.00635663535542985,,
0.0195201590005679,-0.222338250400169,-0.0051246308351085,,
0.0197173323238059,-0.139757928580325,-0.00373961226202457,,
0.019914505647044,-0.0517444488611841,-0.00213237264484345,,
0.020111678970282,0.0378202864120778,-0.000476592157171218,,
0.0203088522935201,0.126637939396367,0.0011872362348182,,
0.0205060256167582,0.210342115544467,0.00280911539297124,,
0.0207031989399962,0.285853310559431,0.00433629768215038,,
0.0209003722632343,0.349971021358984,0.00568209674423592,,
0.0210975455864723,0.400769776662089,0.00681322408702778,,
0.0212947189097104,0.436195721499993,0.00770149334868364,,
0.0214918922329485,0.454616508409629,0.00824821902411887,,
0.0216890655561865,0.456245163421499,0.00850894287116377,,
0.0218862388794246,0.440467887533049,0.00845655878358853,,
0.0220834122026626,0.40712136078756,0.00805641548518832,,
0.0222805855259007,0.358564491429466,0.00734728584281497,,
0.0224777588491387,0.296439284101882,0.00635785479782403,,
0.0226749321723768,0.222655552672603,0.00514864990318253,,
0.0228721054956149,0.140235816975419,0.00370529960440713,,
0.0230692788188529,0.0523282111934386,0.00212001202773227,,
0.023266452142091,-0.0373032012273708,0.000488076105304103,,
0.023463625465329,-0.126398640155435,-0.0011610067975667,,
0.0236607987885671,-0.210186890576907,-0.00279196010286942,,
0.0238579721118052,-0.285569062826063,-0.00434636483349848,,
0.0240551454350432,-0.34990448622879,-0.00568677923683536,,
0.0242523187582813,-0.401121553647126,-0.00680331274177792,,
0.0244494920815193,-0.436651739222623,-0.0076590434579189,,
0.0246466654047574,-0.455675247781227,-0.00822745734220165,,
0.0248438387279955,-0.456733490092088,-0.00848971016642164,,
0.0250410120512335,-0.440648391589562,-0.00840940354866282,,
0.0252381853744716,-0.40737685000681,-0.00800789954367342,,
0.0254353586977096,-0.35823600529043,-0.00732198708732223,,
0.0256325320209477,-0.296148006509507,-0.00635467427600922,,
0.0258297053441858,-0.2220491030681,-0.00508806833743547,,
0.0260268786674238,-0.13982780111833,-0.00368945308552915,,
0.0262240519906619,-0.0518403815835872,-0.00214892548469914,,
0.0264212253138999,0.0378029602949303,-0.000484885196416318,,
0.026618398637138,0.126728546468007,0.00116725981563448,,
0.026815571960376,0.210315416281977,0.0028104158545359,,
0.0270127452836141,0.285840493493262,0.00432961671666643,,
0.0272099186068522,0.350162176717022,0.00569024020962683,,
0.0274070919300902,0.400490002475362,0.00682414297837841,,
0.0276042652533283,0.435955144102879,0.0076872672132251,,
0.0278014385765663,0.45469745830122,0.00826320964816496,,
0.0279986118998044,0.456133821816223,0.00851417795605824,,
0.0281957852230425,0.439869142369983,0.00843571815991462,,
0.0283929585462805,0.407109431329852,0.00804378064934452,,
0.0285901318695186,0.358681797763596,0.00734697007578955,,
0.0287873051927566,0.296203819329499,0.00636172709871419,,
0.0289844785159947,0.222635102173675,0.00511554422347116,,
0.0291816518392328,0.140190690961291,0.00368941984689508,,
0.0293788251624708,0.0523403891815156,0.00214886316225993,,
0.0295759984857089,-0.0373009289497121,0.00049545715952215,,
0.0297731718089469,-0.126367680372335,-0.00119830054519321,,
0.029970345132185,-0.210070152312192,-0.00283088254357455,,
0.0301675184554231,-0.285647811448672,-0.00434721449608633,,
0.0303646917786611,-0.350026621152945,-0.00566098397924408,,
0.0305618651018992,-0.400965263549414,-0.00678573158167506,,
0.0307590384251372,-0.436753423647849,-0.00766998104600125,,
0.0309562117483753,-0.455274758843882,-0.00824301302302999,,
0.0311533850716133,-0.45689517684924,-0.00849951556352524,,
0.0313505583948514,-0.440816753162336,-0.00843355349385888,,
0.0315477317180895,-0.40743649729535,-0.00802595019948482,,
0.0317449050413275,-0.358642174921922,-0.00734645072212903,,
0.0319420783645656,-0.296108596693864,-0.00634930623657803,,
0.0321392516878036,-0.222058121170058,-0.00511999404563079,,
0.0323364250110417,-0.139653403808025,-0.0037100132582264,,
0.0325335983342798,-0.0518395294794652,-0.00216183869410447,,
0.0327307716575178,0.0378632111572241,-0.00049518709561891,,
0.0329279449807559,0.126764334841132,0.00118419489978416,,
0.0331251183039939,0.210366542529298,0.00279452363253618,,
0.033322291627232,0.28563687611244,0.00430138049687256,,
0.0335194649504701,0.349796624048679,0.00569614006720576,,
0.0337166382737081,0.400531755577341,0.00680938502477213,,
0.0339138115969462,0.436201970263554,0.00767450357767352,,
0.0341109849201842,0.454760514006249,0.00826553635256255,,
0.0343081582434223,0.45627385092694,0.00853638136373602,,
0.0345053315666604,0.440004058855968,0.00844165125612806,,
0.0347025048898984,0.407051204214848,0.00807421477382864,,
0.0348996782131365,0.35852245429278,0.00734869848477038,,
0.0350968515363745,0.296361458592071,0.00637271246733295,,
0.0352940248596126,0.222741899223634,0.00512234152417479,,
0.0354911981828507,0.140116557902676,0.00370667485289911,,
0.0356883715060887,0.05228219757085,0.00212463219789294,,
0.0358855448293268,-0.0373125743727129,0.000483424773924046,,
0.0360827181525648,-0.126418593593626,-0.00120132526090977,,
0.0362798914758029,-0.21016956445976,-0.00280322799987953,,
0.0364770647990409,-0.285631337435647,-0.00433057648223034,,
0.036674238122279,-0.350070859558613,-0.00565844330113885,,
0.0368714114455171,-0.4009579496557,-0.00681393248542017,,
0.0370685847687551,-0.436731268940677,-0.0076730701615717,,
0.0372657580919932,-0.455795323453754,-0.00823460364856476,,
0.0374629314152312,-0.456660280146272,-0.00851199667068547,,
0.0376601047384693,-0.440518800754339,-0.00842409710241521,,
0.0378572780617074,-0.407558064150091,-0.00804213741436399,,
0.0380544513849454,-0.358733350062978,-0.00732240049283561,,
0.0382516247081835,-0.296027646802273,-0.00634618180495883,,
0.0384487980314215,-0.222238767243925,-0.00513343699577007,,
0.0386459713546596,-0.139625284371999,-0.00369168215143834,,
0.0388431446778977,-0.0518071495228288,-0.00215728500121237,,
0.0390403180011357,0.0378669036084195,-0.000501369481588743,,
0.0392374913243738,0.126732238919202,0.0011647336794316,,
0.0394346646476118,0.210259177409924,0.00279964653703946,,
0.0396318379708499,0.285978001795951,0.00431023443807055,,
0.039829011294088,0.350014762703914,0.00566853538146272,,
0.040026184617326,0.400758131239089,0.00681317422907668,,
0.0402233579405641,0.436199697985896,0.00766255428866147,,
0.0404205312638021,0.454996262813338,0.00825524899526275,,
0.0406177045870402,0.456072754354146,0.00849720963327405,,
0.0408148779102782,0.440102618899414,0.00844266503447244,,
0.0410120512335163,0.407212535928615,0.00804928579814224,,
0.0412092245567544,0.358420769867553,0.00736074748968552,,
0.0414063978799924,0.296397530999903,0.00638168689858043,,
0.0416035712032305,0.222625196463257,0.00515044894426131,,
0.0418007445264685,0.140201448775832,0.00369613820584247,,
0.0419979178497066,0.0523878584819793,0.00216018091722159,,
0.0421950911729447,-0.0373793225289371,0.000483175484167209,,
0.0423922644961827,-0.126385645567574,-0.00117983648386844,,
0.0425894378194208,-0.209971876303453,-0.00283723112271606,,
0.0427866111426588,-0.285475970450733,-0.00433386710702077,,
0.0429837844658969,-0.349863798256964,-0.0056344616265287,,
0.043180957789135,-0.40070203438439,-0.00680263342719023,,
0.043378131112373,-0.43668724356104,-0.00766142209768228,,
0.0435753044356111,-0.455504542922118,-0.00822707509790765,,
0.0437724777588491,-0.456730720753692,-0.00851104936960922,,
0.0439696510820872,-0.440940379268704,-0.00842414696036675,,
0.0441668244053253,-0.407440757815961,-0.00803987718723498,,
0.0443639977285633,-0.358595025160504,-0.00733011393339611,,
0.0445611710518014,-0.296132384600604,-0.00633383572974999,,
0.0447583443750394,-0.222156752222181,-0.0051476153506913,,
0.0449555176982775,-0.139689192181149,-0.00369975706214598,,
0.0451526910215156,-0.0518403815835872,-0.0020955442380961,,
0.0453498643447536,0.0378225586897365,-0.000484567351976217,,
0.0455470376679917,0.126791318138329,0.0011776635081544,,
0.0457442109912297,0.210337002919735,0.00283248215284759,,
0.0459413843144678,0.285812977630989,0.00433119555179351,,
0.0461385576377059,0.349974429775472,0.00566150125548992,,
0.0463357309609439,0.400714673928866,0.00680951797930929,,
0.046532904284182,0.435980423191832,0.00768639885390554,,
0.04673007760742,0.454937183594212,0.00826949175003788,,
0.0469272509306581,0.456088092228342,0.00853423747182713,,
0.0471244242538961,0.440213108400568,0.00844356247759714,,
0.0473215975771342,0.407210831720371,0.00803784755313153,,
0.0475187709003723,0.358842277373241,0.00734120317274733,,
0.0477159442236103,0.296398099069318,0.00636408704174585,,
0.0479131175468484,0.222494504993543,0.00514351453419115,,
0.0481102908700864,0.140154334518752,0.00369484605393611,,
0.0483074641933245,0.0523333238181706,0.00213840545695954,,
0.0485046375165626,-0.0373555346221976,0.000491333491460466,,
0.0487018108398006,-0.126410569613143,-0.00118409102905215,,
0.0488989841630387,-0.210032659730823,-0.00282661137907336,,
0.0490961574862767,-0.2856682619476,-0.00431975730678236,,
0.0492933308095148,-0.350035639254903,-0.00569126645245932,,
0.0494905041327529,-0.400776451477712,-0.00680052277391541,,
0.0496876774559909,-0.436635549244304,-0.0077050976630848,,
0.049884850779229,-0.455462718811462,-0.00825280180081611,,
0.050082024102467,-0.456492983703651,-0.00849964851806195,,
0.0502791974257051,-0.440472006036306,-0.00842530823515064,,
0.0504763707489432,-0.407611817718454,-0.00805237283629801,,
0.0506735440721812,-0.358459256570397,-0.00731656918993995,,
0.0508707173954193,-0.2960741574856,-0.00633539586814535,,
0.0510678907186573,-0.222263265237432,-0.00511284773926768,,
0.0512650640418954,-0.139704814090053,-0.0036922451308059,,
0.0514622373651334,-0.0517404013666046,-0.00215283310163761,,
0.0516594106883715,0.0378847977949818,-0.000501236527052029,,
0.0518565840116096,0.126716332975592,0.00116282245796251,,
0.0520537573348476,0.210433574720229,0.00281275502342115,,
0.0522509306580857,0.285849618108235,0.00434105080684777,,
0.0524481039813237,0.350038905654038,0.00568471844151208,,
0.0526452773045618,0.400497387377753,0.00680677579198363,,
0.0528424506277999,0.436472939374354,0.00768615371897763,,
0.0530396239510379,0.454921561685309,0.00824642413786947,,
0.053236797274276,0.456339178909628,0.00850088665718785,,
0.053433970597514,0.440002354647724,0.00845895196525426,,
0.0536311439207521,0.407412212327873,0.00805121779375773,,
0.0538283172439902,0.358582953685443,0.00733728516873544,,
0.0540254905672282,0.296404631867586,0.00635014758950758,,
0.0542226638904663,0.222672026685629,0.00512912636039076,,
0.0544198372137043,0.140237805218371,0.00369111917207077,,
0.0546170105369424,0.0523932551414188,0.00210882722730776,,
0.0548141838601805,-0.0372963843943947,0.000488510284964327,,
0.0550113571834185,-0.126401196467801,-0.00118131560309243,,
0.0552085305066566,-0.210023854654896,-0.00281379788557068,,
0.0554057038298946,-0.285554364029958,-0.00432539125528741,,
0.0556028771531327,-0.35009223317034,-0.00567180523210675,,
0.0558000504763707,-0.401170123582081,-0.00680373030212067,,
0.0559972237996088,-0.436556516586988,-0.0076830749904806,,
0.0561943971228469,-0.455337814548911,-0.00825270208491302,,
0.0563915704460849,-0.456836949734236,-0.00850696101759674,,
0.056588743769323,-0.440640935678494,-0.00843252309619746,,
0.056785917092561,-0.407281769388529,-0.00805461644410954,,
0.0569830904157991,-0.358896954054404,-0.00733506441248455,,
0.0571802637390372,-0.296125567767628,-0.00633650936239238,,
0.0573774370622752,-0.222053008545326,-0.00513566606167926,,
0.0575746103855133,-0.139712980087889,-0.0037051417208942,,
0.0577717837087513,-0.0517563783188923,-0.00214398954751305,,
0.0579689570319894,0.037855790750495,-0.000502433117884671,,
0.0581661303552275,0.126724250443059,0.0011977562625578,,
0.0583633036784655,0.210444368039108,0.00280625687042591,,
0.0585604770017036,0.285797639756792,0.00433742779571489,,
0.0587576503249416,0.34996079610952,0.00569645583423117,,
0.0589548236481797,0.400896456141562,0.0068251692212109,,
0.0591519969714178,0.435961108831733,0.00769654079218052,,
0.0593491702946558,0.454954225676652,0.00826822868193666,,
0.0595463436178939,0.456278679516965,0.00849968591152583,,
0.0597435169411319,0.440038711090263,0.00845446474963074,,
0.05994069026437,0.407259685690033,0.0080619538726201,,
0.0601378635876081,0.358652258154033,0.0073553628309373,,
0.0603350369108461,0.29649381876569,0.00637163221171999,,
0.0605322102340842,0.222547335449108,0.00512036798026649,,
0.0607293835573222,0.140214514372369,0.00371114544920559,,
0.0609265568805603,0.0523489457270742,0.00214841444069735,,
0.0611237302037983,-0.0372935440473213,0.000484172643194558,,
0.0613209035270364,-0.126325430209619,-0.00118791347199076,,
0.0615180768502745,-0.210037488320848,-0.00281527700479467,,
0.0617152501735125,-0.285462336784781,-0.00432585867358171,,
0.0619124234967506,-0.349895894178893,-0.00566321304515327,,
0.0621095968199886,-0.40080655915669,-0.00679239592784198,,
0.0623067701432267,-0.437080915665409,-0.00767862101349115,,
0.0625039434664648,-0.4553838281715,-0.00825100691456671,,
0.0627011167897028,-0.45693891819417,-0.00847510178666955,,
0.0628982901129409,-0.440873063043065,-0.00842772011354853,,
0.0630954634361789,-0.407273461373339,-0.00804163675743563,,
0.063292636759417,-0.358673418739729,-0.00733493353536208,,
0.0634898100826551,-0.29621141725792,-0.00636188705964136,,
0.0636869834058931,-0.22227767999883,-0.00514452415770617,,
0.0638841567291312,-0.139806214480572,-0.00369335862505338,,
0.0640813300523692,-0.0518009007592674,-0.00215058949382607,,
0.0642785033756073,0.0379370601811318,-0.000490219997212993,,
0.0644756766988454,0.126644188159928,0.00119191872741764,,
0.0646728500220834,0.210386140924104,0.00279899422884267,,
0.0648700233453215,0.285870636676578,0.00435830165802287,,
0.0650671966685595,0.350133205176873,0.00567634230568181,,
0.0652643699917976,0.400518974015511,0.00680976311423676,,
