Time domain (s),Current (AC) (A),Potential (AC) (V),Frequency (Hz),Column 5
0,0.430589906002974,0.00797876380334017,251.19,0.5
0.000124407818782595,0.392255445761939,0.00748887619246963,,
0.00024881563756519,0.338711210977714,0.00672707993412924,,
0.000373223456347785,0.27224595332202,0.00570548635567381,,
0.000497631275130379,0.195270275356027,0.00442450263037264,,
0.000622039093912974,0.110481654695314,0.00302346511299545,,
0.000746446912695569,0.021889809303358,0.00149091478438512,,
0.000870854731478164,-0.0679614459809302,-9.79750292762205E-05,,
0.000995262550260759,-0.15571048938754,-0.00169505816628002,,
0.00111967036904335,-0.236924036195679,-0.00319698117084544,,
0.00124407818782595,-0.309217331002545,-0.00462271707088391,,
0.00136848600660854,-0.369084036354738,-0.00584687935093697,,
0.00149289382539114,-0.415047313791461,-0.00684049846384305,,
0.00161730164417373,-0.444875005556429,-0.00753460424353625,,
0.00174170946295633,-0.458209227918396,-0.00797290341663892,,
0.00186611728173892,-0.453587983230023,-0.00810812025817631,,
0.00199052510052152,-0.431358858964412,-0.00793800285067814,,
0.00211493291930411,-0.392583576857591,-0.00745606135080745,,
0.00223934073808671,-0.338737981248881,-0.00664148214128035,,
0.0023637485568693,-0.272024974319712,-0.00566481265442631,,
0.0024881563756519,-0.194826400117136,-0.00443084705468477,,
0.00261256419443449,-0.110106586864275,-0.00298626277161285,,
0.00273697201321709,-0.0212834662118703,-0.00144480656643831,,
0.00286137983199968,0.0682792098097635,0.000117095553628044,,
0.00298578765078228,0.156063260494053,0.00168666125630335,,
0.00311019546956487,0.237078764102501,0.00326275004095011,,
0.00323460328834747,0.308914550004523,0.00463595435697339,,
0.00335901110713006,0.368991867092207,0.00586335324903686,,
0.00348341892591266,0.414629143693585,0.00684763230571894,,
0.00360782674469525,0.444525216814343,0.00759056979395245,,
0.00373223456347785,0.457236906106505,0.00801974288453922,,
0.00385664238226044,0.452698883587381,0.00816385729298208,,
0.00398105020104304,0.430759190688547,0.00797590528079484,,
0.00410545801982563,0.392172791662104,0.00750471855651824,,
0.00422986583860822,0.338674854535175,0.00672632791002936,,
0.00435427365739082,0.272271800480388,0.00568127616545322,,
0.00447868147617341,0.195200686852729,0.00442934300648501,,
0.00460308929495601,0.110546698643294,0.00300108304765834,,
0.0047274971137386,0.0219457641407034,0.00147710413185509,,
0.0048519049325212,-0.0679375870655139,-0.0001264771581444,,
0.00497631275130379,-0.155681020786654,-0.00174332066320915,,
0.00510072057008639,-0.236998453289001,-0.00325152369223236,,
0.00522512838886898,-0.309052945915673,-0.00462881428285389,,
0.00534953620765158,-0.368935770237508,-0.00585402565730053,,
0.00547394402643417,-0.415160359604982,-0.00684854013591663,,
0.00559835184521677,-0.445039958712715,-0.00758745367199154,,
0.00572275966399936,-0.457837355477815,-0.00802173304776455,,
0.00584716748278196,-0.453199139715678,-0.00812266423807451,,
0.00597157530156455,-0.430898722738526,-0.00795410904638594,,
0.00609598312034715,-0.392389581152479,-0.00747589027355122,,
0.00622039093912974,-0.338668108710876,-0.00671159904022778,,
0.00634479875791234,-0.272001754482387,-0.00566456544208416,,
0.00646920657669493,-0.194801689097598,-0.00439674629336029,,
0.00659361439547753,-0.110080739705908,-0.00298228867740535,,
0.00671802221426012,-0.0213155621337994,-0.00144801409464312,,
0.00684243003304272,0.06826784842147,0.00013125313440332,,
0.00696683785182531,0.15598997953956,0.00173435454162085,,
0.00709124567060791,0.237206011651388,0.00326734943696438,,
0.0072156534893905,0.309074177510047,0.00464682339037292,,
0.0073400613081731,0.368699027308943,0.00585709192131034,,
0.00746446912695569,0.414633120179487,0.00684034058033056,,
0.00758887694573829,0.444258792258861,0.00757479806200179,,
0.00771328476452088,0.457129825021839,0.00802307090279353,,
0.00783769258330348,0.452613105105765,0.00815629134886109,,
0.00796210040208607,0.430607800189536,0.00796676050154721,,
0.00808650822086867,0.392247776824841,0.00750303585065915,,
0.00821091603965126,0.338813747507063,0.00670627254908984,,
0.00833532385843386,0.272352466337272,0.00568283838126282,,
0.00845973167721645,0.19532225370747,0.00443472766523323,,
0.00858413949599905,0.110555503719221,0.0030143577272117,,
0.00870854731478164,0.0219054312122616,0.00148385157460718,,
0.00883295513356423,-0.0679502976186672,-0.000115408692939578,,
0.00895736295234683,-0.155701471285582,-0.00169721867750638,,
0.00908177077112942,-0.236839961922307,-0.00323531985803616,,
0.00920617858991202,-0.309063952260583,-0.00462961408749019,,
0.00933058640869461,-0.369200135541362,-0.00584134511833456,,
0.00945499422747721,-0.415039857880394,-0.0068337323243588,,
0.0095794020462598,-0.445040242747422,-0.00756343875874688,,
0.0097038098650424,-0.457981077039728,-0.00800375094663597,,
0.00982821768382499,-0.453291450995563,-0.00809643687823813,,
0.00995262550260759,-0.430888852532446,-0.0079343320590084,,
0.0100770333213902,-0.392342715425769,-0.00744836660697867,,
0.0102014411401728,-0.338891359990843,-0.00667696438334087,,
0.0103258489589554,-0.271859169059304,-0.00566665947604195,,
0.010450256777738,-0.194697164325298,-0.00443899052007524,,
0.0105746645965206,-0.110045732428228,-0.00300977910534339,,
0.0106990724153032,-0.0213166982726287,-0.00147192721457046,,
0.0108234802340858,0.0682817661221295,0.000138301802278917,,
0.0109478880528683,0.155903348953822,0.00171969630391722,,
0.0110722958716509,0.237204875512558,0.00323363299734858,,
0.0111967036904335,0.309029868095702,0.00462383887479012,,
0.0113211115092161,0.369019134424112,0.00587909589718283,,
0.0114455193279987,0.414420662218399,0.00683922293125416,,
0.0115699271467813,0.44436984982943,0.00759191595863973,,
0.0116943349655639,0.457324104761657,0.00804349188870956,,
0.0118187427843465,0.452784093999582,0.00815330402660797,,
0.0119431506031291,0.431131844224573,0.00792431476561184,,
0.0120675584219117,0.39202708185724,0.00750780559467401,,
0.0121919662406943,0.338794149112257,0.00671780220034446,,
0.0123163740594769,0.27228969466695,0.00566945567614852,,
0.0124407818782595,0.195253801343001,0.00441481772331853,,
0.0125651896970421,0.110610606452445,0.00300034764287593,,
0.0126895975158247,0.0218875370256993,0.00147605711487619,,
0.0128140053346073,-0.0680088797770555,-0.000135401731440332,,
0.0129384131533899,-0.155733567207511,-0.0017110459493539,,
0.0130628209721725,-0.236912958842093,-0.00322408519966011,,
0.0131872287909551,-0.309193259061098,-0.00463366920086861,,
0.0133116366097376,-0.369256161387385,-0.00584073020360121,,
0.0134360444285202,-0.415430476611659,-0.00682636996687291,,
0.0135604522473028,-0.445257529298535,-0.00755313478213004,,
0.0136848600660854,-0.457666437592675,-0.00799088759518218,,
0.013809267884868,-0.45333661251403,-0.00812505534232599,,
0.0139336757036506,-0.431289057435084,-0.00795327808052981,,
0.0140580835224332,-0.392800863408703,-0.00745918578242666,,
0.0141824913412158,-0.338703897084,-0.0066674082759941,,
0.0143068991599984,-0.271894389363014,-0.00564304342640831,,
0.014431306978781,-0.194828601386118,-0.00441264890243342,,
0.0145557147975636,-0.110093450259061,-0.00301694203102398,,
0.0146801226163462,-0.0213076091619939,-0.0014681733263151,,
0.0148045304351288,0.0682831862956662,0.000113705212934967,,
0.0149289382539114,0.156102173248958,0.00169944151117196,,
0.015053346072694,0.237169939243556,0.00320644379453316,,
0.0151777538914766,0.309048046316972,0.00463155023793549,,
0.0153021617102592,0.369001524272257,0.00584163180155528,,
0.0154265695290418,0.414816606600427,0.00682943830829741,,
0.0155509773478244,0.44441359117436,0.00756579039212024,,
0.015675385166607,0.457433174089275,0.00801557143594112,,
0.0157997929853895,0.452476484411536,0.00814346123604137,,
0.0159242008041721,0.43070976864947,0.00797829846246056,,
0.0160486086229547,0.392128198213052,0.00747629536940631,,
0.0161730164417373,0.338612082864854,0.00667223618761925,,
0.0162974242605199,0.272394823013003,0.0056730496034767,,
0.0164218320793025,0.195315188344125,0.00441210877462739,,
0.0165462398980851,0.110603505584761,0.00300545392806217,,
0.0166706477168677,0.0219079875246276,0.0014753923421913,,
0.0167950555356503,-0.0679193378355675,-0.000122787669742941,,
0.0169194633544329,-0.155727602478657,-0.00170223771127809,,
0.0170438711732155,-0.237062077063445,-0.00325534821258566,,
0.0171682789919981,-0.309023903366848,-0.0046126790033405,,
0.0172926868107807,-0.369189697265868,-0.0058540588959346,,
0.0174170946295633,-0.414989938780579,-0.00684601607712843,,
0.0175415024483459,-0.445039674678008,-0.00755938364536846,,
0.0176659102671285,-0.457895653601496,-0.00798287916174267,,
0.0177903180859111,-0.45341869854445,-0.00812886324336182,,
0.0179147259046937,-0.43099621765182,-0.00795708182673671,,
0.0180391337234763,-0.392422032117793,-0.00746593322517919,,
0.0181635415422588,-0.338769793136102,-0.00668688403824946,,
0.0182879493610414,-0.272040667237292,-0.00565004015891768,,
0.018412357179824,-0.194825548013014,-0.00443220983868864,,
0.0185367649986066,-0.110017044922787,-0.00299131504401862,,
0.0186611728173892,-0.0213338113637458,-0.00146370065259394,,
0.0187855806361718,0.0683107376622779,0.000117145411579589,,
0.0189099884549544,0.156001624962561,0.00171581153853939,,
0.019034396273737,0.237164258549409,0.00324518342275004,,
0.0191588040925196,0.308908869310377,0.00463887935678731,,
0.0192832119113022,0.368990446918671,0.0058371612052488,,
0.0194076197300848,0.41468935905154,0.00683799725661638,,
0.0195320275488674,0.444450515686314,0.00755590189843147,,
0.01965643536765,0.45731103916512,0.00805018947351099,,
0.0197808431864326,0.452657982589525,0.00815747547520607,,
0.0199052510052152,0.430714313204788,0.00794555425289678,,
0.0200296588239978,0.39242927500283,0.00747749196023939,,
0.0201540666427804,0.338787332279281,0.00668647894239482,,
0.020278474461563,0.272244249113776,0.00568963568196645,,
0.0204028822803456,0.195299850469928,0.00440545689294858,,
0.0205272900991282,0.110619411528372,0.00300006511448458,,
0.0206516979179107,0.0218841286092113,0.00146623094362619,,
0.0207761057366933,-0.0679801922716144,-0.000149725505386833,,
0.0209005135554759,-0.155761686643538,-0.00171127861979326,,
0.0210249213742585,-0.236897833993927,-0.00324555735738485,,
0.0211493291930411,-0.309046697152112,-0.00464154467977096,,
0.0212737370118237,-0.368948764825369,-0.00584752958171952,,
0.0213981448306063,-0.415188195006301,-0.00682761849307179,,
0.0215225526493889,-0.445176650415621,-0.00757184813321166,,
0.0216469604681715,-0.458184516898858,-0.00801410685861903,,
0.0217713682869541,-0.453354222665884,-0.00812766457511449,,
0.0218957761057367,-0.431064314972904,-0.00796258282070461,,
0.0220201839245193,-0.392381344145967,-0.00746809373640511,,
0.0221445917433019,-0.338577217604528,-0.00669803767745414,,
0.0222689995620845,-0.271944024428121,-0.00568761643493554,,
0.0223934073808671,-0.19480992610411,-0.00442616040725552,,
0.0225178151996497,-0.110094302363183,-0.00299101381889555,,
0.0226422230184323,-0.0212980229906213,-0.00146094392336593,,
0.0227666308372149,0.0683246553629374,0.000122214303302393,,
0.0228910386559975,0.15593143288551,0.00170608508319248,,
0.02301544647478,0.237064278332427,0.00324549918977501,,
0.0231398542935626,0.309004873041456,0.00465398631605352,,
0.0232642621123452,0.368995275508696,0.00588190040694725,,
0.0233886699311278,0.414561827467946,0.0068433611412182,,
0.0235130777499104,0.44444767533924,0.00758669749306273,,
0.023637485568693,0.457258492744262,0.00802000879361309,,
0.0237618933874756,0.45260089161335,0.00814194887818287,,
0.0238863012062582,0.430827074983601,0.0079721493151248,,
0.0240107090250408,0.392118541033003,0.00747920790473255,,
0.0241351168438234,0.338944403472438,0.00671582450160679,,
0.024259524662606,0.272160210344743,0.00565837059162666,,
0.0243839324813886,0.195182224596752,0.00442736530774734,,
0.0245083403001712,0.110568853350466,0.0030135101420381,,
0.0246327481189538,0.021937811168898,0.00148561322222251,,
0.0247571559377364,-0.0679302021631231,-0.000109891079654645,,
0.024881563756519,-0.155687269550215,-0.00170258879435226,,
0.0250059715753016,-0.237058100577542,-0.00322320437585288,,
0.0251303793940842,-0.308980517065302,-0.00462206891751604,,
0.0252547872128668,-0.369165767341775,-0.00583998441174494,,
0.0253791950316494,-0.414987666502921,-0.00683228852118356,,
0.0255036028504319,-0.444966677758222,-0.00756694543466008,,
0.0256280106692145,-0.45799875820026,-0.00799934682759806,,
0.0257524184879971,-0.453431693132311,-0.00813592437572508,,
0.0258768263067797,-0.431409701177026,-0.00792557367888369,,
0.0260012341255623,-0.392347899059178,-0.00745602811217294,,
0.0261256419443449,-0.338577785673943,-0.00667339123015909,,
0.0262500497631275,-0.272020997833809,-0.00564591856827112,,
0.0263744575819101,-0.194726987969568,-0.00439980217029667,,
0.0264988654006927,-0.110008594890244,-0.00299706325032867,,
0.0266232732194753,-0.0212914191836757,-0.00147040031480961,,
0.0267476810382579,0.0682374922121234,8.90587656394715E-05,,
0.0268720888570405,0.155876046117579,0.00171441136107164,,
0.0269964966758231,0.237198910783704,0.00325786396171557,,
0.0271209044946057,0.309128712173855,0.00463414285140695,,
0.0272453123133883,0.368812925226585,0.00585508098393817,,
0.0273697201321709,0.41443656816201,0.00684858376162456,,
0.0274941279509535,0.444171309569001,0.00756339721045451,,
0.0276185357697361,0.457078130705103,0.00802660666251143,,
0.0277429435885187,0.4525486292272,0.00814811464483611,,
0.0278673514073012,0.430501287174285,0.00797640386030851,,
0.0279917592260838,0.392396895046193,0.00747840602268113,,
0.0281161670448664,0.338687352062298,0.00672511885470861,,
0.028240574863649,0.272275776966291,0.00568975201718658,,
0.0283649826824316,0.195238747503512,0.0044189226946485,,
0.0284893905012142,0.110573681940491,0.00300103318970724,,
0.0286137983199968,0.0218773117762352,0.00147444088628568,,
0.0287382061387794,-0.0679917666859384,-0.000133324316799577,,
0.028862613957562,-0.155663978704214,-0.0016957894162335,,
0.0289870217763446,-0.237086149004892,-0.00324251602235126,,
0.0291114295951272,-0.308996352000236,-0.00465155158609409,,
0.0292358374139098,-0.368912124348123,-0.00583320165294365,,
0.0293602452326924,-0.414799919561371,-0.00683188965757298,,
0.029484653051475,-0.444941114634562,-0.00757302810472771,,
0.0296090608702576,-0.457906375911698,-0.00799795288237437,,
0.0297334686890402,-0.453365868088885,-0.00814616187507378,,
0.0298578765078228,-0.431427311328881,-0.00793719058155373,,
0.0299822843266054,-0.3923487511633,-0.00745787493378858,,
0.030106692145388,-0.338687991140389,-0.00670879037563354,,
0.0302310999641706,-0.271990109059386,-0.00567230796644935,,
0.0303555077829531,-0.194802257167012,-0.00440749691412501,,
0.0304799156017357,-0.110140600020479,-0.00299884359467573,,
0.0306043234205183,-0.0213394210492157,-0.00148216679133339,,
0.0307287312393009,0.0682846064692029,0.000117376004604708,,
0.0308531390580835,0.155903632988529,0.00170324733479355,,
0.0309775468768661,0.237281564883539,0.00324752674646422,,
0.0311019546956487,0.309147742499247,0.00462819313587648,,
0.0312263625144313,0.368864619543321,0.00584299874038896,,
0.0313507703332139,0.41459335532046,0.00682578205853002,,
0.0314751781519965,0.444625481066033,0.00757127476677111,,
0.0315995859707791,0.456964232787461,0.00798844871039428,,
0.0317239937895617,0.452467963370316,0.00811657533576371,,
0.0318484016083443,0.430444764267525,0.00794005741375781,,
0.0319728094271269,0.392285553440917,0.00748576838016701,,
0.0320972172459095,0.338715471498324,0.00669134840231189,,
0.0322216250646921,0.272161310979234,0.00565790940557642,,
0.0323460328834747,0.195208675328873,0.00442803008043224,,
0.0324704407022573,0.110606629966542,0.00300557026328185,,
0.0325948485210399,0.0219525809736795,0.00146330594381272,,
0.0327192563398225,-0.0679708191262723,-0.000121142357347725,,
0.032843664158605,-0.155706583910314,-0.00170697421665844,,
0.0329680719773876,-0.236955564048193,-0.00324279855074217,,
0.0330924797961702,-0.308971711989375,-0.00463917019483651,,
0.0332168876149528,-0.369139352113992,-0.00583615989139208,,
0.0333412954337354,-0.415400937002096,-0.00683787053432283,,
0.033465703252518,-0.445052456239838,-0.00754693577684273,,
0.0335901110713006,-0.457927181454011,-0.00798718356487793,,
0.0337145188900832,-0.453200843923922,-0.00814152508559607,,
0.0338389267088658,-0.431118281567298,-0.00793662344735679,,
0.0339633345276484,-0.392658846055035,-0.00745416674865496,,
0.034087742346431,-0.338613574047067,-0.00669444790495533,,
0.0342121501652136,-0.271858032920475,-0.00565507373459173,,
0.0343365579839962,-0.194830589629069,-0.00442828767984738,,
0.0344609658027788,-0.110064194684205,-0.00299588535622775,,
0.0345853736215614,-0.0212837502465776,-0.00144942673659898,,
0.034709781440344,0.0683553311113298,0.000110514304047182,,
0.0348341892591266,0.155947906898536,0.00171348067931287,,
0.0349585970779092,0.237344052519154,0.00322984379304403,,
0.0350830048966918,0.309046626143435,0.00462847566426783,,
0.0352074127154743,0.368870868306882,0.00584987498284884,,
0.0353318205342569,0.414615510027632,0.00683950545964507,,
0.0354562283530395,0.444622356684253,0.00759824791846375,,
0.0355806361718221,0.457000873264708,0.00799700765871325,,
0.0357050439906047,0.452871576689442,0.0081438600996524,,
0.0358294518093873,0.430590190037681,0.00797944104051318,,
0.0359538596281699,0.392410528712145,0.00748679877782887,,
0.0360782674469525,0.338713483255373,0.00672184484923521,,
0.0362026752657351,0.272178956635427,0.0056749940635803,,
0.0363270830845177,0.195271411494856,0.0044214322115339,,
0.0364514909033003,0.11053871016715,0.00300121600219549,,
0.0365758987220829,0.0219307103012145,0.0014555114840813,,
0.0367003065408655,-0.067973943508053,-0.000115874033819185,,
0.0368247143596481,-0.155721069680389,-0.00171473543775535,,
0.0369491221784307,-0.237195218332509,-0.00323061659129031,,
0.0370735299972133,-0.309135529006831,-0.00461053511143161,,
0.0371979378159959,-0.369120392797277,-0.0058459486691782,,
0.0373223456347785,-0.414693974615534,-0.00683775627651739,,
0.037446753453561,-0.445096552628152,-0.00755481333315933,,
0.0375711612723436,-0.457805259555886,-0.00799206756669779,,
0.0376955690911262,-0.453415290127962,-0.00810981750593776,,
0.0378199769099088,-0.430871739441329,-0.00795105109203531,,
0.0379443847286914,-0.392383971467009,-0.0074600998448684,,
0.038068792547474,-0.338718666888782,-0.0066995978158495,,
0.0381932003662566,-0.272021281868517,-0.00565966274353258,,
0.0383176081850392,-0.194747722503204,-0.00441607248176101,,
0.0384420160038218,-0.110148624000961,-0.00300583824977041,,
0.0385664238226044,-0.021283182177163,-0.001473073947452,,
0.038690831641387,0.0682789257750561,0.000103268281780977,,
0.0388152394601696,0.156017814940879,0.00172360184344145,,
0.0389396472789522,0.237188969568948,0.00323235330992988,,
0.0390640550977348,0.308917106316889,0.00461881984101842,,
0.0391884629165174,0.368762083013972,0.00586709259538987,,
0.0393128707353,0.41454535345492,0.00684567122629831,,
0.0394372785540826,0.444578047269908,0.00760097348647237,,
0.0395616863728652,0.457192028622746,0.00800596962547262,,
0.0396860941916478,0.452467963370316,0.00815715970818109,,
0.0398105020104304,0.430487085438918,0.00796623283822839,,
0.0399349098292129,0.392135583115443,0.0074863001983152,,
0.0400593176479955,0.338875667073262,0.00673206572926643,,
0.0401837254667781,0.27228969466695,0.00567639008621867,,
0.0403081332855607,0.195353248994908,0.00440886800778806,,
0.0404325411043433,0.110596937282154,0.00300375460288604,,
0.0405569489231259,0.0219048631428469,0.0014745572215058,,
0.0406813567419085,-0.0679222491913177,-0.000112151306783215,,
0.0408057645606911,-0.155745141621835,-0.0016975344445318,,
0.0409301723794737,-0.237031117280345,-0.00322240872604551,,
0.0410545801982563,-0.309271084570908,-0.00460863843186488,,
