Time domain (s),Current (AC) (A),Potential (AC) (V),Frequency (Hz),Column 5
0,-0.233046749414498,-0.00488979572931436,316.23,0.5
9.88204787654555E-05,-0.151560316261285,-0.00357778373894257,,
0.000197640957530911,-0.0641994772909281,-0.0021143365309344,,
0.000296461436296367,0.0249195365178453,-0.000594117735630117,,
0.000395281915061822,0.114101073466571,0.000953323501123649,,
0.000494102393827278,0.199034800358395,0.00247362539301355,,
0.000592922872592733,0.275672441518319,0.00391511848310033,,
0.000691743351358189,0.341450086651888,0.00521002919615121,,
0.000790563830123644,0.394165224125397,0.00629954176886427,,
0.0008893843088891,0.431943544409466,0.00713624128948309,,
0.000988204787654555,0.452903317567987,0.0076770172493883,,
0.00108702526642001,0.456853104208216,0.00793473300003367,,
0.00118584574518547,0.442914669015066,0.00789284816605162,,
0.00128466622395092,0.412373269039237,0.00753798004232742,,
0.00138348670271638,0.366172183543796,0.00693434982505803,,
0.00148230718148183,0.305700058212913,0.00603282250316672,,
0.00158112766024729,0.233391070488467,0.00493315552769102,,
0.00167994813901274,0.152084147270292,0.00358537045720908,,
0.0017787686177782,0.0648877643954825,0.0021268799605334,,
0.00187758909654365,-0.0243394666367862,0.000584141990525922,,
0.00197640957530911,-0.114006383396013,-0.000945601750905301,,
0.00207523005407457,-0.19867109391565,-0.00249362050892898,,
0.00217405053284002,-0.275377862022472,-0.00392958144382805,,
0.00227287101160548,-0.341808183409163,-0.00518070025625672,,
0.00237169149037093,-0.394561381533455,-0.00623978285931504,,
0.00247051196913639,-0.432410142424943,-0.0071167676046433,,
0.00256933244790184,-0.453565331462113,-0.0076701576262459,,
0.0026681529266673,-0.457474501139192,-0.00790382522501254,,
0.00276697340543275,-0.443548918516549,-0.00787158374979136,,
0.00286579388419821,-0.412919112738062,-0.00753044110459733,,
0.00296461436296367,-0.366350983392065,-0.00691582344129449,,
0.00306343484172912,-0.305582396835399,-0.00601635275989709,,
0.00316225532049458,-0.233114633709551,-0.00488326641509929,,
0.00326107579926003,-0.151547534699455,-0.00357430822424876,,
0.00335989627802549,-0.0643588207617442,-0.00211227781302581,,
0.00345871675679094,0.0248678066967715,-0.000596610633198935,,
0.0035575372355564,0.11421213103714,0.000970657448883916,,
0.00365635771432185,0.198914085607777,0.00250543476598919,,
0.00375517819308731,0.27560175238053,0.00392677277923337,,
0.00385399867185277,0.341514278495747,0.00519560362888738,,
0.00395281915061822,0.394328260047408,0.0062822576790551,,
0.00405163962938368,0.431916277077561,0.00710471859972772,,
0.00415046010814913,0.452933425246965,0.00767244693717917,,
0.00424928058691459,0.456577022472684,0.00793833939184996,,
0.00434810106568004,0.443308909188849,0.00787815668971348,,
0.0044469215444455,0.412543121794225,0.0075348223720737,,
0.00454574202321095,0.366063966320301,0.00692363036551313,,
0.00464456250197641,0.305646375653227,0.00601267573598285,,
0.00474338298074187,0.233350204994949,0.0049027712611589,,
0.00484220345950732,0.151952355166087,0.00357003082750351,,
0.00494102393827278,0.0648880484301899,0.00213241419313581,,
0.00503984441703823,-0.0242122190878992,0.000597304489688533,,
0.00513866489580369,-0.114012064090159,-0.000955955585473678,,
0.00523748537456914,-0.19875296692004,-0.00249350417370886,,
0.0053363058533346,-0.275425863888012,-0.00392555956908369,,
0.00543512633210005,-0.341481259461019,-0.00519296323487994,,
0.00553394681086551,-0.39460029428836,-0.00625636893780523,,
0.00563276728963096,-0.432519211752561,-0.00709478024808785,,
0.00573158776839642,-0.453768132243151,-0.0076631442744195,,
0.00583040824716188,-0.4574747851739,-0.00790304203969283,,
0.00592922872592733,-0.443895369850824,-0.00787502394843598,,
0.00602804920469279,-0.412879915948449,-0.00753655493588434,,
0.00612686968345824,-0.366402748717477,-0.00692199128536197,,
0.0062256901622237,-0.305458841737707,-0.00606245474559985,,
0.00632451064098915,-0.233144173319115,-0.00492064118189672,,
0.00642333111975461,-0.1517080143091,-0.00358461427828027,,
0.00652215159852006,-0.0642724742107137,-0.00210019349206192,,
0.00662097207728552,0.0248919851512336,-0.000602444013509285,,
0.00671979255605098,0.114200450109801,0.000968031596778385,,
0.00681861303481643,0.19884222482682,0.0024732930066711,,
0.00691743351358189,0.27534157658861,0.00392226478946345,,
0.00701625399234734,0.341608009949168,0.00520048970812192,,
0.0071150744711128,0.394272873279478,0.00627337049922261,,
0.00721389494987825,0.43198898996264,0.00711648092142259,,
0.00731271542864371,0.453058400518193,0.00767894509017486,,
0.00741153590740916,0.456424779869551,0.00793522742471842,,
0.00751035638617462,0.443139624503277,0.00790375043808522,,
0.00760917686494007,0.412451662618462,0.00754893217231212,,
0.00770799734370553,0.365996934129369,0.00691746459885989,,
0.00780681782247099,0.305592409058833,0.00602283013874594,,
0.00790563830123644,0.233362667017734,0.00489092584287842,,
0.0080044587800019,0.152021695139016,0.00358190117475932,,
0.00810327925876735,0.0649891647860018,0.0021360205849521,,
0.00820209973753281,-0.0242355099339009,0.00060513011063934,,
0.00830092021629826,-0.11408562907936,-0.000964379501840806,,
0.00839974069506372,-0.198774198514413,-0.00249553173039807,,
0.00849856117382918,-0.275504328475914,-0.003922468376099,,
0.00859738165259463,-0.341645999591274,-0.00515326176368447,,
0.00869620213136009,-0.394662781923974,-0.00623245374046322,,
0.00879502261012554,-0.432069939854231,-0.0070845926066907,,
0.008893843088891,-0.454011265952632,-0.00764210421894029,,
0.00899266356765645,-0.457348318720458,-0.00793141329143854,,
0.00909148404642191,-0.443942519612241,-0.00790897721332096,,
0.00919030452518736,-0.412970807054797,-0.00755565053125995,,
0.00928912500395282,-0.366257891016735,-0.00692182301477606,,
0.00938794548271828,-0.305535531108688,-0.00603024650901274,,
0.00948676596148373,-0.233106112668331,-0.00488964823287485,,
0.00958558644024919,-0.151747211098713,-0.00359353677416152,,
0.00968440691901464,-0.0642778708701531,-0.00211265797990512,,
0.0097832273977801,0.0249410876512645,-0.000603075547560117,,
0.00988204787654555,0.114171478569652,0.000948005319643563,,
0.00998086835531101,0.198929423481973,0.00246691118889508,,
0.0100796888340765,0.275521654593061,0.00390891947781302,,
0.0101785093128419,0.341711398582638,0.00519073832379924,,
0.0102773297916074,0.394311217964968,0.00627692287825798,,
0.0103761502703728,0.431858333997264,0.00712154981314539,,
0.0104749707491383,0.452908430192719,0.00768168727750052,,
0.0105737912279037,0.456848275618191,0.00793521080540138,,
0.0106726117066692,0.443062083028174,0.00790793850600036,,
0.0107714321854347,0.412431212119534,0.0075650196712882,,
0.0108702526642001,0.365888432871166,0.00690267340661954,,
0.0109690731429656,0.305633310056689,0.00605264519366688,,
0.011067893621731,0.233303587798607,0.00491605425037012,,
0.0111667141004965,0.152029044537068,0.003616369638475,,
0.0112655345792619,0.0649113747805299,0.00214266831180154,,
0.0113643550580274,-0.0243255489361267,0.000579455343097113,,
0.0114631755367928,-0.113990193417694,-0.000952133142535061,,
0.0115619960155583,-0.198709154566433,-0.0024792302577139,,
0.0116608164943238,-0.275496304495432,-0.00389832050831718,,
0.0117596369730892,-0.341579535469757,-0.00519600664732822,,
0.0118584574518547,-0.394764750383908,-0.00625404223340764,,
0.0119572779306201,-0.432596469192957,-0.00709566314931021,,
0.0120560984093856,-0.453502559791791,-0.00765652978620412,,
0.012154918888151,-0.457619642874641,-0.00792709226898625,,
0.0122537393669165,-0.443697752703194,-0.00788684028291131,,
0.0123525598456819,-0.412928769918111,-0.0075216640277409,,
0.0124513803244474,-0.366070428109892,-0.00691598755705103,,
0.0125502008032129,-0.305427029850486,-0.00604714835452835,,
0.0126490212819783,-0.232995055097763,-0.00491643649466456,,
0.0127478417607438,-0.151607181987996,-0.00356584899183243,,
0.0128466622395092,-0.0642761666619091,-0.00214370286429277,,
0.0129454827182747,0.024903595069896,-0.000595995718465137,,
0.0130443031970401,0.114209290690067,0.000977953329101666,,
0.0131431236758056,0.198889658622946,0.00246024684272861,,
0.013241944154571,0.275705993118123,0.00389200101298037,,
0.0133407646333365,0.341547794591212,0.00518948772018568,,
0.013439585112102,0.394027467292338,0.00626548878807665,,
0.0135384055908674,0.432089822283744,0.0071194059212365,,
0.0136372260696329,0.453025168457435,0.00769031270308806,,
0.0137360465483983,0.456773858524869,0.00792673495366802,,
0.0138348670271638,0.443159790967498,0.00789547817298653,,
0.0139336875059292,0.412605893464546,0.00755235575163971,,
0.0140325079846947,0.366105151352864,0.00692999556397167,,
0.0141313284634601,0.30553077352734,0.00605061763697767,,
0.0142301489422256,0.233384005125122,0.00488648848520601,,
0.0143289694209911,0.151994108268066,0.00358577347564948,,
0.0144277898997565,0.0649238723076528,0.0021367352155881,,
0.014526610378522,-0.0242366460727302,0.000592349855770724,,
0.0146254308572874,-0.114024348591252,-0.000977940864614002,,
0.0147242513360529,-0.198765180412455,-0.00250244744373651,,
0.0148230718148183,-0.275381554473667,-0.00392178698409662,,
0.0149218922935838,-0.341499153647581,-0.00519356360771095,,
0.0150207127723492,-0.394757933550932,-0.00625798101156638,,
0.0151195332511147,-0.432358164073501,-0.00708665340201442,,
0.0152183537298802,-0.453736888425344,-0.0076551690796145,,
0.0153171742086456,-0.457445813633751,-0.00791306556533344,,
0.0154159946874111,-0.443883511401792,-0.0078749076132163,,
0.0155148151661765,-0.413010287879117,-0.00756191601381584,,
0.015613635644942,-0.3661626683811,-0.00691367954938515,,
0.0157124561237074,-0.305427881954608,-0.00602052420849519,,
0.0158112766024729,-0.233093544132532,-0.00489619416640696,,
0.0159100970812383,-0.151743518647518,-0.00359623118095032,,
0.0160089175600038,-0.0642832675295925,-0.00212771508121934,,
0.0161077380387693,0.0249308979061387,-0.000606632081424863,,
0.0162065585175347,0.114235670413511,0.000970208727321786,,
0.0163053789963002,0.198830898942865,0.00247995735283757,,
0.0164041994750656,0.275497511642938,0.00391656851851918,,
0.0165030199538311,0.341583298929629,0.00517685703917126,,
0.0166018404325965,0.394181130069008,0.00625859592629929,,
0.016700660911362,0.431946100721832,0.0071006136283982,,
0.0167994813901274,0.453134805854467,0.00765556171098103,,
0.0168983018688929,0.457070958828743,0.00791041893908107,,
0.0169971223476584,0.442908704286212,0.00788465484270917,,
0.0170959428264238,0.412452230687877,0.00754828401894425,,
0.0171947633051893,0.366208539986335,0.00690654570750926,,
0.0172935837839547,0.305709715392963,0.00602024168010384,,
0.0173924042627202,0.233460694496103,0.00487280663238376,,
0.0174912247414856,0.152020559000186,0.00360764449698481,,
0.0175900452202511,0.0649931412719046,0.00213234771586723,,
0.0176888656990165,-0.024218751886168,0.000608605625332714,,
0.017787686177782,-0.114029958276722,-0.000981165012136298,,
0.0178865066565474,-0.198750126572966,-0.0024995224439226,,
0.0179853271353129,-0.275509157065938,-0.00391018670074406,,
0.0180841476140784,-0.341707635122766,-0.00520709173185008,,
0.0181829680928438,-0.394519628431477,-0.00626685572691033,,
0.0182817885716093,-0.432115882468142,-0.00710383777592094,,
0.0183806090503747,-0.453397466950076,-0.00764489626421705,,
0.0184794295291402,-0.45705981046648,-0.00790678346346052,,
0.0185782500079056,-0.443613039351731,-0.00787867812078868,,
0.0186770704866711,-0.412711767401706,-0.00755523504833189,,
0.0187758909654366,-0.366145413272629,-0.00692180639545903,,
0.018874711444202,-0.305381868332019,-0.00603014679311009,,
0.0189735319229675,-0.232980569327688,-0.00490465339882329,,
0.0190723524017329,-0.151606329883874,-0.00358305206247067,,
0.0191711728804984,-0.0642631010653716,-0.00212460726891717,,
0.0192699933592638,0.0248917011165262,-0.000580074412660281,,
0.0193688138380293,0.114300181796414,0.000954087989711194,,
0.0194676343167947,0.198862675325749,0.00248568686241635,,
0.0195664547955602,0.275554602619112,0.00390881976190993,,
0.0196652752743256,0.341606305740924,0.00520240092959146,,
0.0197640957530911,0.394302128854333,0.0062525423400368,,
0.0198629162318566,0.432087834040793,0.00707576359446804,,
0.019961736710622,0.453072034184145,0.00767926085720028,,
0.0200605571893875,0.456688080043253,0.00790740668785217,,
0.0201593776681529,0.442797362680935,0.00790763935829197,,
0.0202581981469184,0.412282093898182,0.00757322961394769,,
0.0203570186256838,0.365986708879905,0.00692272876755906,,
0.0204558391044493,0.305780724069797,0.00607250527763004,,
0.0205546595832148,0.233305860076266,0.00488935947223945,,
0.0206534800619802,0.152006605795189,0.00358465998140201,,
0.0207523005407457,0.0648693021395056,0.00214084018691807,,
0.0208511210195111,-0.0242775470705867,0.00061337536934758,,
0.0209499414982766,-0.113995306042427,-0.000969381916295031,,
0.021048761977042,-0.198539372820122,-0.00248845397871778,,
0.0211475824558075,-0.275474504831643,-0.00390771042249227,,
0.0212464029345729,-0.341478703148653,-0.00517401721335808,,
0.0213452234133384,-0.394863878496769,-0.00627383376268797,,
0.0214440438921038,-0.432296528542009,-0.00708811797933606,,
0.0215428643708693,-0.453664175540266,-0.00764423149153215,,
0.0216416848496348,-0.457304009306113,-0.00795107186618216,,
0.0217405053284002,-0.443748239872423,-0.00787126590535125,,
0.0218393258071657,-0.412689044625119,-0.00753379820665634,,
0.0219381462859311,-0.366203853413664,-0.00692569531566622,,
0.0220369667646966,-0.305292681433915,-0.00600832562972586,,
0.022135787243462,-0.232912614023958,-0.00490368947843001,,
0.0222346077222275,-0.151719659732101,-0.00356644936466344,,
0.0223334282009929,-0.0643289261087969,-0.00211249386414814,,
0.0224322486797584,0.0248859849180411,-0.000604936911078102,,
0.0225310691585239,0.11415560813038,0.000966452761651748,,
0.0226298896372893,0.198878865304067,0.00248419527870425,,
0.0227287101160548,0.275667364397925,0.00393637458970231,,
0.0228275305948202,0.341655443745293,0.00520319865681351,,
0.0229263510735857,0.394118926468101,0.00627030839004261,,
0.0230251715523511,0.43203699182818,0.00711628148961729,,
0.0231239920311166,0.453205530496594,0.00765770560288992,,
0.023222812509882,0.456643486594201,0.00794088214736988,,
0.0233216329886475,0.4432256870196,0.00790903953575972,,
0.023420453467413,0.412739105742287,0.00756103103517836,,
0.0235192739461784,0.366136963240086,0.00694139641551894,,
0.0236180944249439,0.305692389275815,0.00602583823514546,,
0.0237169149037093,0.233280012917898,0.00492397750980933,,
0.0238157353824748,0.152050915209533,0.00357344194234344,,
0.0239145558612402,0.0648772196069727,0.00213904530066866,,
0.0240133763400057,-0.0242641974393419,0.000602022298337168,,
0.0241121968187711,-0.113972015196425,-0.000950186605016778,,
0.0242110172975366,-0.198660939674863,-0.0024926565885357,,
0.0243098377763021,-0.275422455471524,-0.00391349394485152,,
0.0244086582550675,-0.34147898718336,-0.00518184698913826,,
0.024507478733833,-0.394659444516163,-0.00627270364912347,,
0.0246062992125984,-0.432428036611506,-0.00709350263808428,,
0.0247051196913639,-0.453581237405724,-0.00764918404803527,,
0.0248039401701293,-0.457596281019963,-0.00790380860569551,,
0.0249027606488948,-0.443558291661891,-0.00787239601891576,,
0.0250015811276602,-0.412745851566586,-0.0075591925232219,,
0.0251004016064257,-0.366274294021084,-0.00690972207449514,,
0.0251992220851912,-0.305448048418828,-0.00600998756143856,,
0.0252980425639566,-0.233081117614086,-0.00490006646729713,,
0.0253968630427221,-0.15152566402699,-0.00358891660400085,,
0.0254956835214875,-0.0643349618463279,-0.00212269604744808,,
0.025594504000253,0.0248666705579422,-0.000615157791109322,,
0.0256933244790184,0.1142197644699,0.000968779466048897,,
0.0257921449577839,0.198865515672822,0.00250885419048741,,
0.0258909654365493,0.275604024658189,0.00392590441991381,,
0.0259897859153148,0.34139441584925,0.00521651072982987,,
0.0260886063940803,0.394459484082198,0.00628805782073139,,
0.0261874268728457,0.431848676817215,0.0071104481093065,,
0.0262862473516112,0.452976030453065,0.00767233060195949,,
0.0263850678303766,0.456690920390326,0.00793517756676687,,
0.0264838883091421,0.443338164763705,0.00791472334221632,,
0.0265827087879075,0.412519262878808,0.00754333146244113,,
0.026681529266673,0.36603840319664,0.0069251551878593,,
0.0267803497454384,0.305716532225939,0.00604974096799937,,
0.0268791702242039,0.233411805022103,0.00492532367449616,,
0.0269779907029694,0.151972521630308,0.00356506580651272,,
0.0270768111817348,0.0648096193466264,0.00212480254589309,,
0.0271756316605003,-0.0243085068536865,0.000612976505736551,,
0.0272744521392657,-0.113905551074908,-0.000954177318541305,,
0.0273732726180312,-0.198627068536013,-0.00247590639428896,,
0.0274720930967966,-0.275407472640712,-0.00391723329120452,,
0.0275709135755621,-0.341604530524003,-0.00517072658856765,,
0.0276697340543275,-0.394655397021584,-0.00626393072709686,,
0.027768554533093,-0.432441102208043,-0.0070852075214245,,
0.0278673750118585,-0.453592030724602,-0.00764999839457436,,
0.0279661954906239,-0.457572493113223,-0.007938842126193,,
0.0280650159693894,-0.444048464558078,-0.00789292295297894,,
0.0281638364481548,-0.412710915297584,-0.00755231004851797,,
0.0282626569269203,-0.366245393489612,-0.00689662813001579,,
0.0283614774056857,-0.305325629459966,-0.0060376254858161,,
0.0284602978844512,-0.232867239479461,-0.00488688734881748,,
0.0285591183632166,-0.151521119471673,-0.00360390722804693,,
0.0286579388419821,-0.0643463232346213,-0.00212213306808051,,
0.0287567593207476,0.024872954825842,-0.000635815602294976,,
0.028855579799513,0.114135122127113,0.00095885773372606,,
0.0289544002782785,0.198988786735806,0.0024840457048505,,
0.0290532207570439,0.275655399435879,0.00390208893847488,,
0.0291520412358094,0.341667373203001,0.00520464453740299,,
0.0292508617145748,0.39423424455928,0.00629153125801052,,
0.0293496821933403,0.43212759889982,0.00709392850808488,,
0.0294485026721057,0.452799644899809,0.00766011540387312,,
0.0295473231508712,0.456811919175652,0.00790917249029688,,
0.0296461436296367,0.44346456020847,0.00790405374062253,,
0.0297449641084021,0.412284366175841,0.00756885873354385,,
0.0298437845871676,0.36633919595171,0.00693468221140092,,
0.029942605065933,0.305782428278041,0.00604108230377731,,
0.0300414255446985,0.233382300916878,0.00488071742733487,,
0.0301402460234639,0.152057767546848,0.00357965756694778,,
0.0302390665022294,0.0648034060874034,0.00211675879640483,,
0.0303378869809948,-0.0243025421248324,0.000614869030473919,,
0.0304367074597603,-0.114017460749599,-0.000981264728038944,,
0.0305355279385258,-0.198828236117484,-0.00248660923451727,,
0.0306343484172912,-0.275428420200378,-0.00391902817745393,,
0.0307331688960567,-0.341841983539337,-0.00518646715929894,,
0.0308319893748221,-0.39480373414749,-0.00628742836409568,,
0.0309308098535876,-0.432542218563855,-0.0071377245635369,,
0.031029630332353,-0.453567035670357,-0.00765799228611108,,
0.0311284508111185,-0.457283629815862,-0.00791886570700973,,
0.0312272712898839,-0.443636046163025,-0.00789868985602116,,
0.0313260917686494,-0.412628261197749,-0.00754405024790739,,
0.0314249122474149,-0.366322650930008,-0.00692764185318451,,
0.0315237327261803,-0.305299143223507,-0.00602163770274267,,
0.0316225532049458,-0.23301238121491,-0.00489848763217049,,
0.0317213736837112,-0.151531344721137,-0.00358635930657858,,
0.0318201941624767,-0.0643150794168143,-0.00212685087672915,,
0.0319190146412421,0.0248377345221322,-0.000608111200648853,,
0.0320178351200076,0.114203574491581,0.000953988273808548,,
0.032116655598773,0.198872900575213,0.00250666044062697,,
0.0322154760775385,0.275640665135436,0.00391083069928211,,
0.032314296556304,0.341704013680248,0.00520218487846869,,
0.0324131170350694,0.394258387509403,0.00629703640680779,,
0.0325119375138349,0.431942408270636,0.00712090165977752,,
