Time domain (s),Current (AC) (A),Potential (AC) (V),Frequency (Hz),Column 5
0,-0.281770728537167,-0.007445340278601,0.0031623,0.4
0.772034990355121,-0.285734134004954,-0.00773722025764778,,
1.54406998071024,-0.289260257593313,-0.00804739424707979,,
2.31610497106536,-0.292986606905388,-0.00837503805978335,,
3.08813996142049,-0.296522559651423,-0.0086724353092591,,
3.86017495177561,-0.299963227386577,-0.00895379402469043,,
4.63220994213073,-0.303489235337788,-0.00929045974275722,,
5.40424493248585,-0.30686121460636,-0.00954723818136261,,
6.17627992284097,-0.31010015333486,-0.00985588153758465,,
6.94831491319609,-0.313103539190586,-0.0101575064254216,,
7.72034990355121,-0.316476906104948,-0.0104390380729704,,
8.49238489390633,-0.319289895394635,-0.0107284767656353,,
9.26441988426146,-0.322517096952499,-0.0109988082990227,,
10.0364548746166,-0.325409355507913,-0.0112830939825272,,
10.8084898649717,-0.328147527562115,-0.0115712651195654,,
11.5805248553268,-0.33088853272647,-0.0118359322062536,,
12.3525598456819,-0.33367191890598,-0.0121477840051654,,
13.1245948360371,-0.336206453940567,-0.0124060047712193,,
13.8966298263922,-0.338476411177949,-0.0126676841796223,,
14.6686648167473,-0.340985448221154,-0.0129516736708832,,
15.4406998071024,-0.34352009889289,-0.013184434781897,,
16.2127347974575,-0.345733567382923,-0.0134616265691787,,
16.9847697878127,-0.347854815246527,-0.0136880885358281,,
17.7568047781678,-0.349797461533302,-0.0139593472797173,,
18.5288397685229,-0.352010583111888,-0.0141890894374885,,
19.300874758878,-0.353992603847942,-0.0144567717980122,,
20.0729097492332,-0.355862919097938,-0.0146686357183619,,
20.8449447395883,-0.357438590891956,-0.0149386287463278,,
21.6169797299434,-0.35929786279421,-0.0151794532772445,,
22.3890147202985,-0.36076246510649,-0.0153704292054471,,
23.1610497106536,-0.362659145626487,-0.0156155218481997,,
23.9330847010088,-0.363908489385666,-0.0158613062194219,,
24.7051196913639,-0.365271620099587,-0.0160616867112897,,
25.477154681719,-0.366485116342536,-0.0162725755888493,,
26.2491896720741,-0.367718733449433,-0.0164943702280302,,
27.0212246624292,-0.368931073320891,-0.0167061715984649,,
27.7932596527844,-0.369703529477066,-0.0168934386846584,,
28.5652946431395,-0.370778492415359,-0.0171029293876512,,
29.3373296334946,-0.371717466066279,-0.0172998659547967,,
30.1093646238497,-0.372463614771027,-0.0174877511813252,,
30.8813996142048,-0.373054289328773,-0.0176489533500672,,
31.65343460456,-0.373528632914496,-0.0178017811890356,,
32.4254695949151,-0.374025814837171,-0.0180284326451332,,
33.1975045852702,-0.374511779956382,-0.0182086647056114,,
33.9695395756253,-0.374729351252466,-0.0183569742330851,,
34.7415745659805,-0.375163973477464,-0.0185337918040949,,
35.5136095563356,-0.375059379676077,-0.0187027501622765,,
36.2856445466907,-0.375116735702045,-0.0188488814809511,,
37.0576795370458,-0.374831111943699,-0.0190105693313853,,
37.8297145274009,-0.374827642829225,-0.0191604389273228,,
38.6017495177561,-0.374825098811944,-0.0192600331093624,,
39.3737845081112,-0.374360064016726,-0.0194310960882076,,
40.1458194984663,-0.373809342094004,-0.0195308815993984,,
40.9178544888214,-0.373738398703014,-0.0196895081834128,,
41.6898894791766,-0.37303804230932,-0.0198178606086481,,
42.4619244695317,-0.372268592719023,-0.0199134221608843,,
43.2339594598868,-0.371600036541339,-0.0200384925552943,,
44.0059944502419,-0.370811795914308,-0.0201303158302677,,
44.778029440597,-0.370118435568137,-0.0202568432697525,,
45.5500644309522,-0.369143614400988,-0.0203347142343118,,
46.3220994213073,-0.368106580447608,-0.0204496294660785,,
47.0941344116624,-0.366577626061838,-0.0205267939845406,,
47.8661694020175,-0.365264913144937,-0.0205925964949443,,
48.6382043923726,-0.36368253439627,-0.0206957670603494,,
49.4102393827278,-0.362793515993774,-0.0207628500043033,,
50.1822743730829,-0.360886890678952,-0.0208220295825479,,
50.954309363438,-0.359364180699235,-0.0208947788129046,,
51.7263443537931,-0.357681891453721,-0.0209650113290407,,
52.4983793441482,-0.355979018795662,-0.0210128141815993,,
53.2704143345034,-0.353946522444014,-0.0210917006624225,,
54.0424493248585,-0.352251802204969,-0.0211085376277329,,
54.8144843152136,-0.350157150885665,-0.0211858051695839,,
55.5865193055687,-0.348272265354879,-0.0211836416784124,,
56.3585542959239,-0.34582752256659,-0.0212425563393706,,
57.130589286279,-0.343509402456596,-0.0212691510913943,,
57.9026242766341,-0.341287376817527,-0.0212518873149006,,
58.6746592669892,-0.338701845800174,-0.0212745377428836,,
59.4466942573443,-0.336126664307669,-0.0212450141830827,,
60.2187292476995,-0.333665443225629,-0.0212440281020725,,
60.9907642380546,-0.330824238471554,-0.0212635583931271,,
61.7627992284097,-0.328393140866862,-0.021267414411406,,
62.5348342187648,-0.325319158531593,-0.0212720063110363,,
63.3068692091199,-0.322746231963496,-0.021255919944704,,
64.0789041994751,-0.319450399757625,-0.0212167710568325,,
64.8509391898302,-0.316376301785206,-0.0211905589631112,,
65.6229741801853,-0.31323496081057,-0.0211542505772546,,
66.3950091705404,-0.309990298043188,-0.0211183690025818,,
67.1670441608955,-0.306890817716536,-0.0210715963839143,,
67.9390791512507,-0.303479521817261,-0.0210107537138167,,
68.7111141416058,-0.30011401822904,-0.0209825547404474,,
69.4831491319609,-0.296449072243153,-0.0209488366569461,,
70.255184122316,-0.293053387359009,-0.0208935866851157,,
71.0272191126711,-0.289285524310398,-0.0207994968955814,,
71.7992541030263,-0.285875616056912,-0.0207349159482209,,
72.5712890933814,-0.281962454930421,-0.020657206877559,,
73.3433240837365,-0.278194013696064,-0.020588755194292,,
74.1153590740916,-0.27400083721296,-0.0205021566769106,,
74.8873940644468,-0.270266682393319,-0.0204188990608625,,
75.6594290548019,-0.26612716154741,-0.020331093698065,,
76.431464045157,-0.26234918024825,-0.0202070241022922,,
77.2034990355121,-0.25788495028759,-0.0201055902168754,,
77.9755340258672,-0.253825623804601,-0.0200182263828887,,
78.7475690162224,-0.249705009632575,-0.0199461541633754,,
79.5196040065775,-0.245250204099568,-0.0198217019092999,,
80.2916389969326,-0.240906178955427,-0.0196958367630309,,
81.0636739872877,-0.236305670614519,-0.0195593602076811,,
81.8357089776429,-0.231941524606429,-0.0194379545023988,,
82.607743967998,-0.227297305423151,-0.0193035236972046,,
83.3797789583531,-0.22265152513836,-0.0191497244948526,,
84.1518139487082,-0.21800487757495,-0.0190313800559907,,
84.9238489390633,-0.213488842171481,-0.0188848072085053,,
85.6958839294185,-0.208764891173879,-0.0186933161633571,,
86.4679189197736,-0.203945481709672,-0.0185505698988968,,
87.2399539101287,-0.198877857104862,-0.018399743657203,,
88.0119889004838,-0.194049370124449,-0.018223573661782,,
88.7840238908389,-0.189071826858809,-0.0180551892910543,,
89.5560588811941,-0.184164417524116,-0.0179157397750465,,
90.3280938715492,-0.179143452508979,-0.0177206429112786,,
91.1001288619043,-0.173967244621138,-0.0175320218033992,,
91.8721638522594,-0.168890831592994,-0.0173582949340632,,
92.6441988426145,-0.163726939061535,-0.0171384577392759,,
93.4162338329697,-0.158587330331393,-0.0169750184912267,,
94.1882688233248,-0.153379726957563,-0.0167761833501956,,
94.9603038136799,-0.148113148637679,-0.0165870029724897,,
95.732338804035,-0.142749897661123,-0.0163828253328506,,
96.5043737943902,-0.137467823963255,-0.0161559383947214,,
97.2764087847453,-0.132157997349597,-0.0159492587584893,,
98.0484437751004,-0.126637248575929,-0.015735558814169,,
98.8204787654555,-0.121122281659717,-0.0155317785504598,,
99.5925137558106,-0.11569086258375,-0.0152999317720246,,
100.364548746166,-0.110286618237829,-0.0150740456325322,,
101.136583736521,-0.104786684151004,-0.014842211732021,,
101.908618726876,-0.099143880366431,-0.0146117060973481,,
102.680653717231,-0.0935843931478051,-0.014366113055277,,
103.452688707586,-0.0881277651733285,-0.0141273931450239,,
104.224723697941,-0.0824962360107959,-0.0139011077898985,,
104.996758688297,-0.0767675138244212,-0.0136427435269817,,
105.768793678652,-0.0711161528908131,-0.0134130436823878,,
106.540828669007,-0.0654669890630384,-0.013134645049691,,
107.312863659362,-0.0598292733130275,-0.0129074324840635,,
108.084898649717,-0.0541136181245042,-0.0126223833236567,,
108.856933640072,-0.048348759329027,-0.012359305740687,,
109.628968630427,-0.0426673327366457,-0.0121234281721518,,
110.401003620782,-0.0368898694919135,-0.0118069384810253,,
111.173038611137,-0.0312377569168361,-0.0115776820049458,,
111.945073601493,-0.0254831898276313,-0.011323979550387,,
112.717108591848,-0.0197281023712554,-0.0110250939808791,,
113.489143582203,-0.0139509282193961,-0.0107468425244521,,
114.261178572558,-0.0081654281927995,-0.0104696930503483,,
115.033213562913,-0.00238929477528233,-0.010198463741713,,
115.805248553268,0.00340687277832127,-0.00993309020892763,,
116.577283543623,0.00915799966233952,-0.00963127399193953,,
117.349318533978,0.014967378760231,-0.00932663566997061,,
118.121353524334,0.0207036751798736,-0.00904371688607508,,
118.893388514689,0.0265026469343435,-0.00873545986756241,,
119.665423505044,0.0321332509996832,-0.00847508848826051,,
120.437458495399,0.0379144146331874,-0.00816211630999186,,
121.209493485754,0.0436264272515131,-0.00785781649344397,,
121.981528476109,0.0493354333039615,-0.00756914495708738,,
122.753563466464,0.0550622474773756,-0.00727555773330657,,
123.525598456819,0.0606949330113995,-0.00698280941426566,,
124.297633447175,0.0663879811372682,-0.00667628539633425,,
125.06966843753,0.0721129740255836,-0.00637533935904377,,
125.841703427885,0.0777245557798916,-0.00606969839873406,,
126.61373841824,0.0833251230957452,-0.00573198588944557,,
127.385773408595,0.0889670596016994,-0.00544743712835771,,
128.15780839895,0.0944567887101139,-0.00513805789078514,,
128.929843389305,0.100080483455793,-0.00483509553859252,,
129.70187837966,0.105575792056653,-0.0045026684971079,,
130.473913370015,0.111140945495586,-0.0041774383752351,,
131.245948360371,0.116685717886985,-0.00388694185312799,,
132.017983350726,0.122055675818191,-0.00355090899302324,,
132.790018341081,0.127420343349823,-0.00323367054262214,,
133.562053331436,0.133002639996115,-0.00293057573178679,,
134.334088321791,0.138345278650838,-0.00260777401837231,,
135.106123312146,0.143655336538795,-0.00228776865409186,,
135.878158302501,0.148993841165437,-0.00195248823266825,,
136.650193292856,0.154286553481025,-0.00167932723548692,,
137.422228283212,0.159486987351609,-0.00133182934393394,,
138.194263273567,0.164677938975964,-0.00100135974684257,,
138.966298263922,0.169762475513834,-0.000692451473334632,,
139.738333254277,0.174920152548527,-0.000385191574052701,,
140.510368244632,0.17999338555507,-6.52745155340639E-05,,
141.282403234987,0.184969945904942,0.000272421436423809,,
142.054438225342,0.189981659948148,0.000589582619283213,,
142.826473215697,0.194885137619771,0.000914614053190821,,
143.598508206053,0.199820068595957,0.00122435755203254,,
144.370543196408,0.204695793351789,0.00154776268815482,,
145.142578186763,0.20938167081804,0.00187231579918423,,
145.914613177118,0.214242304925911,0.00216887598362314,,
146.686648167473,0.218829659541106,0.00250412880949602,,
147.458683157828,0.223570551381054,0.00280080673495098,,
148.230718148183,0.228228647022228,0.00315570759289452,,
149.002753138538,0.23265477454225,0.00346071201583564,,
149.774788128894,0.237225217224385,0.00378405092263634,,
150.546823119249,0.241542645824227,0.00406821518571832,,
151.318858109604,0.24606683364671,0.00438544995671242,,
152.090893099959,0.250123847386716,0.00471002146477595,,
152.862928090314,0.254382301040503,0.0050211520999639,,
153.634963080669,0.258517716767618,0.00536162968342868,,
154.406998071024,0.262870299060795,0.00562641819053944,,
155.179033061379,0.26686648766036,0.00593451331515515,,
155.951068051735,0.270695696216584,0.00623743151446643,,
156.72310304209,0.274958544082038,0.0065597033933078,,
157.495138032445,0.278636961795799,0.00684735941340042,,
158.2671730228,0.282479584261321,0.00714655405307552,,
159.039208013155,0.28616632784982,0.00746184609730349,,
159.81124300351,0.28991112128718,0.00778298839827141,,
160.583277993865,0.293145723622588,0.00804288697380517,,
161.35531298422,0.296985339522234,0.00836364293706371,,
162.127347974575,0.300376052008964,0.00861040235107602,,
162.899382964931,0.303600478275249,0.00891539205639047,,
163.671417955286,0.306957655988732,0.00923033455697642,,
164.443452945641,0.310359700916078,0.00950055018905083,,
165.215487935996,0.313600085108942,0.00978867717320764,,
165.987522926351,0.316617983426884,0.0100331479962188,,
166.759557916706,0.319760076042989,0.0103182615462436,,
167.531592907061,0.322683151898646,0.0106064768361622,,
168.303627897416,0.325449655054384,0.0108985334267335,,
169.075662887772,0.328478423264344,0.0111636677980793,,
169.847697878127,0.331081415491215,0.0113892080733367,,
170.619732868482,0.333701290741859,0.0116596113551557,,
171.391767858837,0.336363489189083,0.0119470870843168,,
172.163802849192,0.338411885648736,0.0122122729673575,,
172.935837839547,0.34123320081316,0.0124666119592849,,
173.707872829902,0.34362550215432,0.0127360733129742,,
174.479907820257,0.345921362113107,0.0129711432517268,,
175.251942810613,0.347894594425827,0.0132271269384736,,
176.023977800968,0.349776473390736,0.0134718369229234,,
176.796012791323,0.352065857669171,0.0137160612256815,,
177.568047781678,0.353655405921085,0.0139630046100319,,
178.340082772033,0.355963754691977,0.0141622113711448,,
179.112117762388,0.357517455427661,0.0144206676192309,,
179.884152752743,0.359155571282208,0.0146585780599979,,
180.656187743098,0.360794843508246,0.014851599738356,,
181.428222733453,0.362188964978133,0.0150866108066001,,
182.200257723809,0.363396448089327,0.0153261880186273,,
182.972292714164,0.364835436773076,0.0154923757835226,,
183.744327704519,0.366480028307974,0.0157538049922663,,
184.516362694874,0.367378528956699,0.0159157430423598,,
185.288397685229,0.368839951247378,0.0161656483491472,,
186.060432675584,0.369537474530918,0.0163349157774966,,
186.832467665939,0.370575664855789,0.0165317934741336,,
187.604502656294,0.370980857426333,0.0167066094478687,,
188.37653764665,0.371895084727339,0.0168976295289522,,
189.148572637005,0.372418689738591,0.0171126798155519,,
189.92060762736,0.373344480754509,0.017306779560089,,
190.692642617715,0.373930067277693,0.0174624773363261,,
191.46467760807,0.374135438854545,0.0176177924542609,,
192.236712598425,0.374177762051126,0.0177849810177935,,
193.00874758878,0.374390303131223,0.0179821420287509,,
193.780782579135,0.374826717732032,0.0181029627083591,,
194.552817569491,0.37451403488079,0.0183019413462531,,
195.324852559846,0.374632678595795,0.018449647451019,,
196.096887550201,0.374467086198244,0.0185719950844305,,
196.868922540556,0.374319533195956,0.0187544495065888,,
197.640957530911,0.374035990906295,0.0188826547555538,,
198.412992521266,0.373548927234168,0.018995730283943,,
199.185027511621,0.372912460365367,0.0191583159096256,,
199.957062501976,0.372634699933162,0.0192731023621557,,
200.729097492332,0.371705439802769,0.0193754744962953,,
201.501132482687,0.371117077988006,0.019506373071005,,
202.273167473042,0.370364742695779,0.0196193602936319,,
203.045202463397,0.369091115135284,0.019700012889698,,
203.817237453752,0.368059400490764,0.0198170768950092,,
204.589272444107,0.366735355133249,0.0199199641460948,,
205.361307434462,0.366171277119802,0.0200365903020021,,
206.133342424817,0.364658743209208,0.0200949309755067,,
206.905377415173,0.363217441782477,0.0201851794643892,,
207.677412405528,0.36202499150067,0.020252457416901,,
208.449447395883,0.360630638756484,0.0203478386782066,,
209.221482386238,0.358643992534466,0.0204200727916173,,
209.993517376593,0.357033398321411,0.0204925129518063,,
210.765552366948,0.355130473395361,0.0205380640074311,,
211.537587357303,0.35329924350177,0.020609915462539,,
212.309622347658,0.351536239526165,0.0206568058222225,,
213.081657338013,0.349537104492041,0.0206791913329192,,
213.853692328369,0.347471825008615,0.0207258866840445,,
214.625727318724,0.345162319866231,0.0207847461539017,,
215.397762309079,0.342766318136299,0.0207904418755578,,
216.169797299434,0.340503530402163,0.0208207454695906,,
216.941832289789,0.337898919255204,0.0208752889953243,,
217.713867280144,0.335736273292213,0.0208678860289333,,
218.485902270499,0.333058116918409,0.0208849143233949,,
219.257937260854,0.330309421883637,0.0209092425608577,,
220.02997225121,0.327547544213864,0.0209081976093395,,
220.802007241565,0.32469963250514,0.0208917984934329,,
221.57404223192,0.321782107232641,0.0208679301818147,,
222.346077222275,0.318822027489263,0.020859714066531,,
223.11811221263,0.315741222562195,0.0208675879969862,,
223.890147202985,0.312573458498984,0.0208474579626308,,
224.66218219334,0.309173032491726,0.0208149467245451,,
225.434217183695,0.305978903158513,0.0208036288693672,,
226.206252174051,0.302668905401874,0.0207408397930959,,
226.978287164406,0.29926130989137,0.0207200732213719,,
227.750322154761,0.296210570623076,0.0206527143219115,,
228.522357145116,0.292179922153071,0.0206322273851005,,
229.294392135471,0.288839396189062,0.0205705163750083,,
230.066427125826,0.285098534414772,0.0204913061063907,,
230.838462116181,0.281484179681628,0.0204220008007567,,
231.610497106536,0.277434566719166,0.0203738300075225,,
232.382532096891,0.273789452504354,0.020287231490141,,
233.154567087247,0.269634147187589,0.0202086982323659,,
233.926602077602,0.265572045413021,0.0201348304623559,,
234.698637067957,0.261422290679415,0.0200383564172446,,
235.470672058312,0.257510054650117,0.0199574205068584,,
236.242707048667,0.253120468469219,0.0198712671976944,,
237.014742039022,0.248816916327272,0.0197327301745616,,
237.786777029377,0.244641721420857,0.0196437621192302,,
238.558812019732,0.240407117929077,0.0195017958890018,,
239.330847010088,0.235689787158263,0.0194085450042074,,
240.102882000443,0.231426476744213,0.0192689335943026,,
240.874916990798,0.226845626718657,0.019161038670624,,
241.646951981153,0.221983286962837,0.0190114303125659,,
242.418986971508,0.21769525910816,0.0188955032439417,,
243.191021961863,0.212962924417247,0.0187231414345117,,
243.963056952218,0.208069131356863,0.0186098046682428,,
244.735091942573,0.203112489505929,0.0184594052377327,,
245.507126932929,0.198297560981251,0.0183081374672285,,
246.279161923284,0.193560658622947,0.0181218601414517,,
247.051196913639,0.188398587376586,0.0180258092281171,,
247.823231903994,0.183416245169258,0.0177904743720783,,
248.595266894349,0.178410544257806,0.0176460502981382,,
249.367301884704,0.173362520149773,0.0174764149291136,,
250.139336875059,0.168378559022357,0.0172710893145673,,
250.911371865414,0.163120075302912,0.0171052768491609,,
251.68340685577,0.157936524456101,0.016936292735132,,
252.455441846125,0.152685904062796,0.0167205323230291,,
253.22747683648,0.147386455883271,0.0165483213692763,,
253.999511826835,0.142032022239337,0.0163479261597814,,
254.77154681719,0.136683341543571,0.0161383029981454,,
255.543581807545,0.131460242791758,0.0159285179426125,,
256.3156167979,0.125937643823704,0.0157095049349381,,
257.087651788255,0.120609083991887,0.0154714362796806,,
257.85968677861,0.115012939796987,0.0152965430384033,,
258.631721768966,0.109591610062282,0.015017684479862,,
259.403756759321,0.103950425197797,0.014833217422209,,
260.175791749676,0.0984731270829141,0.0146049948594271,,
260.947826740031,0.0928605624128385,0.014372025861932,,
261.719861730386,0.0874119712202263,0.014142548621447,,
262.491896720741,0.0817117535911117,0.0138998255166447,,
263.263931711096,0.0760675043421749,0.0136549683559246,,
264.035966701451,0.0704128188405294,0.0133968101397857,,
264.808001691807,0.0647859729825365,0.0131607467612098,,
265.580036682162,0.0590869117249131,0.0128961863773176,,
266.352071672517,0.0533202894629117,0.0126558475280922,,
267.124106662872,0.0476575382701145,0.0123676911086812,,
267.896141653227,0.0419439356409883,0.0121233637825338,,
268.668176643582,0.0362053264783631,0.0118408883671521,,
