Time domain (s),Current (AC) (A),Potential (AC) (V),Frequency (Hz),Column 5
0,0.206971879358075,0.00298963641412975,7943.3,0.4
3.93413316883411E-06,0.2013227155303,0.0027097747641589,,
7.86826633766822E-06,0.187503555842336,0.00236739278760956,,
1.18023995065023E-05,0.166776146137604,0.00185260279020971,,
1.57365326753364E-05,0.139349818565313,0.00135311356941958,,
1.96706658441706E-05,0.106752949325489,0.000745751902631042,,
2.36047990130047E-05,0.0701350873176113,0.000144145272471086,,
2.75389321818388E-05,0.0310117151995782,-0.000492513866747757,,
3.14730653506729E-05,-0.00820118898116733,-0.00105161468983894,,
3.5407198519507E-05,-0.047794655019693,-0.00159948793576126,,
3.93413316883411E-05,-0.0864037020076922,-0.0021289808692071,,
4.32754648571752E-05,-0.121818157113882,-0.00255660111373368,,
4.72095980260093E-05,-0.152480734850955,-0.00289564076735527,,
5.11437311948435E-05,-0.177149492237278,-0.00310072964404151,,
5.50778643636776E-05,-0.194970506745115,-0.00317403902188129,,
5.90119975325117E-05,-0.204927674745078,-0.00313303767073547,,
6.29461307013458E-05,-0.207474698591771,-0.00297544755527079,,
6.68802638701799E-05,-0.201556273662252,-0.00270266473174807,,
7.0814397039014E-05,-0.187866974492758,-0.00234938366185578,,
7.47485302078481E-05,-0.166725612703435,-0.00186451197131721,,
7.86826633766822E-05,-0.139347476913043,-0.00133749909075664,,
8.26167965455164E-05,-0.106498547597407,-0.000740896911684441,,
8.65509297143505E-05,-0.0697758894231325,-0.000130647872066181,,
9.04850628831846E-05,-0.0304488513761977,0.000513469492419372,,
9.44191960520187E-05,0.00896002886303243,0.00104238100949328,,
9.83533292208528E-05,0.0482872981842655,0.00162676359024294,,
0.000102287462389687,0.0866942114355889,0.00213827203422179,,
0.000106221595558521,0.121764328020963,0.00257351638834713,,
0.000110155728727355,0.152324537971771,0.00289062810417207,,
0.000114089861896189,0.176942877561074,0.00311570850650122,,
0.000118023995065023,0.194679910589356,0.00318334661108732,,
0.000121958128233857,0.20492212416192,0.00314326829949207,,
0.000125892261402692,0.206967369509259,0.00299595644293937,,
0.000129826394571526,0.201184962776402,0.00270537965056894,,
0.00013376052774036,0.187638186393208,0.00232120139201442,,
0.000137694660909194,0.166602343502464,0.00186215181502813,,
0.000141628794078028,0.139442906470361,0.0013268677117324,,
0.000145562927246862,0.106733609012297,0.000748954619933073,,
0.000149497060415696,0.0700823278683217,0.000102329281437274,,
0.00015343119358453,0.0309899754155421,-0.000460123719097094,,
0.000157365326753364,-0.00823483939156358,-0.00104312338293999,,
0.000161299459922199,-0.0477822240261617,-0.00160856065903214,,
0.000165233593091033,-0.0863598177095981,-0.00212184784292813,,
0.000169167726259867,-0.121898351476802,-0.00254625223079952,,
0.000173101859428701,-0.152494553490276,-0.00287014221037118,,
0.000177035992597535,-0.177364577334656,-0.00308510531086359,,
0.000180970125766369,-0.19505341858104,-0.00318259766796469,,
0.000184904258935203,-0.205253829324193,-0.00315478001517011,,
0.000188838392104037,-0.207443939110103,-0.00300000993335114,,
0.000192772525272871,-0.201588478608284,-0.00270826538097912,,
0.000196706658441706,-0.187903284557584,-0.00234165279501353,,
0.00020064079161054,-0.166696240867556,-0.00186114829693995,,
0.000204574924779374,-0.139366325768351,-0.001302275770108,,
0.000208509057948208,-0.106545091549931,-0.000720279624353282,,
0.000212443191117042,-0.069657939531022,-0.000102110839693026,,
0.000216377324285876,-0.0304433586116141,0.000476644813119265,,
0.00022031145745471,0.00896170560169478,0.00106310505406793,,
0.000224245590623544,0.0483083152361195,0.00161955993994134,,
0.000228179723792378,0.0866261878826144,0.00210881360471715,,
0.000232113856961213,0.121761726185107,0.00256021279339924,,
0.000236047990130047,0.152245528889629,0.00286473372417806,,
0.000239982123298881,0.177048627733951,0.00308554383677073,,
0.000243916256467715,0.194609256291239,0.00317301250992541,,
0.000247850389636549,0.204851209680217,0.00315125702613761,,
0.000251784522805383,0.207001019919655,0.00298171666908775,,
0.000255718655974217,0.201048655486867,0.00270984046092426,,
0.000259652789143051,0.187513789730034,0.00232602681941652,,
0.000263586922311885,0.166685891342709,0.00186310441812321,,
0.00026752105548072,0.139308507193787,0.00131870488865937,,
0.000271455188649554,0.10671091522178,0.000745658284740269,,
0.000275389321818388,0.0700223989157861,0.00011008806940449,,
0.000279323454987222,0.0310322697028357,-0.000471640362032399,,
0.000283257588156056,-0.00821072904597039,-0.00103989602935073,,
0.00028719172132489,-0.0477784080002405,-0.00160672936170281,,
0.000291125854493724,-0.0864037020076922,-0.00212896772985394,,
0.000295059987662558,-0.121827697178685,-0.00256855135531886,,
0.000298994120831392,-0.152610826643724,-0.00286565347889089,,
0.000302928254000227,-0.1771962674641,-0.00307432282927911,,
0.000306862387169061,-0.195035205730052,-0.00317696909760823,,
0.000310796520337895,-0.205196010749629,-0.00314308927580731,,
0.000314730653506729,-0.207411965438369,-0.00298696255578701,,
0.000318664786675563,-0.201469834893278,-0.00273395445858204,,
0.000322598919844397,-0.1877884568685,-0.00236102020138729,,
0.000326533053013231,-0.166868598038331,-0.00186103989727782,,
0.000330467186182065,-0.139313074861178,-0.00129412444396904,,
0.000334401319350899,-0.10653988787822,-0.000754919886211347,,
0.000338335452519734,-0.0697866436780014,-0.000123012265533351,,
0.000342269585688568,-0.0304889774669451,0.000500068994742975,,
0.000346203718857402,0.00893161103363422,0.00107004920214671,,
0.000350137852026236,0.0483071299553409,0.00161836754365341,,
0.00035407198519507,0.0866421747184813,0.00215024855451329,,
0.000358006118363904,0.121844088744574,0.00256078107041802,,
0.000361940251532738,0.152436995099298,0.00289245775908231,,
0.000365874384701572,0.176975342690691,0.00308794176869975,,
0.000369808517870407,0.1946393508593,0.00316866995374721,,
0.000373742651039241,0.204716810403643,0.00317017769450834,,
0.000377676784208075,0.206917703353709,0.00296278286136431,,
0.000381610917376909,0.201311730001133,0.00270269593771166,,
0.000385545050545743,0.187600691047603,0.00231428352264151,,
0.000389479183714577,0.166571323837211,0.00188309265892794,,
0.000393413316883411,0.139325448036134,0.00132046556196608,,
0.000397347450052245,0.106705451366484,0.000739311977224322,,
0.000401281583221079,0.0700916366588265,0.000123094386490052,,
0.000405215716389913,0.0310601671650628,-0.000489977971612099,,
0.000409149849558748,-0.00821737818204525,-0.00104990657394399,,
0.000413083982727582,-0.0478213672011416,-0.00158287158142922,,
0.000417018115896416,-0.0864135311653681,-0.00211358811712659,,
0.00042095224906525,-0.12179520313978,-0.00258686104377359,,
0.000424886382234084,-0.152512766341264,-0.00286826985256372,,
0.000428820515402918,-0.177211820660658,-0.00306100281013988,,
0.000432754648571752,-0.195040929768934,-0.00317466314115045,,
0.000436688781740586,-0.205288173557484,-0.00314371175265737,,
0.000440622914909421,-0.20741716911008,-0.00298391094104478,,
0.000444557048078255,-0.201498455087688,-0.00272056874267745,,
0.000448491181247089,-0.187783657926811,-0.00232549960287631,,
0.000452425314415923,-0.166775452314709,-0.00189346946298752,,
0.000456359447584757,-0.139434146956315,-0.00131102329439114,,
0.000460293580753591,-0.106610484357763,-0.00074492412338989,,
0.000464227713922425,-0.069733392770828,-0.000115646015738324,,
0.000468161847091259,-0.0304058343567221,0.000486167559231809,,
0.000472095980260093,0.00895022861464383,0.00103352180070937,,
0.000476030113428928,0.0482483862835839,0.00161790766629721,,
0.000479964246597762,0.0865545506687296,0.00214505194038805,,
0.000483898379766596,0.121728538323308,0.00252753522240079,,
0.00048783251293543,0.152297334332438,0.00287448640896848,,
0.000491766646104264,0.176963403155044,0.00308105346287135,,
0.000495700779273098,0.19471859121574,0.00317455638390696,,
0.000499634912441932,0.20486745669967,0.00314775538855372,,
0.000503569045610766,0.207005067219875,0.00298258386638794,,
0.0005075031787796,0.201190455540985,0.00269858660504951,,
0.000511437311948435,0.187456260248342,0.00234208639366384,,
0.000515371445117269,0.166687828264957,0.00187330384091666,,
0.000519305578286103,0.139287027593337,0.00133317460118887,,
0.000523239711454937,0.106733840286595,0.000744559506343112,,
0.000527173844623771,0.070092821939605,0.000126349661204284,,
0.000531107977792605,0.0310494418194812,-0.00046651272951026,,
0.000535042110961439,-0.00822836371121241,-0.00103947557005357,,
0.000538976244130273,-0.0478173199009221,-0.00161565426725208,,
0.000542910377299107,-0.0864202381200175,-0.00215328702990281,,
0.000546844510467942,-0.121961604997375,-0.00257533126148513,,
0.000550778643636776,-0.152430837421107,-0.00287652957836571,,
0.00055471277680561,-0.177299184526824,-0.00310465009850303,,
0.000558646909974444,-0.195107825859704,-0.00316950758750334,,
0.000562581043143278,-0.205285513903054,-0.00315570141230159,,
0.000566515176312112,-0.207399071896241,-0.00298709723415591,,
0.000570449309480946,-0.201463185757204,-0.00271865532439186,,
0.00057438344264978,-0.187752146803674,-0.00235738552785403,,
0.000578317575818614,-0.166760939852493,-0.00185641484500909,,
0.000582251708987449,-0.139464212615088,-0.00132026190199408,,
0.000586185842156283,-0.106477328180542,-0.000719941286012826,,
0.000590119975325117,-0.0697214821444678,-0.000141538753312798,,
0.000594054108493951,-0.0304300025208899,0.000480051190393738,,
0.000597988241662785,0.00892204205954388,0.00105282351031777,,
0.000601922374831619,0.048317392752326,0.00159814607933262,,
0.000605856508000453,0.0866039855499818,0.00213810779230883,,
0.000609790641169287,0.12176531093673,0.00254758259029408,,
0.000613724774338121,0.152377095056049,0.00289514147193959,,
0.000617658907506956,0.176892980131225,0.0030991200732946,,
0.00062159304067579,0.194632672813938,0.00319683087213996,,
0.000625527173844624,0.204773385878854,0.00314125797847797,,
0.000629461307013458,0.207003159206914,0.00298304374374414,,
0.000633395440182292,0.201107370249337,0.00269070299322882,,
0.000637329573351126,0.187685915626511,0.00236148336358166,,
0.00064126370651996,0.166750359053348,0.00187624377115814,,
0.000645197839688794,0.139373668727321,0.00134714501830357,,
0.000649131972857628,0.106787091193769,0.000728608331758362,,
0.000653066106026463,0.0700534185810397,0.00012819574030587,,
0.000657000239195297,0.0310040831477357,-0.000459269661149619,,
0.000660934372364131,-0.00819569621658376,-0.00107236829795765,,
0.000664868505532965,-0.0478397535078529,-0.00160025987275203,,
0.000668802638701799,-0.086470829372761,-0.0021536270106628,,
0.000672736771870633,-0.121917258150684,-0.00254840872711615,,
0.000676670905039467,-0.152530169732207,-0.00287927077589245,,
0.000680605038208301,-0.177239978306471,-0.00309387911385262,,
0.000684539171377135,-0.195055095319702,-0.00318176988872354,,
0.000688473304545969,-0.205248567833908,-0.00314808058754146,,
0.000692407437714804,-0.207452033710542,-0.00297893276866334,,
0.000696341570883638,-0.20159830776596,-0.00270319194828872,,
0.000700275704052472,-0.187815400324247,-0.0023265704601485,,
0.000704209837221306,-0.166854548124712,-0.0018617050770251,,
0.00070814397039014,-0.139481442550308,-0.00134893361273569,,
0.000712078103558974,-0.106529827446246,-0.000721866201232491,,
0.000716012236727808,-0.0697098027924059,-0.000104375735672235,,
0.000719946369896642,-0.0303722417649004,0.00047877667314955,,
0.000723880503065477,0.00894164255632107,0.00103679349961494,,
0.000727814636234311,0.0483075925039375,0.00159630000023103,,
0.000731748769403145,0.0866980274615102,0.00212541189243876,,
0.000735682902571979,0.121940038669063,0.00256536341978864,,
0.000739617035740813,0.15236272714027,0.00287596458618511,,
0.000743551168909647,0.176969387377511,0.0030871435530031,,
0.000747485302078481,0.194702835654171,0.00321235830258892,,
0.000751419435247315,0.204688392574245,0.00312230117688639,,
0.000755353568416149,0.206920796647448,0.00298200245001645,,
0.000759287701584984,0.20108181443938,0.00273611588215594,,
0.000763221834753818,0.18766804968697,0.00234764433999768,,
0.000767155967922652,0.166674905813542,0.00186757836783169,,
0.000771090101091486,0.13953290108167,0.00134272362600729,,
0.00077502423426032,0.106762026841695,0.000745916144544001,,
0.000778958367429154,0.0701988322960681,0.000108161511765736,,
0.000782892500597988,0.0310152999512011,-0.000466933188807417,,
0.000786826633766822,-0.00815938615175757,-0.00104408748296869,,
0.000790760766935656,-0.0478479059268664,-0.0015924353880199,,
0.000794694900104491,-0.0864072867593152,-0.00211868782852331,,
0.000798629033273325,-0.121908354090202,-0.00256385896386657,,
0.000802563166442159,-0.152513691438457,-0.00288628226315568,,
0.000806497299610993,-0.17721488504511,-0.0030834103343218,,
0.000810431432779827,-0.195057697155557,-0.00318681704270807,,
0.000814365565948661,-0.205317776667661,-0.00312700178043501,,
0.000818299699117495,-0.207379760492337,-0.00297733141001233,,
0.000822233832286329,-0.201548352517536,-0.00273404971889146,,
0.000826167965455163,-0.187842401598568,-0.00233279522864915,,
0.000830102098623998,-0.166838590198133,-0.0018424723490198,,
0.000834036231792832,-0.139414546459537,-0.00134257252344749,,
0.000837970364961666,-0.106662578893445,-0.00075336123045755,,
0.0008419044981305,-0.0696906648442252,-0.000130023752797026,,
0.000845838631299334,-0.0304483310090266,0.000488664036308428,,
0.000849772764468168,0.00893065702715392,0.00107451001250247,,
0.000853706897637002,0.0483252560784668,0.00160769510415104,,
0.000857641030805836,0.0866450367379223,0.00212632507747479,,
0.00086157516397467,0.121852906077195,0.00254516823417372,,
0.000865509297143505,0.152398314472914,0.00290297909602488,,
0.000869443430312339,0.176914488640963,0.00309347672116589,,
0.000873377563481173,0.194672047263216,0.00318422694774068,,
0.000877311696650007,0.204690560770791,0.00312761604518919,,
0.000881245829818841,0.206998620448811,0.00298956743252621,,
0.000885179962987675,0.201099506923196,0.00273397088277338,,
0.000889114096156509,0.187517605755955,0.0023477396003071,,
0.000893048229325343,0.166602806051061,0.00186740098656557,,
0.000896982362494177,0.139412840811588,0.00134820602106123,,
0.000900916495663012,0.106744392176453,0.000745400424936982,,
0.000904850628831846,0.0701348271340258,0.000133592729564924,,
0.00090878476200068,0.0310320095192501,-0.000475192914608957,,
0.000912718895169514,-0.00816343345197705,-0.00104426486423481,,
0.000916653028338348,-0.0478091674819086,-0.00161193747276212,,
0.000920587161507182,-0.0863886691783056,-0.00213290296608815,,
0.000924521294676016,-0.121832207027501,-0.00259981480344695,,
0.00092845542784485,-0.152562895045411,-0.00289484090923908,,
0.000932389561013684,-0.177053282129204,-0.00310742907167016,,
0.000936323694182519,-0.195013292490292,-0.00319023327449708,,
0.000940257827351353,-0.205322055242179,-0.00312659610291011,,
0.000944191960520187,-0.207526272760282,-0.00298797921322835,,
0.000948126093689021,-0.201630050163395,-0.00269186746839134,,
0.000952060226857855,-0.188048640454038,-0.00232670678093649,,
0.000955994360026689,-0.166841192033988,-0.00186395683365159,,
0.000959928493195523,-0.139302147150585,-0.00132413965355838,,
0.000963862626364357,-0.106574289930086,-0.000753075449528851,,
0.000967796759533191,-0.0697539183647982,-0.000137999340088957,,
0.000971730892702026,-0.0304109223912837,0.00049818349758235,,
0.00097566502587086,0.00886931151954152,0.00107268035759223,,
0.000979599159039694,0.0482533875902837,0.00161372935203241,,
0.000983533292208528,0.0866175729150044,0.00214759112036234,,
0.000987467425377362,0.12184359728669,0.00254276701740697,,
0.000991401558546196,0.152412393295821,0.00288509315170593,,
0.00099533569171503,0.177055537053612,0.00309229746423112,,
0.000999269824883864,0.194606423181085,0.00317310777023483,,
0.0010032039580527,0.204853146602465,0.00312218949238563,,
0.00100713809122153,0.206978817587023,0.0029911572942436,,
0.00101107222439037,0.200982511037566,0.00271613421102801,,
0.0010150063575592,0.187582564924477,0.00233791136423678,,
0.00101894049072803,0.166792595522067,0.0019095815946466,,
0.00102287462389687,0.139364359936816,0.00133834493660823,,
0.0010268087570657,0.106794260697014,0.000719739268459474,,
0.00103074289023454,0.0700858837106573,0.00011092734557927,,
0.00103467702340337,0.0310024353183606,-0.000475667573737404,,
0.00103861115657221,-0.00815984870035408,-0.00103061964610784,,
0.00104254528974104,-0.0478089362076103,-0.00162814650715015,,
0.00104647942290987,-0.0863667559385458,-0.00212700175415614,,
0.00105041355607871,-0.121883549921714,-0.00254552135428687,,
0.00105434768924754,-0.152515599451417,-0.00288100681291237,,
0.00105828182241638,-0.17726593884645,-0.00309243050018049,,
0.00106221595558521,-0.195026879855315,-0.00320086629594085,,
0.00106615008875404,-0.205190517985046,-0.00314896092419481,,
0.00107008422192288,-0.207585710254934,-0.00297802451088502,,
0.00107401835509171,-0.20160426307914,-0.00271312037192573,,
0.00107795248826055,-0.187969139914012,-0.00233100499179795,,
0.00108188662142938,-0.166895888405526,-0.00187105044187108,,
0.00108582075459821,-0.139425994537301,-0.00130532902726976,,
0.00108975488776705,-0.106609096711973,-0.000746701220887491,,
0.00109368902093588,-0.0697837527492732,-8.34332493537815E-05,,
0.00109762315410472,-0.0304216188275781,0.00047967014915562,,
0.00110155728727355,0.00890273065563951,0.00107235515860449,,
0.00110549142044239,0.0482557870611281,0.00161484291220182,,
0.00110942555361122,0.0866631917703354,0.00212575680045601,,
0.00111335968678005,0.12180445411171,0.00256078107041802,,
0.00111729381994889,0.152429565412466,0.00287352395135887,,
0.00112122795311772,0.177064412204807,0.00307610321161533,,
0.00112516208628656,0.194647936917622,0.00319989562623535,,
0.00112909621945539,0.204749766991145,0.00313064138122554,,
0.00113303035262422,0.207088643969407,0.00296969744589903,,
0.00113696448579306,0.201080629158601,0.00272576535680269,,
0.00114089861896189,0.18750424966523,0.00234151811664507,,
0.00114483275213073,0.166612837573748,0.00187041318324876,,
0.00114876688529956,0.139300614958359,0.00131969362497486,,
0.00115270101846839,0.106694003288721,0.000732814567148576,,
0.00115663515163723,0.070113116259277,0.000153638455039129,,
0.00116056928480606,0.0310484878130009,-0.000486776896728713,,
0.0011645034179749,-0.00820095770686908,-0.00101051972080235,,
0.00116843755114373,-0.0478304447173481,-0.00163769388954904,,
0.00117237168431257,-0.0863665246642475,-0.00213203412636886,,
0.0011763058174814,-0.121861174133357,-0.00258033735499152,,
0.00118023995065023,-0.152433207982664,-0.00288431628745789,,
0.00118417408381907,-0.177268135952283,-0.00306002557075757,,
0.0011881082169879,-0.195092503937445,-0.00317611339724166,,
0.00119204235015674,-0.205217750533665,-0.00314411743018228,,
0.00119597648332557,-0.207578078203091,-0.0029890106524415,,
0.0011999106164944,-0.201558123856638,-0.00271335031060405,,
0.00120384474966324,-0.187852404211968,-0.00232909321593144,,
0.00120777888283207,-0.166855993589076,-0.00186370061626739,,
0.00121171301600091,-0.139404775120436,-0.00133302349862907,,
0.00121564714916974,-0.106622221528399,-0.000733138123717225,,
0.00121958128233857,-0.0696794480407598,-0.000148523961870151,,
0.00122351541550741,-0.0303956004690243,0.000477351053345121,,
0.00122744954867624,0.00892131932736183,0.00102953729190158,,
0.00123138368184508,0.0482677265967756,0.00161438303484562,,
0.00123531781501391,0.0866471760251811,0.00211552781411806,,
0.00123925194818275,0.121754325407563,0.00256672334282815,,
0.00124318608135158,0.152277271287065,0.00288233717240693,,
0.00124712021452041,0.176970110109693,0.0030873997703873,,
0.00125105434768925,0.194774935416652,0.00318498903021691,,
0.00125498848085808,0.20474641351382,0.003119032762819,,
0.00125892261402692,0.207004604671278,0.00299019155179536,,
