Time domain (s),Current (AC) (A),Potential (AC) (V),Frequency (Hz),Column 5
0,-0.323430832795621,-0.00589078501318685,63.096,0.4
0.000236030463500063,-0.339009006977546,-0.00629319964997821,,
0.000472060927000127,-0.351752914634344,-0.00664005006608326,,
0.00070809139050019,-0.3613993656146,-0.00692575916974425,,
0.000944121854000254,-0.368006409767176,-0.00717535963024263,,
0.00118015231750032,-0.371688701325433,-0.00733633740261785,,
0.00141618278100038,-0.371405910677241,-0.0074385611185197,,
0.00165221324450044,-0.368503880782725,-0.0074656439974925,,
0.00188824370800051,-0.362059249006099,-0.00743593923364694,,
0.00212427417150057,-0.352878295369657,-0.00736692109377879,,
0.00236030463500063,-0.339979433933028,-0.00717698341121498,,
0.0025963350985007,-0.324392471327769,-0.00696043955601944,,
0.00283236556200076,-0.306248308806694,-0.0066784230643635,,
0.00306839602550082,-0.284696030407945,-0.00636889167861376,,
0.00330442648900089,-0.261304543152315,-0.00593203500871775,,
0.00354045695250095,-0.235681663648537,-0.00550843673391777,,
0.00377648741600101,-0.207742340773428,-0.00501193032102565,,
0.00401251787950108,-0.177973811654837,-0.0044810302905165,,
0.00424854834300114,-0.14663342676815,-0.00389749703846176,,
0.0044845788065012,-0.114055608748644,-0.00329787494741307,,
0.00472060927000127,-0.0805648354367731,-0.00262010281066027,,
0.00495663973350133,-0.0462861105907439,-0.00197599805920934,,
0.0051926701970014,-0.0114404168025403,-0.001285595066566,,
0.00542870066050146,0.0232995268127858,-0.000591002272101626,,
0.00566473112400152,0.0578460962054826,0.000106208682967956,,
0.00590076158750159,0.0920559880384933,0.000786291728191557,,
0.00613679205100165,0.125353473855597,0.00147957171808555,,
0.00637282251450171,0.157494096723537,0.00217657225199686,,
0.00660885297800178,0.188198101469286,0.00283824437695079,,
0.00684488344150184,0.217503099075597,0.00349352565752703,,
0.0070809139050019,0.244847584455592,0.00408855572577949,,
0.00731694436850197,0.269812488580832,0.00466230160078007,,
0.00755297483200203,0.292401974388684,0.00516471656530726,,
0.00778900529550209,0.312553597818621,0.00566068854570023,,
0.00802503575900216,0.329550871094644,0.00609285263755677,,
0.00826106622250222,0.344613534865757,0.0064814465147407,,
0.00849709668600228,0.355687410814849,0.00680430705668389,,
0.00873312714950235,0.364125684861016,0.00707763855469823,,
0.00896915761300241,0.369419784822393,0.00726331567434313,,
0.00920518807650247,0.371163361756945,0.00743363391157814,,
0.00944121854000254,0.370029886421192,0.00747901412063801,,
0.0096772490035026,0.365599827238099,0.00749763173779749,,
0.00991327946700266,0.35816967785803,0.00744089251046676,,
0.0101493099305027,0.347123092276132,0.00733007318336165,,
0.0103853403940028,0.333540815288156,0.00711344739426378,,
0.0106213708575029,0.316998458556802,0.00688714968042792,,
0.0108574013210029,0.297238151239515,0.00657078053810611,,
0.011093431784503,0.275257841933268,0.00620508718661039,,
0.011329462248003,0.250861178758843,0.0058127764896776,,
0.0115654927115031,0.22422323636002,0.00533283003571716,,
0.0118015231750032,0.195585927652774,0.00478950770834174,,
0.0120375536385032,0.165040577075629,0.004256460637166,,
0.0122735841020033,0.133352789283674,0.00362775945934368,,
0.0125096145655034,0.100279668445166,0.00302232750976961,,
0.0127456450290034,0.0663059076706747,0.0023653628599285,,
0.0129816754925035,0.0318615326085197,0.00167941595428855,,
0.0132177059560036,-0.00290338863101805,0.000994850752183307,,
0.0134537364195036,-0.0374950854211621,0.000309110543433633,,
0.0136897668830037,-0.0721179464229961,-0.000395805922718484,,
0.0139257973465037,-0.106193959346604,-0.00108375089829327,,
0.0141618278100038,-0.139053180368513,-0.00179190189145162,,
0.0143978582735039,-0.170600844845012,-0.00247688234947097,,
0.0146338887370039,-0.200778902927239,-0.00308566614050187,,
0.014869919200504,-0.229370881872027,-0.0037388748657774,,
0.0151059496640041,-0.255361256235733,-0.0043100584441973,,
0.0153419801275041,-0.279670728999716,-0.00486373609954072,,
0.0155780105910042,-0.30134697042233,-0.00535960007615355,,
0.0158140410545042,-0.320630101043741,-0.005843799644496,,
0.0160500715180043,-0.336930776133418,-0.00625580985852547,,
0.0162861019815044,-0.350042930291614,-0.00660144802530338,,
0.0165221324450044,-0.360126142784126,-0.00692698072974185,,
0.0167581629085045,-0.367271188773021,-0.00714313726103599,,
0.0169941933720046,-0.371159083182427,-0.00732129135874393,,
0.0172302238355046,-0.371729463420501,-0.00744967247294959,,
0.0174662542990047,-0.369305014951883,-0.00747894708380858,,
0.0177022847625048,-0.363119815119326,-0.00745216214629885,,
0.0179383152260048,-0.354189620640769,-0.00738011803844874,,
0.0181743456895049,-0.342101375619526,-0.00722450693667298,,
0.0184103761530049,-0.326916136470338,-0.00703146880076178,,
0.018646406616505,-0.308870207707447,-0.00674471503984675,,
0.0188824370800051,-0.288280839849487,-0.00640515115464213,,
0.0191184675435051,-0.265091601967682,-0.0060021406349251,,
0.0193544980070052,-0.239651082248079,-0.00557359466970775,,
0.0195905284705053,-0.211921004794316,-0.00509276370202993,,
0.0198265589340053,-0.18242705608633,-0.00455483039086335,,
0.0200625893975054,-0.151379927009831,-0.0039833488709804,,
0.0202986198610055,-0.119030839271301,-0.00337054287020111,,
0.0205346503245055,-0.0855987518126123,-0.00272411603747358,,
0.0207706807880056,-0.0512804212430068,-0.00206329490782275,,
0.0210067112515056,-0.0166114788372453,-0.00137727165468338,,
0.0212427417150057,0.0182283752749273,-0.000701806702133378,,
0.0214787721785058,0.052709320585494,-1.62284990543604E-05,,
0.0217148026420058,0.0870352253883674,0.000679837243517056,,
0.0219508331055059,0.120619722609607,0.00137906116559483,,
0.022186863569006,0.152872108782179,0.00208394597546624,,
0.022422894032506,0.184000241681642,0.00272997244935302,,
0.0226589244960061,0.21328931027066,0.00337130634519989,,
0.0228949549595062,0.240655043976808,0.00399349750205902,,
0.0231309854230062,0.266097066979349,0.00456280404926313,,
0.0233670158865063,0.289257569029596,0.00508471928253318,,
0.0236030463500063,0.309640004209192,0.00560169613605677,,
0.0238390768135064,0.327381055628407,0.00602185318696069,,
0.0240751072770065,0.342359073006358,0.00640763151732049,,
0.0243111377405065,0.354337462735929,0.00676535121041733,,
0.0245471682040066,0.363168903089131,0.00702135741236676,,
0.0247831986675067,0.368773141884469,0.00725866406325437,,
0.0250192291310067,0.371349075018444,0.00740153071895655,,
0.0252552595945068,0.370228319769096,0.00748293205087425,,
0.0254912900580068,0.36658366810288,0.00751229045776913,,
0.0257273205215069,0.359230301789832,0.0074475328808199,,
0.025963350985007,0.349249428174298,0.00732079230679394,,
0.026199381448507,0.335720806823517,0.00716433952038598,,
0.0264354119120071,0.319602375880866,0.00693303266570622,,
0.0266714423755072,0.300283108650353,0.00661654434679937,,
0.0269074728390072,0.278644622756928,0.00628346068841168,,
0.0271435033025073,0.254610597682169,0.00585948998678365,,
0.0273795337660074,0.228270796763085,0.00537476902088097,,
0.0276155642295074,0.199915845064722,0.00484632514530636,,
0.0278515946930075,0.169832378170482,0.00430828755462764,,
0.0280876251565075,0.138166763801872,0.00374060478839633,,
0.0283236556200076,0.105277708395488,0.00309012036537171,,
0.0285596860835077,0.071411287804675,0.00246167988632973,,
0.0287957165470077,0.0369375119973542,0.00177708116580932,,
0.0290317470105078,0.00219620964552588,0.00109288839053212,,
0.0292677774740079,-0.0324553871878664,0.000389552876267629,,
0.0295038079375079,-0.067040377023361,-0.000331122831135122,,
0.029739838401008,-0.101116043035521,-0.000979339174773664,,
0.0299758688645081,-0.134227179586805,-0.00167947181831263,,
0.0302118993280081,-0.166051448124019,-0.00233627073821552,,
0.0304479297915082,-0.196473731865204,-0.00302633109817618,,
0.0306839602550082,-0.225090052429883,-0.00367499435400909,,
0.0309199907185083,-0.251674281372937,-0.00425656305454325,,
0.0311560211820084,-0.276452315865186,-0.00479832305137329,,
0.0313920516455084,-0.29831161089487,-0.00533880376204721,,
0.0316280821090085,-0.317715871429992,-0.0057719361636579,,
0.0318641125725086,-0.33449175738401,-0.00620743719989836,,
0.0321001430360086,-0.348251884307345,-0.00655863569922666,,
0.0323361734995087,-0.358797992307817,-0.00689578439644789,,
0.0325722039630088,-0.366461497454826,-0.00710838238939493,,
0.0328082344265088,-0.37095186141119,-0.00728743031149159,,
0.0330442648900089,-0.371911476293228,-0.00743301940731067,,
0.0332802953535089,-0.370029597328319,-0.00748231196020432,,
0.033516325817009,-0.364445710671227,-0.00749430596621803,,
0.0337523562805091,-0.355752109799786,-0.00741494925758923,,
0.0339883867440091,-0.34411114927137,-0.00726509959885169,,
0.0342244172075092,-0.329343591504833,-0.00705311238590323,,
0.0344604476710093,-0.311804384729421,-0.00677322803784097,,
0.0346964781345093,-0.29158164445277,-0.00648107967431422,,
0.0349325085980094,-0.268743480955718,-0.0061073419033213,,
0.0351685390615094,-0.243437447240551,-0.0056404396990315,,
0.0354045695250095,-0.215989582249235,-0.00515543755087355,,
0.0356405999885096,-0.186918171684163,-0.00462742382828552,,
0.0358766304520096,-0.155920477488916,-0.00406875379130511,,
0.0361126609155097,-0.123830937331603,-0.00344677119346981,,
0.0363486913790098,-0.090598266136586,-0.00281748902979517,,
0.0365847218425098,-0.0563656226944843,-0.00214712073839429,,
0.0368207523060099,-0.0217418365954573,-0.00148569069087845,,
0.03705678276951,0.0130427140501449,-0.000790414493183622,,
0.03729281323301,0.0475930416501884,-0.000111435693506134,,
0.0375288436965101,0.0820954376519183,0.000597350287394605,,
0.0377648741600101,0.115642959894724,0.0013106538057257,,
0.0380009046235102,0.148204530894777,0.00198371846736523,,
0.0382369350870103,0.179462871224158,0.00263377087526884,,
0.0384729655505103,0.209096278333992,0.0032926609718138,,
0.0387089960140104,0.236913054740314,0.00388886046030779,,
0.0389450264775105,0.262713061447268,0.00447893352747197,,
0.0391810569410105,0.285906866996464,0.00504389012931883,,
0.0394170874045106,0.306722016388097,0.00552298000157325,,
0.0396531178680107,0.324885605950225,0.0059927443060408,,
0.0398891483315107,0.34027945451644,0.00638620952614222,,
0.0401251787950108,0.352851294095336,0.00672451833293408,,
0.0403612092585108,0.3622845101726,0.00698840508657606,,
0.0405972397220109,0.367950267931275,0.00724172609109175,,
0.040833270185511,0.3710366234415,0.00735843721062457,,
0.041069300649011,0.370699194240345,0.00744580482033541,,
0.0413053311125111,0.367125081235097,0.00747359158601402,,
0.0415413615760112,0.360232413324175,0.00745873547982301,,
0.0417773920395112,0.350940505843145,0.00735627341075062,,
0.0420134225030113,0.337821240000278,0.00720488562921062,,
0.0422494529665114,0.322220169662825,0.00694642513446109,,
0.0424854834300114,0.303331072627068,0.00668157007106496,,
0.0427215138935115,0.281987230189622,0.00632017824943931,,
0.0429575443570115,0.258343827404617,0.00592575216812019,,
0.0431935748205116,0.232271119390731,0.00544215220697186,,
0.0434296052840117,0.204436823956317,0.00494574821145743,,
0.0436656357475117,0.17440883398437,0.00442830210013012,,
0.0439016662110118,0.14291968190533,0.00380975700192243,,
0.0441376966745119,0.110164303043338,0.00319727873675202,,
0.0443737271380119,0.0765111173555172,0.00254115204727512,,
0.044609757601512,0.042031357325729,0.00185243056176265,,
0.044845788065012,0.00729259899118151,0.00121864948199901,,
0.0450818185285121,-0.0273828480042184,0.000481557199993876,,
0.0453178489920122,-0.0620180243624346,-0.000192252315303065,,
0.0455538794555122,-0.096131214629487,-0.000896273094932454,,
0.0457899099190123,-0.129468479625891,-0.00159379688853756,,
0.0460259403825124,-0.161499738660043,-0.00226309445280659,,
0.0462619708460124,-0.192113054971588,-0.00291858056813865,,
0.0464980013095125,-0.221120171281745,-0.00355270428058452,,
0.0467340317730126,-0.247949377525226,-0.00415780663241527,,
0.0469700622365126,-0.272574597524902,-0.00470816596471657,,
0.0472060927000127,-0.295215137134095,-0.00522782056713744,,
0.0474421231635127,-0.314877384148922,-0.0057185897447356,,
0.0476781536270128,-0.332199829088294,-0.00613511190979255,,
0.0479141840905129,-0.346362142016296,-0.00651062057035512,,
0.0481502145540129,-0.357643239736625,-0.00683543821528287,,
0.048386245017513,-0.365290844775629,-0.00708107419219139,,
0.0486222754810131,-0.370307357760525,-0.00729708547702224,,
0.0488583059445131,-0.372029426185339,-0.00740431274736597,,
0.0490943364080132,-0.370364713786492,-0.00747917053990577,,
0.0493303668715133,-0.36529934410609,-0.00749993705986585,,
0.0495663973350133,-0.357257705481432,-0.00744167460680645,,
0.0498024277985134,-0.345833275514759,-0.00728412316125393,,
0.0500384582620134,-0.331606379238969,-0.00709572173935813,,
0.0502744887255135,-0.314871139742869,-0.00681619119678301,,
0.0505105191890136,-0.294791673893989,-0.00655050189729112,,
0.0507465496525136,-0.272230634824821,-0.0061507854928724,,
0.0509825801160137,-0.247268968539757,-0.00572526363350345,,
0.0512186105795138,-0.220342858365307,-0.00525111958953195,,
0.0514546410430138,-0.191289660651222,-0.00474751099701942,,
0.0516906715065139,-0.160665763540532,-0.00416297777892982,,
0.051926701970014,-0.128632191763397,-0.00358631207759341,,
0.052162732433514,-0.0955278199853372,-0.00292598441349012,,
0.0523987628970141,-0.0614282749018819,-0.00227699342204835,,
0.0526347933605141,-0.0268753743752703,-0.00159330714725803,,
0.0528708238240142,0.00793322879735052,-0.000902008468091964,,
0.0531068542875143,0.0425068572829433,-0.00021879889964227,,
0.0533428847510143,0.0770141389542239,0.000496513861428571,,
0.0535789152145144,0.110828754102228,0.0012030820405653,,
0.0538149456780145,0.14336789149535,0.00186464616173954,,
0.0540509761415145,0.17484386093939,0.0025208026453627,,
0.0542870066050146,0.204851036224493,0.00319345018895456,,
0.0545230370685146,0.232871276194705,0.00381552216922865,,
0.0547590675320147,0.259104257297282,0.00441055968601756,,
0.0549950979955148,0.282620690492545,0.00497703206505618,,
0.0552311284590148,0.303980259582272,0.00546666906509552,,
0.0554671589225149,0.322543953680384,0.00591082530083176,,
0.055703189386015,0.338227820216611,0.00631684130505539,,
0.055939219849515,0.35077005668533,0.00665821146037793,,
0.0561752503130151,0.360806436132446,0.00694770628275121,,
0.0564112807765152,0.367554095058362,0.00720244623348387,,
0.0566473112400152,0.371140696875715,0.00736139800391156,,
0.0568833417035153,0.371130289532294,0.00746908894565701,,
0.0571193721670153,0.368378587931645,0.00750473764168635,,
0.0573554026305154,0.361832600193808,0.00748957242122739,,
0.0575914330940155,0.352268251589433,0.00736287653842105,,
0.0578274635575155,0.340100216935292,0.00721635637553053,,
0.0580634940210156,0.324595587980212,0.00699860958167831,,
0.0582995244845157,0.306477096906244,0.00670037017737046,,
0.0585355549480157,0.285400607557582,0.00639742702221824,,
0.0587715854115158,0.261888568573986,0.00598611510849256,,
0.0590076158750159,0.236151670841168,0.0055457166594568,,
0.0592436463385159,0.208543070212564,0.00505212448649806,,
0.059479676802016,0.178861558048692,0.00448828888940556,,
0.059715707265516,0.147607149382382,0.00394413977447039,,
0.0599517377290161,0.115051157874774,0.00328659786304497,,
0.0601877681925162,0.0814807394764412,0.00264420999927317,,
0.0604237986560162,0.0471404378485015,0.00199413152149175,,
0.0606598291195163,0.0124446676241423,0.00129860207355348,,
0.0608958595830164,-0.0222295940904791,0.000584704534430713,,
0.0611318900465164,-0.056817590491851,-0.000117005336727427,,
0.0613679205100165,-0.0912094662883019,-0.000803138455781394,,
0.0616039509735166,-0.124618195042867,-0.00148141523088663,,
0.0618399814370166,-0.156941322241418,-0.00216355221007003,,
0.0620760119005167,-0.187828467322098,-0.00284120517023778,,
0.0623120423640167,-0.216919998751119,-0.0034590016905196,,
0.0625480728275168,-0.2441072176083,-0.00407931581616294,,
0.0627841032910169,-0.269281424973461,-0.00464598371928648,,
0.0630201337545169,-0.292070269226411,-0.0051486146913744,,
0.063256164218017,-0.312284567991175,-0.00563479370831033,,
0.0634921946815171,-0.329837766861631,-0.00607842854648633,,
0.0637282251450171,-0.344556352295513,-0.00646619936037895,,
0.0639642556085172,-0.356172797748313,-0.00678100431002093,,
0.0642002860720172,-0.364682998101238,-0.00705183309974711,,
0.0644363165355173,-0.369891064023664,-0.00726590404080119,,
0.0646723469990174,-0.371957442060006,-0.00739711746103788,,
0.0649083774625174,-0.370413743937722,-0.00746599966511363,,
0.0651444079260175,-0.366070181342177,-0.00748581463452691,,
0.0653804383895176,-0.358677035849829,-0.00743157252908189,,
0.0656164688530176,-0.347942728389151,-0.00731351508656397,,
0.0658524993165177,-0.333960520320916,-0.00713518222397802,,
0.0660885297800178,-0.317327099334624,-0.00687610722496101,,
0.0663245602435178,-0.297704804954821,-0.00656084046605177,,
0.0665605907070179,-0.275683155367761,-0.00619781555278243,,
0.0667966211705179,-0.251085861739599,-0.00579157236819361,,
0.067032651634018,-0.22443277087424,-0.00530635979887739,,
0.0672686820975181,-0.195711220503854,-0.0047978165508864,,
0.0675047125610181,-0.165170813414834,-0.00425049808364042,,
0.0677407430245182,-0.133500111011663,-0.00363450410920851,,
0.0679767734880183,-0.100323003466802,-0.00303634006919395,,
0.0682128039515183,-0.0664931820336874,-0.00239934494589944,,
0.0684488344150184,-0.0319343261938957,-0.00168788866463832,,
0.0686848648785185,0.00281440584476407,-0.000999733267905256,,
0.0689208953420185,0.0374694717926302,-0.000317343038478413,,
0.0691569258055186,0.0719584827943486,0.000381136029941942,,
0.0693929562690186,0.10583577327718,0.00110830686123453,,
0.0696289867325187,0.138757438359618,0.00178512558530608,,
0.0698650171960188,0.170379341885857,0.0024545143941479,,
0.0701010476595188,0.200644590378527,0.00309293963646384,,
0.0703370781230189,0.228885494938562,0.00372122369623806,,
0.070573108586519,0.255126570641578,0.0043322569453137,,
0.070809139050019,0.279331969971345,0.00484921517749592,,
0.0710451695135191,0.300996358586174,0.00537761808611936,,
0.0712811999770192,0.320024220200885,0.00584524838485967,,
0.0715172304405192,0.336046903584058,0.00626556930356781,,
0.0717532609040193,0.349224681824384,0.00662636151799978,,
0.0719892913675193,0.359660934533184,0.00691917838768408,,
0.0722253218310194,0.366337592249536,0.00715944955612713,,
0.0724613522945195,0.370357602101821,0.00733076962153101,,
0.0726973827580195,0.371263966076686,0.00745179344373881,,
0.0729334132215196,0.368637152597095,0.00747188959540734,,
0.0731694436850197,0.363070380238074,0.00747056375589805,,
0.0734054741485197,0.353815476644765,0.00739520318713938,,
0.0736415046120198,0.34222354626758,0.00723703723731983,,
0.0738775350755198,0.327066985131375,0.00700410660166773,,
0.0741135655390199,0.309254238679701,0.00674698311923283,,
0.07434959600252,0.288450884277279,0.00641605953645108,,
0.07458562646602,0.265567680110642,0.00604539056252573,,
0.0748216569295201,0.240199202334945,0.0056064222325114,,
0.0750576873930202,0.212498785809934,0.00511411493211122,,
0.0752937178565202,0.183271756551423,0.0045618990520695,,
0.0755297483200203,0.152293720671528,0.00397380357136479,,
0.0757657787835204,0.119863022015,0.00339358864235217,,
0.0760018092470204,0.0864302407334171,0.0027440650805457,,
0.0762378397105205,0.0522744959954855,0.00210092863884848,,
0.0764738701740205,0.0175963026177938,0.00141183472650797,,
0.0767099006375206,-0.0171002192480347,0.000705415518102548,,
0.0769459311010207,-0.0517093772476971,2.1714346239321E-05,,
0.0771819615645207,-0.0861687851392387,-0.000688697277768213,,
0.0774179920280208,-0.119723505794578,-0.00138993230472018,,
0.0776540224915209,-0.152112314893834,-0.002067212838059,,
0.0778900529550209,-0.183107233797501,-0.00275961576277162,,
