Time domain (s),Current (AC) (A),Potential (AC) (V),Frequency (Hz),Column 5
0,0.12854596272695,0.00172106391780202,10000,0.3
3.125E-06,0.120407289164288,0.0014533839850448,,
6.25E-06,0.107625159350634,0.00113632154688981,,
9.375E-06,0.0906453072048833,0.000787177201165168,,
1.25E-05,0.0702010045609527,0.00037344544318918,,
1.5625E-05,0.0471854220446388,-2.79425463198812E-05,,
1.875E-05,0.0224423027777278,-0.000426972883482701,,
2.1875E-05,-0.0023118262965891,-0.000770363368439497,,
2.5E-05,-0.0274128809335048,-0.00113158766337751,,
2.8125E-05,-0.0520343091723732,-0.00150344833316174,,
3.125E-05,-0.0748567535418224,-0.00176117559167421,,
3.4375E-05,-0.0948611537326466,-0.00196028481302379,,
3.75E-05,-0.11109973327342,-0.00208788043776797,,
4.0625E-05,-0.122920487637433,-0.00211097019612305,,
4.375E-05,-0.130056802208903,-0.00205807629361487,,
4.6875E-05,-0.132032549469257,-0.00196425139124123,,
5E-05,-0.128896200562116,-0.00173259021815841,,
5.3125E-05,-0.120623170027721,-0.00147502459538584,,
5.625E-05,-0.107733251400462,-0.0011289699075423,,
5.9375E-05,-0.090753609187479,-0.000771420503336451,,
6.25E-05,-0.0701513204724476,-0.000386825909850952,,
6.5625E-05,-0.0468124881446301,3.54874054027121E-05,,
6.875E-05,-0.0221055472914614,0.00042513915388076,,
7.1875E-05,0.00292361703523241,0.000827030629430237,,
7.5E-05,0.0278925306574152,0.00113352357649399,,
7.8125E-05,0.0523044926452154,0.00145880156915856,,
8.125E-05,0.074860952197189,0.00175693218902895,,
8.4375E-05,0.0948036788058502,0.00193965117476447,,
8.75E-05,0.110828733395368,0.00207729794150247,,
9.0625E-05,0.122667448674004,0.00211112254245327,,
9.375E-05,0.129610205233073,0.00205484357881502,,
9.6875E-05,0.13169297155355,0.00194123037452298,,
0.0001,0.128549228347791,0.00174418340227023,,
0.000103125,0.120305401794057,0.00144536908179838,,
0.00010625,0.107522268968289,0.0011426011882838,,
0.000109375,0.0905724372084092,0.000772834351591367,,
0.0001125,0.0701687448922191,0.000356616747406946,,
0.000115625,0.0471643821160794,-2.77196004683233E-06,,
0.00011875,0.0224921034955485,-0.000428925517537593,,
0.000121875,-0.00225264858178286,-0.000778558486246084,,
0.000125,-0.0273275549261097,-0.00113596297565044,,
0.000128125,-0.052141048322138,-0.00148347981668229,,
0.00013125,-0.0748496158276991,-0.00176340319227508,,
0.000134375,-0.0949701321652736,-0.0019467724367348,,
0.0001375,-0.111007409507081,-0.0020682853555849,,
0.000140625,-0.122988039337109,-0.00209062824534811,,
0.00014375,-0.130100281617811,-0.00208025383187405,,
0.000146875,-0.132050696990786,-0.00193005707175908,,
0.00015,-0.128752046727862,-0.00173839424174238,,
0.000153125,-0.120773808451931,-0.00148121877420415,,
0.00015625,-0.107807380993546,-0.0011202527248737,,
0.000159375,-0.0907005195229544,-0.000762166392750174,,
0.0001625,-0.070077564093174,-0.000374240616714427,,
0.000165625,-0.0467704549392375,3.56676199633199E-05,,
0.00016875,-0.0220145297734583,0.000411381537158917,,
0.000171875,0.00287052737070777,0.000777989974333426,,
0.000175,0.0278018863532224,0.00116268117768703,,
0.000178125,0.0522014156559648,0.00145484799611539,,
0.00018125,0.0750240699581823,0.00175613701550326,,
0.000184375,0.0946864896693951,0.0019765970175909,,
0.0001875,0.110862602548658,0.0020572328151558,,
0.000190625,0.122600899986443,0.00210757398770101,,
0.00019375,0.129818831753068,0.00205393321660097,,
0.000196875,0.131688259729194,0.00193040263782418,,
0.0002,0.128581488016524,0.00175153689950003,,
0.000203125,0.120379927926815,0.00147553365507314,,
0.00020625,0.10762905476978,0.00116822509778114,,
0.000209375,0.0906675600783264,0.000787192064221731,,
0.0002125,0.0700817860744037,0.000393558874469679,,
0.000215625,0.0471680442765936,-4.39593476375677E-05,,
0.00021875,0.0224165743506756,-0.000441477368796406,,
0.000221875,-0.00234308295320729,-0.000794330047131364,,
0.000225,-0.0274537011940136,-0.00118249920571811,,
0.000228125,-0.0520208268234737,-0.00149546501391029,,
0.00023125,-0.0748257301438357,-0.00174408493452027,,
0.000234375,-0.0948354019797313,-0.00195132610568649,,
0.0002375,-0.111097074125021,-0.00204625273212677,,
0.000240625,-0.122855128568892,-0.0021036538565351,,
0.00024375,-0.130155610565198,-0.00207056311900145,,
0.000246875,-0.132102993575964,-0.00192246204986013,,
0.00025,-0.128779384639471,-0.00173096457134791,,
0.000253125,-0.120713394466378,-0.00148037529574507,,
0.00025625,-0.107708572637251,-0.00112996201656701,,
0.000259375,-0.090647476510156,-0.000774816711758941,,
0.0002625,-0.0701600909969912,-0.000356566584590823,,
0.000265625,-0.0468194392518481,2.83178384981042E-05,,
0.00026875,-0.0221251410165057,0.000427918545456318,,
0.000271875,0.00291605945557249,0.000771030348102553,,
0.000275,0.0278806811189361,0.00115160448479079,,
0.000278125,0.0522116090581604,0.00147738410561393,,
0.00028125,0.074849125984573,0.00177939026748053,,
0.000284375,0.0947524085586511,0.00195043432229358,,
0.0002875,0.11081749032933,0.00206409211575487,,
0.000290625,0.122812792127279,0.00210807933162416,,
0.00029375,0.129754149134559,0.00205586541395286,,
0.000296875,0.13163843568551,0.00193669342651015,,
0.0003,0.128607426376345,0.00175771249949763,,
0.000303125,0.120496487264965,0.00148405018647813,,
0.00030625,0.107595582156163,0.00113843953244874,,
0.000309375,0.090541180551791,0.000769322954480955,,
0.0003125,0.0702063228577504,0.000405722428376443,,
0.000315625,0.0470678130426471,-1.71463936160521E-05,,
0.00031875,0.022479250944954,-0.000439900026919737,,
0.000321875,-0.00226102256665295,-0.000782004857484697,,
0.000325,-0.0273201373016287,-0.00115815723484847,,
0.000328125,-0.0521388090392758,-0.00147692520874276,,
0.00033125,-0.0748236774678787,-0.00174101199757803,,
0.000334375,-0.0949036068035758,-0.00195696663564826,,
0.0003375,-0.110978672043682,-0.00207461144403043,,
0.000340625,-0.12290112717102,-0.00212100275929661,,
0.00034375,-0.130074529864896,-0.00207497001526935,,
0.000346875,-0.13204561195262,-0.00195082076176378,,
0.00035,-0.128764502738783,-0.00174382483103086,,
0.000353125,-0.120653820211898,-0.00143128261994985,,
0.00035625,-0.107706706568199,-0.00112313244208107,,
0.000359375,-0.0908175220525043,-0.000765679647742878,,
0.0003625,-0.070096178131966,-0.000386924377600462,,
0.000365625,-0.046756972590338,2.47897204488368E-05,,
0.00036875,-0.0220453199128135,0.000432975700448424,,
0.000371875,0.00286217671170082,0.000801566497790951,,
0.000375,0.0278035191636428,0.00115918464363274,,
0.000378125,0.0522199830430305,0.0014911918851519,,
0.00038125,0.075008558259189,0.0017415340624396,,
0.000384375,0.0947665207058555,0.00192330924408424,,
0.0003875,0.110923646332517,0.00207045350395996,,
0.000390625,0.122626185222095,0.00210557490659458,,
0.00039375,0.129746801487668,0.00208269694679553,,
0.000396875,0.1316862303791,0.00192225396706869,,
0.0004,0.128592311217025,0.00174168269300523,,
0.000403125,0.120386879034033,0.00148219602017319,,
0.00040625,0.107524928116688,0.00115547631102286,,
0.000409375,0.0906516285137964,0.000790199975291728,,
0.0004125,0.0701691414318926,0.000370762661481283,,
0.000415625,0.047169677087014,-1.36015546279289E-05,,
0.00041875,0.0224349551308362,-0.000421592457010345,,
0.000421875,-0.00236554575941873,-0.00076559790093178,,
0.000425,-0.0274308418481287,-0.00115297002811143,,
0.000428125,-0.0519904565496551,-0.00148549561872757,,
0.00043125,-0.0748112214569577,-0.00175598838493718,,
0.000434375,-0.0948352153728261,-0.00194140501543716,,
0.0004375,-0.11105401458165,-0.00207322917977093,,
0.000440625,-0.123033758028879,-0.00211103522199574,,
0.00044375,-0.130099861752274,-0.00205875813633405,,
0.000446875,-0.132027464431091,-0.0019207880981158,,
0.00045,-0.128931515918922,-0.00172837654162583,,
0.000453125,-0.120491892069925,-0.00148704137660882,,
0.00045625,-0.10765039793456,-0.00113474234713085,,
0.000459375,-0.0906215381503356,-0.000804834512349917,,
0.0004625,-0.0701190374778509,-0.000393086972423795,,
0.000465625,-0.0469105034215776,5.65464986563846E-05,,
0.00046875,-0.0221092327778388,0.000436992441481987,,
0.000471875,0.00292196089894891,0.000787875764823198,,
0.000475,0.0278770189584218,0.00113476092595199,,
0.000478125,0.0523020434295849,0.00148798889646473,,
0.00048125,0.0748854676793574,0.00175359914859685,,
0.000484375,0.094710771892932,0.00193883742241807,,
0.0004875,0.110792158441952,0.00205645250468667,,
0.000490625,0.122749905600232,0.00211066178770025,,
0.00049375,0.129722892477941,0.00205484357881502,,
0.000496875,0.1316754071786,0.00191092088644718,,
0.0005,0.12869520159937,0.00172803840708946,,
0.000503125,0.12039359688262,0.00147795633329117,,
0.00050625,0.107666842668079,0.0011436564652989,,
0.000509375,0.0905757028292499,0.000776754482757269,,
0.0005125,0.0702204116790917,0.000375771511539558,,
0.000515625,0.0470792660414527,-4.78794788034698E-05,,
0.00051875,0.0224859687935406,-0.000433510770484258,,
0.000521875,-0.00227693080531983,-0.000792815873244646,,
0.000525,-0.027379804859561,-0.00114747441295071,,
0.000528125,-0.052110444789688,-0.00148520207336045,,
0.00053125,-0.0747849098833268,-0.00176306134197457,,
0.000534375,-0.09489133739956,-0.00194329262361936,,
0.0005375,-0.111009462183038,-0.00207056311900145,,
0.000540625,-0.122940687834919,-0.00211750808312461,,
0.00054375,-0.130129438946746,-0.00204259642021487,,
0.000546875,-0.132063992732781,-0.00194870649196899,,
0.00055,-0.128871288540274,-0.00173958142838471,,
0.000553125,-0.120727483287719,-0.00147562469129436,,
0.00055625,-0.107808593938429,-0.00115056221294951,,
0.000559375,-0.0906500890068286,-0.000769581200088076,,
0.0005625,-0.0700986040217334,-0.000368111463768361,,
0.000565625,-0.0467380319894619,3.6007612381983E-05,,
0.00056875,-0.0220226471738338,0.000421479126204716,,
0.000571875,0.00283971390548939,0.000782835330769949,,
0.000575,0.0277745251157499,0.00112897176542459,,
0.000578125,0.0521383191961497,0.0014980177438737,,
0.00058125,0.0749605769586937,0.00173826790576204,,
0.000584375,0.0946742435912424,0.00195688860460175,,
0.0005875,0.110870976533529,0.00205466522213626,,
0.000590625,0.122685619521396,0.00210224186616292,,
0.00059375,0.129672695220447,0.00205430479301505,,
0.000596875,0.13173113266566,0.00191849732952498,,
0.0006,0.128537798674848,0.00174673984799734,,
0.000603125,0.120406052893541,0.00146528557757986,,
0.00060625,0.107653943465759,0.0011267943276394,,
0.000609375,0.0906922621674,0.000765923030294324,,
0.0006125,0.0701662956765886,0.000370372506246941,,
0.000615625,0.0471649885885212,-3.11938399408795E-05,,
0.00061875,0.0223881867752246,-0.000445821097074361,,
0.000621875,-0.00233512883387386,-0.000781499513561545,,
0.000625,-0.0274030840709827,-0.00115004200597024,,
0.000628125,-0.0520281977962284,-0.0014713013997194,,
0.00063125,-0.0748651508525556,-0.00175255873463787,,
0.000634375,-0.0948982885067781,-0.00194942177656543,,
0.0006375,-0.111218321961664,-0.0020735877510103,,
0.000640625,-0.122900474046852,-0.0020920755354803,,
0.00064375,-0.13009575640036,-0.00205677577616648,,
0.000646875,-0.131988276981003,-0.00193164927669232,,
0.00065,-0.128929883108502,-0.00173527114198446,,
0.000653125,-0.120689508782514,-0.00144076339214871,,
0.00065625,-0.107713237809881,-0.00111856205219096,,
0.000659375,-0.0906733682182502,-0.00077359794112164,,
0.0006625,-0.0702033371472675,-0.000394437652687873,,
0.000665625,-0.0468702896335106,9.56995053824627E-06,,
0.00066875,-0.0220761567038951,0.00043700730453855,,
0.000671875,0.00292524984565276,0.000786900376736899,,
0.000675,0.0278555591643258,0.00113188120874463,,
0.000678125,0.0522887710134537,0.001450782950148,,
0.00068125,0.0748950546091112,0.00175423454426449,,
0.000684375,0.0947087425428382,0.00192228740894596,,
0.0006875,0.110875665032021,0.00208552464330447,,
0.000690625,0.122595791622414,0.00211170591742293,,
0.00069375,0.129743722473732,0.0020552002921721,,
0.000696875,0.131765445010351,0.00195729362289265,,
0.0007,0.128609479052302,0.00172023530239906,,
0.000703125,0.120513445167474,0.00146019869647462,,
0.00070625,0.107591290197343,0.00115425754038556,,
0.000709375,0.0905824440036997,0.0007491928022616,,
0.0007125,0.0701899714276837,0.000371658160638777,,
0.000715625,0.0470833480675036,-4.07247749554251E-05,,
0.00071875,0.0224802772829326,-0.000437852640879477,,
0.000721875,-0.00228714753337861,-0.000772314144612096,,
0.000725,-0.0273426700854296,-0.00114178186229097,,
0.000728125,-0.0521180023693479,-0.00145539978708964,,
0.00073125,-0.0748539077865183,-0.00173231339373014,,
0.000734375,-0.0949201215146845,-0.00196643068690872,,
0.0007375,-0.111064837782151,-0.00208862916424168,,
0.000740625,-0.122985800054247,-0.00209249727470961,,
0.00074375,-0.129938773341375,-0.00204519745511167,,
0.000746875,-0.132019253727263,-0.00192088656586575,,
0.00075,-0.128793286853907,-0.00173706214029901,,
0.000753125,-0.120744231257459,-0.00145599988299772,,
0.00075625,-0.10755317573696,-0.00114111674051021,,
0.000759375,-0.090696834036577,-0.00078528773510067,,
0.0007625,-0.0700579703681297,-0.00039352729047426,,
0.000765625,-0.0467663962390498,2.49197721933214E-05,,
0.00076875,-0.022001234031464,0.00045013138347505,,
0.000771875,0.00283768455539552,0.000783420563621462,,
0.000775,0.0277539050527272,0.0011626328727532,,
0.000778125,0.0521944645487467,0.00146928745555686,,
0.00078125,0.0750177486492692,0.0017500245834956,,
0.000784375,0.0946687386875395,0.00196778322505509,,
0.0007875,0.110814014775721,0.00205425648808122,,
0.000790625,0.12263192338443,0.00211277977325874,,
0.00079375,0.12974822436532,0.00206846928591009,,
0.000796875,0.13180034050162,0.00194619091964743,,
0.0008,0.128631498667114,0.00172667472165067,,
0.000803125,0.120346431987335,0.00146593583630406,,
0.00080625,0.107598031371793,0.00114729791415424,,
0.000809375,0.0906553373260369,0.000765761394554421,,
0.0008125,0.0701542595312043,0.000386129204075214,,
0.000815625,0.0471535589155788,-3.53907955350508E-05,,
0.00081875,0.0223526848115135,-0.000421120554964904,,
0.000821875,-0.00235553896412827,-0.000805044453024095,,
0.000825,-0.0274812257125281,-0.00115859755289849,,
0.000828125,-0.0520177944612645,-0.00146816157902263,,
0.00083125,-0.0748057165532548,-0.00174909378457855,,
0.000834375,-0.0948019526919772,-0.00194285416345119,,
0.0008375,-0.111080559413913,-0.00206100059999192,,
0.000840625,-0.122951324428514,-0.00208340851562738,,
0.00084375,-0.130144973971602,-0.0020545295967449,,
0.000846875,-0.131963364959161,-0.00193192610112058,,
0.00085,-0.1288227240932,-0.00173024928675147,,
0.000853125,-0.120640337862998,-0.00147613003521707,,
0.00085625,-0.10777243885055,-0.0011529217231776,,
0.000859375,-0.0907386806350644,-0.000772427475418169,,
0.0008625,-0.070121883233155,-0.000368453314068873,,
0.000865625,-0.0468731820405409,2.2627145720211E-05,,
0.00086875,-0.0221118452745113,0.000411073128735229,,
0.000871875,0.00292464337321092,0.000771013627163697,,
0.000875,0.0279388558216269,0.001169235785627,,
0.000878125,0.0523557395665514,0.00147836135158252,,
0.00088125,0.0748529980778556,0.00173023442369535,,
0.000884375,0.0947910128621608,0.0019428876053289,,
0.0008875,0.110777463148169,0.00207809311502816,,
0.000890625,0.122637218355364,0.00210755912464444,,
0.00089375,0.129630825296096,0.00206516597159112,,
0.000896875,0.131631694511061,0.00192766783541831,,
0.0009,0.128578432328452,0.00173563342898797,,
0.000903125,0.12044768955926,0.00147048764737345,,
0.00090625,0.107652310655338,0.00116248424218757,,
0.000909375,0.0906263199522809,0.000774476719340722,,
0.0009125,0.0702926518772608,0.000382519339214848,,
0.000915625,0.0471098695739027,-2.52764855503962E-05,,
0.00091875,0.0225094579377306,-0.000420600347985634,,
0.000921875,-0.00222671022196238,-0.000778021558328401,,
0.000925,-0.0273820441424232,-0.00115823712377727,,
0.000928125,-0.0521100249241513,-0.00147372407793744,,
0.00093125,-0.0749200599344058,-0.00175506130178471,,
0.000934375,-0.0949444270640847,-0.00194628381375095,,
0.0009375,-0.111050748960809,-0.00207370108181637,,
0.000940625,-0.122881486794249,-0.00211071009263364,,
0.00094375,-0.130002079733958,-0.00207410795798957,,
0.000946875,-0.132113023697118,-0.00193659310087835,,
0.00095,-0.128929229984333,-0.00174179230804716,,
0.000953125,-0.120775021396814,-0.00146011323389894,,
0.00095625,-0.107728166362295,-0.00112157182114281,,
0.000959375,-0.0907537957943842,-0.000789761515123111,,
0.0009625,-0.0700565708163408,-0.000378550903114672,,
0.000965625,-0.0467357460548734,4.06430281447712E-05,,
0.00096875,-0.0220089782180291,0.00043765756326275,,
0.000971875,0.0028729765863383,0.000794331905013657,,
0.000975,0.027796777989193,0.00113333035675867,,
0.000978125,0.0522128453289073,0.0014925741494114,,
0.00098125,0.0749407733008811,0.00174735666484427,,
0.000984375,0.0947391361425199,0.0019246432034099,,
0.0009875,0.110926095548147,0.00205971866136423,,
0.000990625,0.122631713451661,0.00210505469961531,,
0.00099375,0.129700849537266,0.00205741117183456,,
0.000996875,0.131700505807347,0.00192575050112298,,
0.001,0.128608849253997,0.00173727579673733,,
0.001003125,0.120541599484293,0.00147491312246206,,
0.00100625,0.107603746208264,0.0011457707350937,,
0.001009375,0.0907647589500637,0.000789809820057386,,
0.0010125,0.0701013797994479,0.000365738948366445,,
0.001015625,0.0472191045910244,-1.6806401197389E-05,,
0.00101875,0.022407174027827,-0.0004144377531623,,
0.001021875,-0.00239411994177491,-0.000784897579866328,,
0.001025,-0.0274065362987285,-0.00113591467071661,,
0.001028125,-0.0519638650656665,-0.00146598414123744,,
0.00103125,-0.0748000250426467,-0.00177194016038307,,
0.001034375,-0.0948141754442667,-0.00194418626489457,,
0.0010375,-0.1111836130773,-0.00205022116822651,,
0.001040625,-0.123019902466169,-0.00211256425893858,,
0.00104375,-0.130076395933948,-0.0020506280443997,,
0.001046875,-0.131988650194813,-0.00195392714058329,,
0.00105,-0.128934781539763,-0.00173376068386233,,
0.001053125,-0.120829977130391,-0.00146128369960241,,
0.00105625,-0.10776450805708,-0.00115010703184248,,
0.001059375,-0.0907021523333747,-0.000801371420173336,,
0.0010625,-0.0702009112575001,-0.00037398051322457,,
0.001065625,-0.0468680503506484,1.04803127523034E-05,,
0.00106875,-0.0221177700437509,0.00043808116037436,,
0.001071875,0.00292830553372514,0.00080525810946197,,
0.001075,0.0278853696174288,0.00115185344098778,,
0.001078125,0.0522326256608567,0.00150172607648358,,
0.00108125,0.0748411485393764,0.00175303063668375,,
0.001084375,0.0946758764016628,0.00193459773553606,,
0.0010875,0.110776856675727,0.00204973440312495,,
0.001090625,0.12272744279402,0.00211321823342736,,
0.00109375,0.12967820012415,0.00205451659157063,,
0.001096875,0.131719096520276,0.00195018908186029,,
0.0011,0.128586596380554,0.00175150345762276,,
0.001103125,0.120501199089321,0.00145683221416526,,
0.00110625,0.107601506925402,0.00114581904002753,,
0.001109375,0.0905748864240397,0.000769713109715298,,
0.0011125,0.0701383279666742,0.000388877011655353,,
0.001115625,0.0470764202861486,-1.24459519810216E-05,,
0.00111875,0.0225262059074708,-0.000405348994080068,,
0.001121875,-0.00225225204210934,-0.000794086664580362,,
0.001125,-0.0273293743434353,-0.00115015533677632,,
0.001128125,-0.0520531098180704,-0.00147502459538584,,
0.00113125,-0.0748828785085481,-0.00174530556303987,,
0.001134375,-0.094875242553988,-0.00193950254419839,,
0.0011375,-0.111097867204368,-0.0020770824271823,,
0.001140625,-0.122890677184329,-0.00211267758974465,,
0.00114375,-0.129963498756312,-0.00204379846991376,,
0.001146875,-0.132095855861841,-0.00194039804335588,,
0.00115,-0.128822910700105,-0.00176972928072061,,
0.001153125,-0.120708682642022,-0.00145539978708964,,
0.00115625,-0.107712258123628,-0.00112040135543934,,
0.001159375,-0.0907493172286598,-0.000744475639688158,,
0.0011625,-0.0701533264966784,-0.000336388127437637,,
0.001165625,-0.0467778259119923,2.77641896411218E-05,,
0.00116875,-0.0220277788637263,0.000422666312846598,,
0.001171875,0.00281459195087909,0.000788916178782184,,
0.001175,0.0278128961606282,0.00114254916758583,,
0.001178125,0.0521685495147894,0.00148154576144899,,
