Time domain (s),Current (AC) (A),Potential (AC) (V),Frequency (Hz),Column 5
0,-0.168652615104504,-0.00290310965619112,0.0050119,0.3
0.48712189987829,-0.172387925525557,-0.00309997775800719,,
0.974243799756579,-0.175827603957074,-0.00333366545315306,,
1.46136569963487,-0.179041627988498,-0.00353865934798847,,
1.94848759951316,-0.182724641824374,-0.00375376245163306,,
2.43560949939145,-0.185739229725883,-0.00395059732798364,,
2.92273139926974,-0.189225233321611,-0.00419075532125168,,
3.40985329914803,-0.192545390030358,-0.00440469408904276,,
3.89697519902632,-0.195646423580694,-0.0046045293693231,,
4.38409709890461,-0.198653220643911,-0.00478510399212206,,
4.8712189987829,-0.201916415594851,-0.0050024144222971,,
5.35834089866119,-0.204925825154741,-0.00521464280094408,,
5.84546279853948,-0.207834840199643,-0.00539522609125598,,
6.33258469841777,-0.210771799628596,-0.00560641436839671,,
6.81970659829605,-0.213862476495694,-0.00583726056401046,,
7.30682849817434,-0.21670090747871,-0.00602513612155109,,
7.79395039805263,-0.219291757750275,-0.00622491795217028,,
8.28107229793092,-0.222038051573857,-0.00641706948257115,,
8.76819419780921,-0.224795495160023,-0.00657341985236659,,
9.2553160976875,-0.22741200388105,-0.00679989617706767,,
9.74243799756579,-0.23017747156414,-0.00701000823806597,,
10.2295598974441,-0.232585820282435,-0.00716379302414527,,
10.7166817973224,-0.235027385029853,-0.00736544703747644,,
11.2038036972007,-0.23770724679519,-0.00754361498095646,,
11.690925597079,-0.239830320207186,-0.00773968711620254,,
12.1780474969572,-0.242178534850286,-0.00790290071135535,,
12.6651693968355,-0.244429014126796,-0.00810755801778651,,
13.1522912967138,-0.246712709432429,-0.0082773141403325,,
13.6394131965921,-0.248695781013811,-0.00844302686827181,,
14.1265350964704,-0.250858555044885,-0.00863799822942335,,
14.6136569963487,-0.252753034998032,-0.00879478630860309,,
15.100778896227,-0.254884459069035,-0.00899512286002579,,
15.5879007961053,-0.25696409972385,-0.0091498090674107,,
16.0750226959836,-0.258590752116332,-0.0093069467362632,,
16.5621445958618,-0.260435781239605,-0.00949021117712467,,
17.0492664957401,-0.262071390763537,-0.00963191922904505,,
17.5363883956184,-0.26379526535362,-0.00979823145993608,,
18.0235102954967,-0.265387208861738,-0.00994115151902886,,
18.510632195375,-0.266830613273331,-0.0101123305582189,,
18.9977540952533,-0.26832645422528,-0.0102726333137393,,
19.4848759951316,-0.269710517641024,-0.0104038608983963,,
19.9719978950099,-0.270831092106649,-0.0105417306868403,,
20.4591197948882,-0.272152642209157,-0.01069536379145,,
20.9462416947665,-0.273562830591627,-0.0108345654876567,,
21.4333635946447,-0.274530947215718,-0.0109542450564204,,
21.920485494523,-0.276060190803694,-0.0111038362110092,,
22.4076073944013,-0.276856489119838,-0.0112757072066181,,
22.8947292942796,-0.277872330459929,-0.0113816010966645,,
23.3818511941579,-0.278765804321947,-0.0115487006266126,,
23.8689730940362,-0.279499356066222,-0.011649207657606,,
24.3560949939145,-0.280339273746452,-0.0117770823594898,,
24.8432168937928,-0.281457235715405,-0.0118782957927568,,
25.3303387936711,-0.281702063975005,-0.0120353742336068,,
25.8174606935494,-0.282424979125685,-0.0121429207293802,,
26.3045825934276,-0.282800432218914,-0.012248803062743,,
26.7917044933059,-0.283177751381194,-0.0123533563775142,,
27.2788263931842,-0.283291581593356,-0.0124555174588203,,
27.7659482930625,-0.283854201412484,-0.0125899794702451,,
28.2530701929408,-0.283764023625554,-0.0126571469141989,,
28.7401920928191,-0.284067866318919,-0.0127569966588239,,
29.2273139926974,-0.284178897427503,-0.0128710148973044,,
29.7144358925757,-0.284063574360099,-0.0129767816638333,,
30.201557792454,-0.284214352739487,-0.0130458675172322,,
30.6886796923322,-0.284198631107726,-0.0131199689712296,,
31.1758015922105,-0.283898800462822,-0.0132226038765553,,
31.6629234920888,-0.283617583856711,-0.0133056964302423,,
32.1500453919671,-0.28342313946151,-0.0133599088320979,,
32.6371672918454,-0.283133525544666,-0.0134328083910211,,
33.1242891917237,-0.282671673454337,-0.013494914007643,,
33.611411091602,-0.28204406778048,-0.0135662071875728,,
34.0985329914803,-0.281522548132219,-0.0136558754941176,,
34.5856548913586,-0.281229388684176,-0.0137261747992743,,
35.0727767912369,-0.280203470571205,-0.0137720779457613,,
35.5598986911151,-0.279281585807873,-0.0138199457284278,,
36.0470205909934,-0.278278200478703,-0.013908712613667,,
36.5341424908717,-0.277726777073886,-0.0139094522414047,,
37.02126439075,-0.276647256127401,-0.0139683566567235,,
37.5083862906283,-0.27554538900402,-0.0139998717323708,,
37.9955081905066,-0.274782819885989,-0.0140385057249959,,
38.4826300903849,-0.273255628973969,-0.0140799248783217,,
38.9697519902632,-0.27186545418208,-0.0141201768066237,,
39.4568738901415,-0.270687591396563,-0.014125562221091,,
39.9439957900197,-0.269592022256232,-0.0141451970261972,,
40.431117689898,-0.268095808090473,-0.0141812076516894,,
40.9182395897763,-0.266500132444251,-0.0142013740642319,,
41.4053614896546,-0.265243148330937,-0.0142242909674257,,
41.8924833895329,-0.263611830765825,-0.0142063434380963,,
42.3796052894112,-0.261800437537211,-0.0142307973801832,,
42.8667271892895,-0.25985650675419,-0.0142363908149514,,
43.3538490891678,-0.258384598137831,-0.0142098104431181,,
43.8409709890461,-0.25627594010926,-0.0142282433531502,,
44.3280928889244,-0.254578003878998,-0.0142186281925567,,
44.8152147888026,-0.252752475177316,-0.0142349346728423,,
45.3023366886809,-0.250565395596842,-0.0141972367715728,,
45.7894585885592,-0.248686077454742,-0.0141819126093772,,
46.2765804884375,-0.246172482441923,-0.0141648549446702,,
46.7637023883158,-0.244145558237822,-0.0141519345726224,,
47.2508242881941,-0.241932773556159,-0.0141133699200977,,
47.7379461880724,-0.239668345413487,-0.0140902912233369,,
48.2250680879507,-0.23697588768205,-0.0140503282121198,,
48.712189987829,-0.234820251365099,-0.0140334554543475,,
49.1993118877073,-0.232289675123909,-0.0139900947782095,,
49.6864337875855,-0.229750328358176,-0.0139545579767373,,
50.1735556874638,-0.227128361385172,-0.013871060939131,,
50.6606775873421,-0.224170362027659,-0.013857701413114,,
51.1477994872204,-0.221699173434044,-0.0138258049669147,,
51.6349213870987,-0.21919962059084,-0.0137621391980325,,
52.122043286977,-0.216108990375469,-0.0137131619737594,,
52.6091651868553,-0.213425349820302,-0.0136338946822798,,
53.0962870867336,-0.210432408319794,-0.0135618849879791,,
53.5834089866119,-0.207276885553145,-0.0135009003696474,,
54.0705308864901,-0.204454082898438,-0.0134211476974646,,
54.5576527863684,-0.201188648664636,-0.0133658489673687,,
55.0447746862467,-0.198223838155085,-0.0132712806270598,,
55.531896586125,-0.195060477898418,-0.0132006115080343,,
56.0190184860033,-0.19196564902768,-0.0131396731164362,,
56.5061403858816,-0.188712857411704,-0.0130245338796655,,
56.9932622857599,-0.185411221438297,-0.0129670740497723,,
57.4803841856382,-0.182070211407896,-0.0128527437808401,,
57.9675060855165,-0.178685955227219,-0.0127472659313965,,
58.4546279853948,-0.175206949390435,-0.0126551129379195,,
58.941749885273,-0.171841727114086,-0.0125499702322949,,
59.4288717851513,-0.168252903113602,-0.0124504325181216,,
59.9159936850296,-0.164816863516736,-0.0123573665466559,,
60.4031155849079,-0.161280662663513,-0.0122104117604693,,
60.8902374847862,-0.157629558608424,-0.0121166408313154,,
61.3773593846645,-0.154132778463921,-0.012024926991808,,
61.8644812845428,-0.150323898270499,-0.0119169644554322,,
62.3516031844211,-0.146629268154776,-0.0117839932561665,,
62.8387250842994,-0.142827898889288,-0.0116563034612174,,
63.3258469841777,-0.139113441789889,-0.0115417651719838,,
63.8129688840559,-0.135267660080967,-0.0113977342266987,,
64.3000907839342,-0.131416000254532,-0.0112534721477457,,
64.7872126838125,-0.127434088808279,-0.0111500759459005,,
65.2743345836908,-0.123655345630044,-0.0109704475265553,,
65.7614564835691,-0.119669981956045,-0.0108419733217198,,
66.2485783834474,-0.115670995977968,-0.010705893374618,,
66.7357002833257,-0.111634128798139,-0.0105642777761648,,
67.222822183204,-0.107696163278056,-0.010418964039022,,
67.7099440830823,-0.103690972620382,-0.0102668318586696,,
68.1970659829606,-0.0995963039516718,-0.0101193223516796,,
68.6841878828388,-0.0953653655904518,-0.00995486063471862,,
69.1713097827171,-0.0914078063453252,-0.00981290844786153,,
69.6584316825954,-0.0872513241392733,-0.00963802115788326,,
70.1455535824737,-0.0830605062626677,-0.00947720846370803,,
70.632675482352,-0.0787659349467802,-0.00928890530888138,,
71.1197973822303,-0.0745974632470702,-0.00915492723357403,,
71.6069192821086,-0.0704024000633717,-0.00901346331659036,,
72.0940411819869,-0.0662072902279469,-0.00880289910035348,,
72.5811630818652,-0.0619476144033286,-0.00864812188408681,,
73.0682849817434,-0.0576911108960985,-0.00847404500653282,,
73.5554068816217,-0.0534349339509524,-0.00826233667863852,,
74.0425287815,-0.0490547567173121,-0.0080963595915664,,
74.5296506813783,-0.0447887362579176,-0.00793792901875801,,
75.0167725812566,-0.0404478864295447,-0.00775301197216915,,
75.5038944811349,-0.0361557410034245,-0.00756274129199275,,
75.9910163810132,-0.0318419491763031,-0.00737068077047365,,
76.4781382808915,-0.0274682565326179,-0.0071812898428214,,
76.9652601807698,-0.0231268468835294,-0.00701096744278873,,
77.4523820806481,-0.0188131017081343,-0.00680717544302745,,
77.9395039805263,-0.0144327845193151,-0.00660693423424297,,
78.4266258804046,-0.0100912349150477,-0.00644744044656109,,
78.9137477802829,-0.0056858190974813,-0.0062339076072746,,
79.4008696801612,-0.00130316932234729,-0.00604228623972514,,
79.8879915800395,0.00308078670112301,-0.00582102342382562,,
80.3751134799178,0.00744493906678073,-0.00564962336306518,,
80.8622353797961,0.0118238800296742,-0.00546594432618619,,
81.3493572796744,0.0162024244528942,-0.00521085220878703,,
81.8364791795527,0.0205117143884281,-0.00503476446832041,,
82.3236010794309,0.0248658366329322,-0.00483126138564449,,
82.8107229793092,0.0292264901191177,-0.00461186786328582,,
83.2978448791875,0.0335619050213772,-0.00442170408243081,,
83.7849667790658,0.0378443468884278,-0.00421458520243423,,
84.2720886789441,0.0421224967966592,-0.00401597204142412,,
84.7592105788224,0.0464538296728678,-0.0037821326648082,,
85.2463324787007,0.0507702339966618,-0.00356622059332556,,
85.733454378579,0.055066484774696,-0.00339194580756796,,
86.2205762784573,0.0593530319936606,-0.00318025048094261,,
86.7076981783355,0.063704518415629,-0.00295303452850382,,
87.1948200782138,0.0678496176004647,-0.00272993275535738,,
87.6819419780921,0.0720490193947088,-0.0025451182743339,,
88.1690638779704,0.0762614603464525,-0.00232032922541014,,
88.6561857778487,0.080427646111574,-0.00211831839947862,,
89.143307677727,0.0846767086684599,-0.00188310522212287,,
89.6304295776053,0.0888598523360899,-0.00169042063970037,,
90.1175514774836,0.0930243819649278,-0.0014623610493727,,
90.6046733773619,0.097099526886183,-0.0012489091068697,,
91.0917952772402,0.101280244664046,-0.00105026127580965,,
91.5789171771185,0.105268034227812,-0.000812979452124551,,
92.0660390769967,0.109260302357302,-0.000608391485793724,,
92.553160976875,0.113203469544867,-0.000381510677173402,,
93.0402828767533,0.117311830495244,-0.000172970325118094,,
93.5274047766316,0.121284504899691,3.15714144791812E-05,,
94.0145266765099,0.125169450732838,0.000246062013903092,,
94.5016485763882,0.129006485243079,0.000439164081513788,,
94.9887704762665,0.133012562283553,0.000721386957792891,,
95.4758923761448,0.136767279822746,0.000897363465182099,,
95.9630142760231,0.140576859792062,0.00113555826685641,,
96.4501361759013,0.144274289011363,0.00136533980301135,,
96.9372580757796,0.148072649240505,0.00158991794246299,,
97.4243799756579,0.151847357044415,0.00176833579922153,,
97.9115018755362,0.155396783662043,0.00200820054164819,,
98.3986237754145,0.159129878126097,0.00221268449782785,,
98.8857456752928,0.162606551376566,0.00239519342051198,,
99.3728675751711,0.166136407595013,0.0026413045503193,,
99.8599894750494,0.169735145087335,0.00282634438666918,,
100.347111374928,0.173182311120923,0.00304434099492168,,
100.834233274806,0.176789049384305,0.00328217753941029,,
101.321355174684,0.179933002522832,0.00349077567488276,,
101.808477074563,0.183527611337377,0.00367193824394985,,
102.295598974441,0.186446306615485,0.00391602984333206,,
102.782720874319,0.189971147773355,0.00408411891429683,,
103.269842774197,0.193275769457245,0.00431068769246501,,
103.756964674076,0.196209976434347,0.00450559982561449,,
104.244086573954,0.199341053696417,0.00473524557073945,,
104.731208473832,0.202517663043352,0.00492543390954658,,
105.218330373711,0.205600968937694,0.00511154273911174,,
105.705452273589,0.208506438451398,0.00533686050630111,,
106.192574173467,0.211561193489248,0.0055318708712595,,
106.679696073345,0.214113229524534,0.00572302997147256,,
107.166817973224,0.217181606866462,0.00590742841189362,,
107.653939873102,0.220012060404282,0.00609237001643459,,
108.14106177298,0.222629595463288,0.0063072781010467,,
108.628183672859,0.225288184041433,0.00646395205797745,,
109.115305572737,0.227919714618328,0.00667777381434931,,
109.602427472615,0.230434429272577,0.00686362550770836,,
110.089549372493,0.232983292990475,0.00706232245467309,,
110.576671272372,0.235503979065691,0.0072385965466597,,
111.06379317225,0.237875006402949,0.00741400388739111,,
111.550915072128,0.240173257047186,0.00761593381653825,,
112.038036972007,0.242466842518794,0.00777506934703442,,
112.525158871885,0.244777409218773,0.00797219169588503,,
113.012280771763,0.246858822639187,0.00814806130395285,,
113.499402671641,0.249118445654051,0.00831200441474556,,
113.98652457152,0.251065875316544,0.00849455667499255,,
114.473646471398,0.253121163770232,0.00868029280151772,,
114.960768371276,0.255034257762171,0.00883066836599244,,
115.447890271155,0.257058942683409,0.00901825645103305,,
115.935012171033,0.259010850911626,0.00916598553500814,,
116.422134070911,0.2606335845591,0.0093328293733359,,
116.90925597079,0.262374626984459,0.00949619464995832,,
117.396377870668,0.264026844522952,0.00964455935152042,,
117.883499770546,0.265422290959912,0.00978995398544713,,
118.370621670424,0.267022071958049,0.00995169265888052,,
118.857743570303,0.268309099783097,0.0101357299529452,,
119.344865470181,0.269887234380232,0.0102549862581789,,
119.831987370059,0.271044570406179,0.0104097620298602,,
120.319109269938,0.272339995541961,0.0105324362242114,,
120.806231169816,0.273557045777566,0.0107020074398232,,
121.293353069694,0.274739946949523,0.0108464110881479,,
121.780474969572,0.275831224131035,0.0109864174184366,,
122.267596869451,0.276679165908187,0.0111014295316898,,
122.754718769329,0.277810936788124,0.0112376019322591,,
123.241840669207,0.278328024522387,0.0113385380051243,,
123.728962569086,0.279292035794563,0.0114745023853922,,
124.216084468964,0.280107321363309,0.0116107556827449,,
124.703206368842,0.281116678113445,0.0117203361547977,,
125.19032826872,0.281578530203774,0.0118557111442117,,
125.677450168599,0.281893709266628,0.0119672446957599,,
126.164572068477,0.282525373640674,0.0120671175537517,,
126.651693968355,0.282780651886964,0.0121898610882032,,
127.138815868234,0.283396454674069,0.0122768973601022,,
127.625937768112,0.283700250715707,0.0124025387329181,,
128.11305966799,0.2836567713068,0.0124717054831009,,
128.600181567868,0.28387603442039,0.0125812859551537,,
129.087303467747,0.283956461996524,0.0126903232630862,,
129.574425367625,0.283846363922466,0.0127813321449057,,
130.061547267503,0.283782357753988,0.0129022843934297,,
130.548669167382,0.283641096326764,0.0129607583222913,,
131.03579106726,0.283653598989412,0.0130256779913229,,
131.522912967138,0.28313221929633,0.0131001810400684,,
132.010034867016,0.282988531979338,0.0132112060975467,,
132.497156766895,0.282738665333298,0.0132814013925526,,
132.984278666773,0.282030305521222,0.0133311991413478,,
133.471400566651,0.281875981610636,0.0133973842672122,,
133.95852246653,0.281450331259913,0.0134607928998882,,
134.445644366408,0.280521402085911,0.013523178766083,,
134.932766266286,0.279723470959347,0.0135682151613148,,
135.419888166165,0.279121103869415,0.0136475980196282,,
135.907010066043,0.278338287902172,0.0136883353286335,,
136.394131965921,0.277280786570498,0.0137348163092912,,
136.881253865799,0.276207610258789,0.013791458503833,,
137.368375765678,0.275222885620137,0.0138384682027564,,
137.855497665556,0.274029907675301,0.0138720172546831,,
138.342619565434,0.272755382512899,0.0138936773685563,,
138.829741465313,0.271714302588882,0.0139303669491984,,
139.316863365191,0.270520764823329,0.0139431601977287,,
139.803985265069,0.269091729143436,0.0139970721258158,,
140.291107164947,0.267563045376175,0.0139890980142661,,
140.778229064826,0.266141473972489,0.014031002548295,,
141.265350964704,0.26467119816655,0.0140582878778157,,
141.752472864582,0.262927543244517,0.0140454599592355,,
142.239594764461,0.261269914105775,0.0140816901617122,,
142.726716664339,0.259687300942915,0.0140756113462408,,
143.213838564217,0.257846983643998,0.0140883699247207,,
143.700960464095,0.256040442194919,0.014078269383424,,
144.188082363974,0.254006240321516,0.0140665855765012,,
144.675204263852,0.252105275778414,0.0140911435287383,,
145.16232616373,0.250001282922473,0.0140556529539992,,
145.649448063609,0.248032206858979,0.0140429752723032,,
146.136569963487,0.245944822017599,0.0140214798411686,,
146.623691863365,0.243582565204885,0.0139882081496436,,
147.110813763243,0.241436212581467,0.0139966676418966,,
147.597935663122,0.238935680052011,0.0139320195549253,,
148.085057563,0.236581447336219,0.0139022379817888,,
148.572179462878,0.234082034448195,0.0138735658502593,,
149.059301362757,0.231843498013616,0.0138448157111171,,
149.546423262635,0.229175765697116,0.0138107581651203,,
150.033545162513,0.226595738626053,0.0137353854759485,,
150.520667062392,0.223990333015884,0.0137524864782184,,
151.00778896227,0.221326146230583,0.0136524749400255,,
151.494910862148,0.218468074870796,0.0136194690522191,,
151.982032762026,0.215674196286392,0.0135499671582173,,
152.469154661905,0.212788133890828,0.0135139767569212,,
152.956276561783,0.210086439117584,0.0134409760770184,,
153.443398461661,0.206904231563494,0.0133659038616152,,
153.93052036154,0.203937928198701,0.0132836433891335,,
154.417642261418,0.200936729342639,0.0132241958096948,,
154.904764161296,0.197916869796058,0.0131460379598223,,
155.391886061174,0.194717494406691,0.0130910050334441,,
155.879007961053,0.191434705730707,0.0130023652717228,,
156.366129860931,0.188239808907065,0.0129233984540118,,
156.853251760809,0.18500199249523,0.0128167649362276,,
157.340373660688,0.181583353992273,0.0127225981906673,,
157.827495560566,0.178263593823199,0.0126316037547016,,
158.314617460444,0.174871313545599,0.0125331639254522,,
158.801739360322,0.171400401783328,0.0124461536560911,,
159.288861260201,0.167977844535361,0.0123245889033465,,
159.775983160079,0.16450938198872,0.0122023509737939,,
160.263105059957,0.160864179377007,0.01212598729902,,
160.750226959836,0.157288091297802,0.0120008024151992,,
161.237348859714,0.153637453759975,0.0118689291008569,,
161.724470759592,0.14997193432146,0.0117930276934191,,
162.21159265947,0.146253068633926,0.0116471130087392,,
162.698714559349,0.142431919036489,0.0115359174901806,,
163.185836459227,0.138755226509526,0.0114121974159813,,
163.672958359105,0.13474520739818,0.0112919876843662,,
164.160080258984,0.130956527402244,0.0111547289555571,,
164.647202158862,0.127090592147563,0.0110298936614091,,
165.13432405874,0.123125382019324,0.010890881205893,,
165.621445958618,0.1193083377738,0.0107660545792574,,
166.108567858497,0.11523041707483,0.0105929816885739,,
166.595689758375,0.111254570352996,0.0104691633825653,,
167.082811658253,0.10725878001817,0.0103279175979814,,
167.569933558132,0.103209946670546,0.0101757160775287,,
168.05705545801,0.0991092599291435,0.00999650658795703,,
168.544177357888,0.0950214723900622,0.00982974364641276,,
