Time domain (s),Current (AC) (A),Potential (AC) (V),Frequency (Hz),Column 5
0,-0.124400676935209,-0.00110143282534469,0.0079433,0.3
0.307354153815165,-0.12832669961336,-0.00126720044753048,,
0.61470830763033,-0.13217602685348,-0.00144412026920238,,
0.922062461445495,-0.136049239777464,-0.00165370216734972,,
1.22941661526066,-0.139811374941137,-0.00186032555454529,,
1.53677076907582,-0.143637796183646,-0.00206039341307873,,
1.84412492289099,-0.147330000409602,-0.00224510388395194,,
2.15147907670615,-0.151131509630269,-0.00243234526849045,,
2.45883323052132,-0.154652315413814,-0.00260473631485292,,
2.76618738433648,-0.158441508578739,-0.0027927173271296,,
3.07354153815165,-0.161967446052177,-0.00302663760052946,,
3.38089569196681,-0.165590279161131,-0.00319776752381529,,
3.68824984578198,-0.169156523726088,-0.00336790501691331,,
3.99560399959714,-0.172608704820252,-0.00357847934524846,,
4.30295815341231,-0.176133102786722,-0.00376049855347294,,
4.61031230722747,-0.179407540803699,-0.00395499609060535,,
4.91766646104264,-0.182751536544583,-0.00417309526442233,,
5.2250206148578,-0.186113073334554,-0.00430511737106354,,
5.53237476867297,-0.189394695717381,-0.00450778692794884,,
5.83972892248813,-0.192716345281369,-0.00469647289791331,,
6.1470830763033,-0.195809727948592,-0.00488404942627074,,
6.45443723011846,-0.199018200424587,-0.00504613191103553,,
6.76179138393363,-0.201976339737278,-0.0052676865331911,,
7.06914553774879,-0.205076673511719,-0.00540568344515302,,
7.37649969156396,-0.20802221685831,-0.00559891119169587,,
7.68385384537912,-0.210895216770512,-0.00576449535153234,,
7.99120799919429,-0.214042855395417,-0.00596778752473615,,
8.29856215300945,-0.21675714613476,-0.00612846153871072,,
8.60591630682462,-0.219560121805791,-0.00631745809454154,,
8.91327046063978,-0.222149106008304,-0.00648926119463589,,
9.22062461445495,-0.224917979267413,-0.0066291086205279,,
9.52797876827011,-0.227533508302188,-0.00679238144368322,,
9.83533292208528,-0.230217055553902,-0.00695162098433011,,
10.1426870759004,-0.232735129132445,-0.00714109425335163,,
10.4500412297156,-0.235243312545013,-0.00730911542880097,,
10.7573953835308,-0.237695280627395,-0.00745293690919935,,
11.0647495373459,-0.240347944436301,-0.00760223914670277,,
11.3721036911611,-0.242358820446556,-0.00776537328965698,,
11.6794578449763,-0.244595117598272,-0.00791794462397899,,
11.9868119987914,-0.246819471908057,-0.00808030446914509,,
12.2941661526066,-0.248892068152201,-0.00824119517093358,,
12.6015203064218,-0.251292486077026,-0.0083790794052323,,
12.9088744602369,-0.253052888968798,-0.00852368818468729,,
13.2162286140521,-0.254899924116302,-0.00867657299404634,,
13.5235827678673,-0.256738935166883,-0.00881156516832293,,
13.8309369216824,-0.258693455891772,-0.00894319434772806,,
14.1382910754976,-0.260326266312126,-0.00909810157668289,,
14.4456452293128,-0.262032553201395,-0.00924098841031062,,
14.7529993831279,-0.263880987900688,-0.00936718739310072,,
15.0603535369431,-0.265458562677107,-0.00951224688320895,,
15.3677076907582,-0.267095618404554,-0.00962450850581131,,
15.6750618445734,-0.268457475598581,-0.00975073060196818,,
15.9824159983886,-0.269852922035542,-0.009908005506436,,
16.2897701522037,-0.271044407125137,-0.0100250400392854,,
16.5971243060189,-0.27258629333094,-0.0101367816111351,,
16.9044784598341,-0.273838099102635,-0.0102582307970449,,
17.2118326136492,-0.274779530939285,-0.010371497851104,,
17.5191867674644,-0.275845289626513,-0.0104835745667722,,
17.8265409212796,-0.276822876551042,-0.010579646720509,,
18.1338950750947,-0.278112516872763,-0.0107316965594921,,
18.4412492289099,-0.278908255368191,-0.0108194464565914,,
18.7486033827251,-0.279633922970722,-0.0109029550508808,,
19.0559575365402,-0.280179374954573,-0.0110209256750862,,
19.3633116903554,-0.281197502229253,-0.0111132173487638,,
19.6706658441706,-0.281564931225559,-0.0112101995913187,,
19.9780199979857,-0.281894852233923,-0.0112885539048091,,
20.2853741518009,-0.282757162742774,-0.0113934452525699,,
20.5927283056161,-0.282941530365095,-0.0114701917424815,,
20.9000824594312,-0.283571468625268,-0.0115532828515832,,
21.2074366132464,-0.283797309632266,-0.0116216189651461,,
21.5147907670615,-0.284163432380235,-0.0117249819415264,,
21.8221449208767,-0.284338796219381,-0.0117929467966356,,
22.1294990746919,-0.28429158467237,-0.0118847299762432,,
22.436853228507,-0.284384328304246,-0.0119268425305736,,
22.7442073823222,-0.284496712312893,-0.0120069303465749,,
23.0515615361374,-0.284315470356234,-0.0120923226802594,,
23.3589156899525,-0.283947341584033,-0.0121452869603078,,
23.6662698437677,-0.283837616723785,-0.0122118996834577,,
23.9736239975829,-0.283564051000787,-0.0122650373137572,,
24.280978151398,-0.28321061752237,-0.0123162103078776,,
24.5883323052132,-0.282703979774797,-0.0123793791393729,,
24.8956864590284,-0.282117847485617,-0.0124132402217514,,
25.2030406128435,-0.281553361597437,-0.0124768597639,,
25.5103947666587,-0.28083847054368,-0.012506259966484,,
25.8177489204739,-0.280096334881766,-0.0125775300330466,,
26.125103074289,-0.279333672460282,-0.0126088602017593,,
26.4324572281042,-0.278554402024237,-0.0126356948206272,,
26.7398113819194,-0.277697689722541,-0.0126808583393769,,
27.0471655357345,-0.276489223404574,-0.0127225895231549,,
27.3545196895497,-0.275775125430164,-0.0127515621284529,,
27.6618738433648,-0.274349775236648,-0.0127322855805319,,
27.96922799718,-0.273393041633773,-0.0127598944971883,,
28.2765821509952,-0.272005432686831,-0.0127802573733491,,
28.5839363048103,-0.270894561780275,-0.0128042143780491,,
28.8912904586255,-0.269545580462705,-0.0128195385402448,,
29.1986446124407,-0.268065041276981,-0.0128028160193567,,
29.5059987662558,-0.266348117794116,-0.0128260102829523,,
29.813352920071,-0.265034405181626,-0.0128115413153282,,
30.1207070738862,-0.263449179522094,-0.012831511264253,,
30.4280612277013,-0.261859941814101,-0.0128260218396354,,
30.7354153815165,-0.260077146093706,-0.0128406526008269,,
31.0427695353317,-0.258542490905479,-0.0127929350550451,,
31.3501236891468,-0.256480297996299,-0.0127856890145495,,
31.657477842962,-0.254625611965683,-0.0127559305547802,,
31.9648319967772,-0.25249959949493,-0.0127476559694615,,
32.2721861505923,-0.25064659292646,-0.0127270504029493,,
32.5795403044075,-0.248437866944985,-0.0126930044136362,,
32.8868944582226,-0.246157204001561,-0.0126390115887647,,
33.1942486120378,-0.243998908536212,-0.0126436111487602,,
33.501602765853,-0.241564994671906,-0.0125955700158431,,
33.8089569196681,-0.23933210309621,-0.0125581725883421,,
34.1163110734833,-0.237156219930047,-0.0125273393570158,,
34.4236652272985,-0.234631568458096,-0.0125037637228682,,
34.7310193811136,-0.232075287115717,-0.0124393120995148,,
35.0383735349288,-0.229569529592916,-0.0123711276674214,,
35.345727688744,-0.226876418737311,-0.0123366309674555,,
35.6530818425591,-0.2245178940627,-0.0122604261970785,,
35.9604359963743,-0.221607199555652,-0.0122168690573226,,
36.2677901501895,-0.218728228222484,-0.0121603106487349,,
36.5751443040046,-0.216114658560214,-0.0121058324431607,,
36.8824984578198,-0.213273148563262,-0.0120197582651551,,
37.189852611635,-0.210382234388163,-0.01196992584631,,
37.4972067654501,-0.20726328657493,-0.0118865212621713,,
37.8045609192653,-0.204262320977499,-0.0118005395376328,,
38.1119150730805,-0.201410874162846,-0.011736099470963,,
38.4192692268956,-0.198078121488,-0.0116392183493876,,
38.7266233807108,-0.194951149577844,-0.0115733568106586,,
39.033977534526,-0.191746036026142,-0.0114817484258873,,
39.3413316883411,-0.188731168214275,-0.0113933874691532,,
39.6486858421563,-0.185194594147242,-0.0112961596470758,,
39.9560399959714,-0.181833430571082,-0.011189006078538,,
40.2633941497866,-0.178616140918817,-0.0111349092435162,,
40.5707483036018,-0.175026383883807,-0.0110125369675189,,
40.8781024574169,-0.171564265971942,-0.0109128461272907,,
41.1854566112321,-0.168279238013096,-0.0108121874148273,,
41.4928107650473,-0.16464950044865,-0.0107015451724868,,
41.8001649188624,-0.161031052601967,-0.0106163955291536,,
42.1075190726776,-0.157504741914719,-0.0104707582048755,,
42.4148732264928,-0.153804513591841,-0.0103990374276597,,
42.7222273803079,-0.150072562095081,-0.0102556305432788,,
43.0295815341231,-0.146473474714811,-0.0101281473240453,,
43.3369356879383,-0.142739703800725,-0.010012073440504,,
43.6442898417534,-0.13889144955031,-0.00988618648816608,,
43.9516439955686,-0.135168968353988,-0.00978002823898727,,
44.2589981493838,-0.13122288543353,-0.00962457784591209,,
44.5663523031989,-0.127371458865727,-0.00952327195917801,,
44.8737064570141,-0.123410727303212,-0.00939138564356679,,
45.1810606108292,-0.11955916078023,-0.00922569891816494,,
45.4884147646444,-0.115482546329596,-0.00909815936010006,,
45.7957689184596,-0.111477215716743,-0.00897860402568273,,
46.1031230722747,-0.107568920694584,-0.00880381063375735,,
46.4104772260899,-0.103479943536483,-0.00865028009471303,,
46.7178313799051,-0.0994420033669484,-0.00852718985975942,,
47.0251855337202,-0.0953290005698042,-0.0083690612053049,,
47.3325396875354,-0.0911855808471151,-0.00826199720106402,,
47.6398938413506,-0.0870156162921637,-0.00806480695669842,,
47.9472479951657,-0.0828528827547882,-0.00793476104291946,,
48.2546021489809,-0.0786767601719657,-0.00777090894100851,,
48.5619563027961,-0.0745235902384808,-0.00761012224937074,,
48.8693104566112,-0.0703841825642532,-0.0074574093456774,,
49.1766646104264,-0.0660888181690186,-0.00731648859281409,,
49.4840187642416,-0.0617929406047948,-0.0071304028766157,,
49.7913729180567,-0.0574922112610363,-0.0069708397488335,,
50.0987270718719,-0.0532103292147012,-0.00682233781165609,,
50.4060812256871,-0.0489280739545558,-0.0066095200421552,,
50.7134353795022,-0.0445680502666753,-0.00648422248067071,,
51.0207895333174,-0.040256637677595,-0.00626466860932995,,
51.3281436871325,-0.0359542288716897,-0.00614449065859413,,
51.6354978409477,-0.0316542459555519,-0.00594187744054064,,
51.9428519947629,-0.0272475238896493,-0.00577057416700377,,
52.250206148578,-0.0229445552630285,-0.00560674517845916,,
52.5575603023932,-0.0185859777786631,-0.00541629248051922,,
52.8649144562084,-0.0141958637273218,-0.00525967775159097,,
53.1722686100235,-0.0098206782283951,-0.00506135206308089,,
53.4796227638387,-0.00546489984760747,-0.00486626369050969,,
53.7869769176539,-0.00108560899676676,-0.00473614554745971,,
54.094331071469,0.00327072920473642,-0.00451836273785045,,
54.4016852252842,0.00766588164251771,-0.00434910210810546,,
54.7090393790994,0.0119667975931815,-0.00415889065593156,,
55.0163935329145,0.0163630696723939,-0.00397508016177905,,
55.3237476867297,0.02074084434213,-0.00379343365659368,,
55.6311018405449,0.0250492478948642,-0.00361098829566853,,
55.93845599436,0.0293781548813054,-0.0034267299800339,,
56.2458101481752,0.0338153171986161,-0.00320628479948537,,
56.5531643019904,0.0380141358462814,-0.00305011933662414,,
56.8605184558055,0.042343416046533,-0.00285980387429952,,
57.1678726096207,0.0467124668434518,-0.00264851303159386,,
57.4752267634358,0.0510060584730871,-0.00247478140995616,,
57.782580917251,0.0553148119137686,-0.00228448906099832,,
58.0899350710662,0.0595735780297241,-0.00209196482755791,,
58.3972892248813,0.0638684992335588,-0.0018931797608821,,
58.7046433786965,0.0681063420502706,-0.00168812808262997,,
59.0119975325117,0.0722518377747798,-0.00150344216970932,,
59.3193516863268,0.0765648831742805,-0.00130415872106182,,
59.626705840142,0.0807099823591162,-0.00110147905207825,,
59.9340599939572,0.0848771011587636,-0.000928913210879401,,
60.2414141477723,0.0890504013121451,-0.000743624905836349,,
60.5487683015875,0.0932398896145513,-0.000530115179916191,,
60.8561224554027,0.0972756371529497,-0.000327007913647037,,
61.1634766092178,0.101366993549093,-0.000144202850950848,,
61.470830763033,0.105415220424275,3.8878127562203E-05,,
61.7781849168482,0.109492044807677,0.000229875434207827,,
62.0855390706633,0.113433182645147,0.000450030253085654,,
62.3928932244785,0.117442035463336,0.000646216510580278,,
62.7002473782937,0.121385249302627,0.000811858453833914,,
63.0076015321088,0.125409053999093,0.00104343127591688,,
63.314955685924,0.129286558881896,0.0012326141832677,,
63.6223098397391,0.133141670936077,0.00141782448069794,,
63.9296639935543,0.136870263508544,0.0016123090165614,,
64.2370181473695,0.14069029346455,0.00184100422447608,,
64.5443723011846,0.144681465278473,0.00200447351124966,,
64.8517264549998,0.148255687288627,0.00219934230683583,,
65.159080608815,0.151925522011824,0.00237669117037953,,
65.4664347626301,0.15559757269202,0.00259928444945601,,
65.7737889164453,0.159292762628459,0.0027636204874848,,
66.0811430702605,0.162877481277029,0.00297449528958804,,
66.3884972240756,0.166381399135655,0.00314540708047462,,
66.6958513778908,0.16983773223346,0.00333241733134537,,
67.003205531706,0.173496533823388,0.00353547981546631,,
67.3105596855211,0.176959024949063,0.00371493488456087,,
67.6179138393363,0.180277059004264,0.00389994582920217,,
67.9252679931515,0.183591780786897,0.00408886004366371,,
68.2326221469666,0.186812639296223,0.00427948753644047,,
68.5399763007818,0.190080476093929,0.00443968917098081,,
68.8473304545969,0.193383441641536,0.00462928811893448,,
69.1546846084121,0.196469709920499,0.00481403037068651,,
69.4620387622273,0.199625979114769,0.00498165717431487,,
69.7693929160424,0.202749405493726,0.00514226329277445,,
70.0767470698576,0.205824500684241,0.00536284859810943,,
70.3841012236728,0.208645064056086,0.00554821491076574,,
70.6914553774879,0.211637865601415,0.00569601044567003,,
70.9988095313031,0.214318473794372,0.00587212274408921,,
71.3061636851183,0.217353261893368,0.00605780686553903,,
71.6135178389334,0.220062047729008,0.0062356179964187,,
71.9208719927486,0.222846969181963,0.00637622816341565,,
72.2282261465638,0.225679662002645,0.00655821125700484,,
72.5355803003789,0.228212850740508,0.00671999326800066,,
72.8429344541941,0.230776456403915,0.00687173541028807,,
73.1502886080093,0.232990547333915,0.00704363818677667,,
73.4576427618244,0.235585689564298,0.00720486258779829,,
73.7649969156396,0.237916596416942,0.00736721376545191,,
74.0723510694548,0.240237053282896,0.00751880278168438,,
74.3797052232699,0.242654172525735,0.00769345893799445,,
74.6870593770851,0.244793434086756,0.00783069455343677,,
74.9944135309002,0.247029171417756,0.00801241184330737,,
75.3017676847154,0.24903388940014,0.00814884715842412,,
75.6091218385306,0.25111157068245,0.00828707953781027,,
75.9164759923457,0.253278263458533,0.00844077187042247,,
76.2238301461609,0.255310412655979,0.00857250650456365,,
76.5311842999761,0.257076273799728,0.00872879909094193,,
76.8385384537912,0.258775889492137,0.00886098443573591,,
77.1458926076064,0.260631321950374,0.00899478771620688,,
77.4532467614216,0.262430585730151,0.00914275949053334,,
77.7606009152367,0.26379897416586,0.00926463627372964,,
78.0679550690519,0.2653772953699,0.00938425950366151,,
78.3753092228671,0.266798680166681,0.00954938139616202,,
78.6826633766822,0.268478702134046,0.00965635872527759,,
78.9900175304974,0.269851755742384,0.0097749100728235,,
79.2973716843126,0.271195885280419,0.00991142917389487,,
79.6047258381277,0.272419280150801,0.0100281863463425,,
79.9120799919429,0.27343162261142,0.0101702064287146,,
80.2194341457581,0.27473022006459,0.0102542235170739,,
80.5267882995732,0.275870948075976,0.0103808240946122,,
80.8341424533884,0.276872094122284,0.0104939553576413,,
81.1414966072036,0.277863163395712,0.0105965584820877,,
81.4488507610187,0.278742641739841,0.0106971131844005,,
81.7562049148339,0.279420584626371,0.0107884080941347,,
82.063559068649,0.280133609611077,0.0109076152834642,,
82.3709132224642,0.280844022099109,0.0109975725070939,,
82.6782673762794,0.281565444394548,0.0111010741636752,,
82.9856215300945,0.281858790449496,0.0112015132991536,,
83.2929756839097,0.282541958329372,0.0112884571175855,,
83.6003298377249,0.282959771190077,0.0113654448532632,,
83.90768399154,0.28333970284903,0.0114637344456288,,
84.2150381453552,0.283437298260441,0.0115327509589274,,
84.5223922991704,0.283616627496322,0.0115963358310252,,
84.8297464529855,0.284056086758029,0.0117135090440756,,
85.1371006068007,0.283740721088269,0.0117832854093081,,
85.4444547606159,0.284166931259708,0.0118368650827474,,
85.751808914431,0.283931993166082,0.0119192180086967,,
86.0591630682462,0.283761247847839,0.0119629138286532,,
86.3665172220613,0.283543850803301,0.0120563640598426,,
86.6738713758765,0.283416584893966,0.0120951367326687,,
86.9812255296917,0.282953239948396,0.0121424960212648,,
87.2885796835069,0.282504636948335,0.012215103773932,,
87.595933837322,0.282053234844697,0.0122721244498556,,
87.9032879911372,0.281612655941559,0.0123026340940466,,
88.2106421449523,0.281069256633666,0.0123427588988312,,
88.5179962987675,0.280588930459724,0.0124035586102282,,
88.8253504525827,0.279476939911737,0.0124110588977584,,
89.1327046063978,0.278941751307671,0.0124677790999135,,
89.440058760213,0.278269593235201,0.0125052920942483,,
89.7474129140282,0.277274232002954,0.0125495859725717,,
90.0547670678433,0.276357992098504,0.012569038759914,,
90.3621212216585,0.275105299944009,0.0126014639243794,,
90.6694753754737,0.273983419230047,0.0126146385434622,,
90.9768295292888,0.272869749219913,0.0126342762377392,,
91.284183683104,0.271514236660662,0.0126458993720746,,
91.5915378369192,0.27015331250116,0.0126468152392345,,
91.8988919907343,0.269140970040541,0.0126599089615329,,
92.2062461445495,0.267563208657217,0.0127038936985748,,
92.5136002983647,0.26631406203392,0.01267235262039,,
92.8209544521798,0.264377082358118,0.0126685649174036,,
93.128308605995,0.262974731465666,0.0126959513679044,,
93.4356627598101,0.261317848754544,0.0126535643423433,,
93.7430169136253,0.259300254895702,0.012676088318301,,
94.0503710674405,0.257784260397993,0.0126481442578261,,
94.3577252212556,0.255918751166876,0.0126252706921952,,
94.6650793750708,0.254087390999408,0.0126546708947792,,
94.972433528886,0.251919951795704,0.0126062628371639,,
95.2797876827011,0.250007977445197,0.012599629300889,,
95.5871418365163,0.247873381056805,0.0125857150540685,,
95.8944959903315,0.245835260438394,0.0125440185403409,,
96.2018501441466,0.243589446334513,0.0124891589642142,,
96.5092042979618,0.24123875914992,0.0124456249378251,,
96.816558451777,0.238807457782287,0.0124322885251749,,
97.1239126055921,0.236517231234973,0.0123867783059231,,
97.4312667594073,0.23388756672713,0.0123470926551081,,
97.7386209132225,0.231574760744289,0.0123193912849846,,
98.0459750670376,0.229278189562199,0.0122620585786093,,
98.3533292208528,0.22655074303604,0.0122145490531285,,
98.660683374668,0.223910628541508,0.0121389105602385,,
98.9680375284831,0.221163028469589,0.0120839007472275,,
99.2753916822983,0.218339106173451,0.0120286164629855,,
99.5827458361134,0.215704030065358,0.0119626220223972,,
99.8900999899286,0.212778780219705,0.0119069794809699,,
100.197454143744,0.209798667943929,0.0118377318340031,,
100.504808297559,0.206828259227222,0.011764135984905,,
100.812162451374,0.203891999574163,0.0117092070686775,,
101.119516605189,0.200706246488874,0.0116289603482795,,
101.426870759004,0.197495861292102,0.0115398352058551,,
101.73422491282,0.194352677907058,0.011444689031376,,
102.041579066635,0.191298249431292,0.0113646821121587,,
102.34893322045,0.188024254605715,0.0112829099095508,,
102.656287374265,0.184705427471168,0.0111930971444636,,
102.96364152808,0.181371531829027,0.011085437971027,,
103.270995681895,0.178048062847713,0.0109884080571532,,
103.578349835711,0.174653496635524,0.010884964183989,,
103.885703989526,0.171201455496539,0.0107890466008929,,
104.193058143341,0.167837866030611,0.0107132318685808,,
104.500412297156,0.164132972535102,0.0105617930892326,,
104.807766450971,0.1606839171066,0.0105272183816538,,
105.115120604786,0.157043589600285,0.010398289132409,,
105.422474758602,0.153258828349358,0.010240655970756,,
105.729828912417,0.149514747403761,0.0101603948045033,,
106.037183066232,0.146015121503955,0.0100062517612383,,
106.344537220047,0.14220703438988,0.00991594783710648,,
