Time domain (s),Current (AC) (A),Potential (AC) (V),Frequency (Hz),Column 5
0,-0.0451261916498625,-0.00205155498308285,125.89,0.5
0.000242414632814362,0.0424555553141261,-0.000407439178617519,,
0.000484829265628723,0.129014848340378,0.00128004888871303,,
0.000727243898443085,0.210598705398207,0.00286185056362109,,
0.000969658531257447,0.284234703275332,0.00438462457893296,,
0.00121207316407181,0.347293248651226,0.0057588592926181,,
0.00145448779688617,0.397690378878157,0.00689337282127411,,
0.00169690242970053,0.433481876384403,0.00778918725290412,,
0.00193931706251489,0.453371406765678,0.0084184693861542,,
0.00218173169532926,0.456963309674662,0.00870579245025649,,
0.00242414632814362,0.443606861596846,0.00868437430531266,,
0.00266656096095798,0.41435043463701,0.00833520660736209,,
0.00290897559377234,0.369963478817331,0.00767900533519983,,
0.0031513902265867,0.311781241296999,0.00675706533705034,,
0.00339380485940106,0.242282244436577,0.00558950429629279,,
0.00363621949221543,0.163660833871934,0.00422629234469074,,
0.00387863412502979,0.0790559836668682,0.00271104688003554,,
0.00412104875784415,-0.00825117274380226,0.00107480447705788,,
0.00436346339065851,-0.0958929220397157,-0.000589985757909695,,
0.00460587802347287,-0.179654757233405,-0.00225758465747194,,
0.00484829265628724,-0.256874705047709,-0.003836934983104,,
0.0050907072891016,-0.324543985827804,-0.00524801472285352,,
0.00533312192191596,-0.380337775494139,-0.00646327112634282,,
0.00557553655473032,-0.42184575552025,-0.00747598167979557,,
0.00581795118754468,-0.44828484221801,-0.00816714999518675,,
0.00606036582035904,-0.458193961052877,-0.00859694215533668,,
0.00630278045317341,-0.451500399139773,-0.00868894461752179,,
0.00654519508598777,-0.427638075306974,-0.00847197943246503,,
0.00678760971880213,-0.388897516443124,-0.0079133543259684,,
0.00703002435161649,-0.33529583563934,-0.00710974386574348,,
0.00727243898443085,-0.269520782322475,-0.00607057120459986,,
0.00751485361724521,-0.194201594769671,-0.004760719725454,,
0.00775726825005958,-0.111555163871694,-0.00328793246122228,,
0.00799968288287394,-0.0247669388713284,-0.00170957929461757,,
0.0082420975156883,0.0627975174798509,-3.54323841089688E-05,,
0.00848451214850266,0.148501333471942,0.00159869521076494,,
0.00872692678131702,0.228401716819385,0.00324932163271363,,
0.00896934141413138,0.300080715562957,0.00470891315914868,,
0.00921175604694575,0.360219668182134,0.00602559933246205,,
0.00945417067976011,0.40736516907947,0.00711441804868507,,
0.00969658531257447,0.439565331746147,0.0079411750628342,,
0.00993899994538883,0.455605907808299,0.00847066650641226,,
0.0101814145782032,0.45527188299247,0.00871423921818471,,
0.0104238292110176,0.43835449178877,0.00859496237918433,,
0.0106662438438319,0.405033812201648,0.00820377689271412,,
0.0109086584766463,0.35745544241033,0.00749187182438105,,
0.0111510731094606,0.29656805833732,0.00650553197237524,,
0.011393487742275,0.224722650759587,0.00528148602754186,,
0.0116359023750894,0.144405268957435,0.00384826935738314,,
0.0118783170079037,0.0589000287301107,0.00229906647301403,,
0.0121207316407181,-0.028553973624253,0.000678782769304664,,
0.0123631462735324,-0.115773931379771,-0.000991358885777061,,
0.0126055609063468,-0.198421782451285,-0.00263070702364221,,
0.0128479755391612,-0.273573957596175,-0.00413965584452169,,
0.0130903901719755,-0.338519345532908,-0.00555568814077434,,
0.0133328048047899,-0.390988508949863,-0.00669924673277533,,
0.0135752194376043,-0.429324389364434,-0.00763513033799157,,
0.0138176340704186,-0.451754894237547,-0.00829132745532446,,
0.014060048703233,-0.457971845911739,-0.00865171734716341,,
0.0143024633360473,-0.447362652531964,-0.00866665811325795,,
0.0145448779688617,-0.419868589922477,-0.00836443583135393,,
0.0147872926016761,-0.377597124603044,-0.00779726839585537,,
0.0150297072344904,-0.321020819317996,-0.00692091310716325,,
0.0152721218673048,-0.25297426943788,-0.00576337974687569,,
0.0155145365001192,-0.175612659313292,-0.00442728636599066,,
0.0157569511329335,-0.0916906995533412,-0.00293232893271522,,
0.0159993657657479,-0.00452321721000376,-0.00130117619560677,,
0.0162417803985622,0.0830267888754399,0.000343970006519978,,
0.0164841950313766,0.167651237475312,0.00201530825243523,,
0.016726609664191,0.245947108761008,0.00359972746979009,,
0.0169690242970053,0.31498202841398,0.00502021374303174,,
0.0172114389298197,0.372488831400264,0.00631068709841109,,
0.017453853562634,0.416343506178394,0.00731909740355752,,
0.0176962681954484,0.444946937346062,0.00809495775901414,,
0.0179386828282628,0.457183436572849,0.00855790130199718,,
0.0181810974610771,0.452979438869553,0.0087373733076217,,
0.0184235120938915,0.431903779550438,0.0085485944844077,,
0.0186659267267059,0.395581421176179,0.00806774778205233,,
0.0189083413595202,0.344370815547435,0.00728597510452911,,
0.0191507559923346,0.280679156808887,0.00626692843642296,,
0.0193931706251489,0.206665960840419,0.0049630432921246,,
0.0196355852579633,0.125010527036341,0.00351973454164201,,
0.0198779998907777,0.0386261993898082,0.00194735601954354,,
0.020120414523592,-0.0489819628019626,0.000294793447149555,,
0.0203628291564064,-0.135493040936644,-0.00140107491084063,,
0.0206052437892207,-0.216537516085241,-0.00298537571556112,,
0.0208476584220351,-0.289673896912159,-0.0044962565320561,,
0.0210900730548495,-0.351872101159529,-0.00583776781032386,,
0.0213324876876638,-0.401540682362141,-0.00695506788126821,,
0.0215749023204782,-0.436021075659319,-0.00783368131967466,,
0.0218173169532926,-0.454599785866234,-0.00843011329521426,,
0.0220597315861069,-0.456721170086658,-0.00868686720288103,,
0.0223021462189213,-0.442232346639365,-0.00865166748921187,,
0.0225445608517356,-0.411616813604922,-0.00826915728628075,,
0.02278697548455,-0.365585864899175,-0.0076137246575354,,
0.0230293901173644,-0.306239298104793,-0.00666035753070426,,
0.0232718047501787,-0.235758144730737,-0.00549145448008925,,
0.0235142193829931,-0.156638856828471,-0.00408299851503058,,
0.0237566340158075,-0.0715715981198606,-0.00255443682253009,,
0.0239990486486218,0.0158585098147483,-0.000924432895717864,,
0.0242414632814362,0.103165169164681,0.000751311546649536,,
0.0244838779142505,0.18642479549146,0.00237547793832205,,
0.0247262925470649,0.262829847730414,0.0039121540124083,,
0.0249687071798793,0.329148259442414,0.00535309866503031,,
0.0252111218126936,0.383889416483358,0.00657952117221239,,
0.025453536445508,0.424122364708233,0.00750084625562808,,
0.0256959510783223,0.448884510493875,0.00823966215321459,,
0.0259383657111367,0.457479400737894,0.00862524277498444,,
0.0261807803439511,0.449391796481179,0.00871699802482739,,
0.0264231949767654,0.42507842553313,0.0084776964775557,,
0.0266656096095798,0.384804576310398,0.00789887890075347,,
0.0269080242423942,0.33074964712238,0.00705073282546476,,
0.0271504388752085,0.264390902481938,0.00597220146654198,,
0.0273928535080229,0.188286358963347,0.00464303418606837,,
0.0276352681408372,0.105253072793977,0.0031651489463087,,
0.0278776827736516,0.0183344403586052,0.00156291382099649,,
0.028120097406466,-0.0693373101032708,-0.000122002407008992,,
0.0283625120392803,-0.154769624419486,-0.00176462247293285,,
0.0286049266720947,-0.23433711908993,-0.00337239183084792,,
0.028847341304909,-0.305146048516252,-0.00483846489096118,,
0.0290897559377234,-0.364708481688211,-0.00609766069151219,,
0.0293321705705378,-0.410703642020833,-0.00719446914444299,,
0.0295745852033521,-0.442054256877865,-0.00799345943450724,,
0.0298169998361665,-0.456711299880578,-0.00850596593598407,,
0.0300594144689809,-0.454861310823015,-0.00870657771299044,,
0.0303018291017952,-0.436566706332114,-0.00859948283344192,,
0.0305442437346096,-0.402030926267004,-0.00815724280476626,,
0.0307866583674239,-0.352778455910642,-0.00740578168426254,,
0.0310290730002383,-0.290999983952039,-0.00641856516327888,,
0.0312714876330527,-0.218148205901872,-0.00517399228438231,,
0.031513902265867,-0.137338414430213,-0.00373672050084517,,
0.0317563168986814,-0.051443549593099,-0.0021796566794765,,
0.0319987315314958,0.0361454047515882,-0.00054082789527099,,
0.0322411461643101,0.122870361020895,0.00110953469501851,,
0.0324835607971245,0.20488250691305,0.00274009329153957,,
0.0327259754299388,0.279269492556373,0.00428893055093171,,
0.0329683900627532,0.343119074592201,0.00565016895862591,,
0.0332108046955676,0.394364616489947,0.00681748901928492,,
0.0334532193283819,0.431327757163959,0.00772485803114531,,
0.0336956339611963,0.452568440648037,0.00835956637143687,,
0.0339380485940106,0.457221781258339,0.00867192643678649,,
0.034180463226825,0.445171040730151,0.00866607643715867,,
0.0344228778596394,0.416614191254486,0.00838311594380192,,
0.0346652924924537,0.373294353830272,0.00774290660954247,,
0.0349077071252681,0.316441966809692,0.00682508820203998,,
0.0351501217580825,0.247627174054906,0.00570210016980965,,
0.0353925363908968,0.169562507020983,0.00431209787900277,,
0.0356349510237112,0.0852400228193484,0.00279726374244715,,
0.0358773656565255,-0.00187118514759793,0.00115228373349119,,
0.0361197802893399,-0.0896109974262195,-0.000494308349225925,,
0.0363621949221543,-0.173875219008512,-0.00214359483873139,,
0.0366046095549686,-0.251547634111603,-0.00373229976248979,,
0.036847024187783,-0.320085493026735,-0.00514887841879297,,
0.0370894388205973,-0.376280339699829,-0.00637433700558177,,
0.0373318534534117,-0.419561761429876,-0.00739790620536063,,
0.0375742680862261,-0.446999372141279,-0.00813745127548593,,
0.0378166827190404,-0.457818467169777,-0.0085419280608261,,
0.0380590973518548,-0.452331768728148,-0.00870129277014486,,
0.0383015119846692,-0.430214554137228,-0.00851150016858604,,
0.0385439266174835,-0.391821014677067,-0.00800781644708781,,
0.0387863412502979,-0.339541870479321,-0.00723162993753235,,
0.0390287558831122,-0.274831379245556,-0.00616873943343821,,
0.0392711705159266,-0.200083030445822,-0.00488802577204028,,
0.039513585148741,-0.117639471337561,-0.00339396370447487,,
0.0397559997815553,-0.031112558267945,-0.00181343340732676,,
0.0399984144143697,0.0564866213262063,-0.000160841751128071,,
0.040240829047184,0.142607613294699,0.00150842323497535,,
0.0404832436799984,0.223060692678281,0.00312933431790619,,
0.0407256583128128,0.294999050613991,0.00461220950763241,,
0.0409680729456271,0.356198020760949,0.00591518058948859,,
0.0412104875784415,0.404484489077658,0.00706354216413851,,
0.0414529022112559,0.437815961983659,0.00788965517974916,,
0.0416953168440702,0.455152020345974,0.0084379264516774,,
0.0419377314768846,0.455915505639296,0.00870400171883645,,
0.0421801461096989,0.440252411703196,0.00863273808700749,,
0.0424225607425133,0.408293678537755,0.00821189127430033,,
0.0426649753753277,0.361460615818489,0.00758105108006957,,
0.042907390008142,0.301337001073509,0.00657327230897353,,
0.0431498046409564,0.230155347102484,0.0053703162775709,,
0.0433922192737708,0.150407809931927,0.00397161792907896,,
0.0436346339065851,0.0651505320041077,0.00241014998867239,,
0.0438770485393995,-0.0222540838155178,0.000796746682252714,,
0.0441194631722138,-0.10970609792693,-0.000884527837887727,,
0.0443618778050282,-0.192673772078905,-0.00250865268126743,,
0.0446042924378426,-0.268278059469199,-0.00405275343527922,,
0.0448467070706569,-0.334097777243793,-0.00545690499720264,,
0.0450891217034713,-0.387717849294877,-0.00663877111517452,,
0.0453315363362856,-0.427155784373916,-0.00760968824088915,,
0.0455739509691,-0.451119224562526,-0.00829033029629711,,
0.0458163656019144,-0.458060677766459,-0.00862855209650704,,
0.0460587802347287,-0.44863654819437,-0.00868886152093618,,
0.0463011948675431,-0.42262251943614,-0.00843676309947883,,
0.0465436095003575,-0.381047010158359,-0.00784381910312071,,
0.0467860241331718,-0.325607127737367,-0.00696989231214307,,
0.0470284387659862,-0.258322429951005,-0.00587080909018134,,
0.0472708533988005,-0.181425926659682,-0.00454495113123032,,
0.0475132680316149,-0.0979203617806874,-0.00304411045969299,,
0.0477556826644293,-0.0107853304026632,-0.00145033456679666,,
0.0479980972972436,0.0767371598205071,0.000247312058125893,,
0.048240511930058,0.161778819901119,0.00188511252208379,,
0.0484829265628723,0.240493038806384,0.00347423500618493,,
0.0487253411956867,0.310482350580347,0.00494383136152887,,
0.0489677558285011,0.368611189575699,0.00622958898567383,,
0.0492101704613154,0.41336057368194,0.00727136672477657,,
0.0494525850941298,0.443079125110614,0.00805621813079771,,
0.0496949997269442,0.456673594273179,0.00851513979903684,,
0.0499374143597585,0.453421680908877,0.00873067572282071,,
0.0501798289925729,0.434051365972614,0.00855974604619814,,
0.0504222436253872,0.398385979876425,0.0081381970673422,,
0.0506646582582016,0.3483220223612,0.00734818120852498,,
0.050907072891016,0.285631017896601,0.00635486124332729,,
0.0511494875238303,0.212361992861356,0.00507936189267699,,
0.0513919021566447,0.131086633000033,0.00363211851886547,,
0.0516343167894591,0.0448837680271503,0.00206099475520949,,
0.0518767314222734,-0.042668510335952,0.000423676251447791,,
0.0521191460550878,-0.129445942017439,-0.00127033074302441,,
0.0523615606879021,-0.210972708099093,-0.00287841586796445,,
0.0526039753207165,-0.284635973308122,-0.00440342102660019,,
0.0528463899535309,-0.347736271785995,-0.00573939807226553,,
0.0530888045863452,-0.398144124323128,-0.0068898038229217,,
0.0533312192191596,-0.433850198391142,-0.00778935760090427,,
0.0535736338519739,-0.45425468369682,-0.00836164378607718,,
0.0538160484847883,-0.457046105791851,-0.00867935527154096,,
0.0540584631176027,-0.443955585208779,-0.00863205669500555,,
0.054300877750417,-0.414426200895192,-0.00830920984055039,,
0.0545432923832314,-0.369503839652182,-0.00767156195854257,,
0.0547857070160458,-0.310965067565466,-0.0067580105607119,,
0.0550281216488601,-0.241215303562804,-0.00559710347904785,,
0.0552705362816745,-0.162591585216164,-0.00423835796892247,,
0.0555129509144888,-0.0778788728309867,-0.00272967297970261,,
0.0557553655473032,0.00950042839534734,-0.00103810902484769,,
0.0559977801801176,0.0969453416390763,0.000603511804634582,,
0.0562401948129319,0.180600379782807,0.00226047226382242,,
0.0564826094457463,0.25751527432143,0.00384147205667906,,
0.0567250240785607,0.324910177574239,0.005252867563454,,
0.056967438711375,0.380236446112296,0.0064562390777847,,
0.0572098533441894,0.422112535119116,0.00747937409790378,,
0.0574522679770037,0.447855168714486,0.0081858778881716,,
0.0576946826098181,0.457538195922312,0.00858076948236031,,
0.0579370972426325,0.450678473705416,0.00869240143548344,,
0.0581795118754468,0.426953338636261,0.00850805996994186,,
0.0584219265082612,0.387996274316744,0.00796507364085919,,
0.0586643411410755,0.335047376279097,0.00711082412135688,,
0.0589067557738899,0.269557742338767,0.00604494421759449,,
0.0591491704067043,0.194044275046145,0.00473974614724337,,
0.0593915850395186,0.111377429153578,0.00326285391168213,,
0.059633999672333,0.0246533959970705,0.00167848455227837,,
0.0598764143051473,-0.0629798322576229,8.90795397889832E-06,,
0.0601188289379617,-0.148849204979753,-0.00164203838982457,,
0.0603612435707761,-0.228804975095127,-0.00322580945381201,,
0.0606036582035904,-0.300285149543563,-0.00473206594531739,,
0.0608460728364048,-0.360735688236688,-0.00604333214383335,,
0.0610884874692192,-0.408033999806572,-0.00711207264755531,,
0.0613309021020335,-0.440304319045962,-0.00794695858519345,,
0.0615733167348479,-0.456539103839255,-0.00848593965884925,,
0.0618157313676622,-0.455516862927549,-0.00871679859302166,,
0.0620581460004766,-0.438475419565418,-0.0085963251631882,,
0.062300560633291,-0.40508266617131,-0.0081856950756829,,
0.0625429752661053,-0.35689355075054,-0.00748185245356936,,
0.0627853898989197,-0.295714250007065,-0.00651045129024386,,
0.0630278045317341,-0.223620773616811,-0.00526835676701376,,
0.0632702191645484,-0.143417893306055,-0.00383999293745507,,
0.0635126337973628,-0.0576945854321723,-0.00227360775659413,,
0.0637550484301771,0.0298074897964082,-0.000653222259567432,,
0.0639974630629915,0.116755342302297,0.00101118573110659,,
0.0642398776958059,0.199320539273976,0.00265286265078402,,
0.0644822923286202,0.274145790470721,0.004154480275397,,
0.0647247069614346,0.338791521791214,0.00554555035732873,,
0.0649671215942489,0.391253584340485,0.00673168348497244,,
0.0652095362270633,0.4289330605464,0.00765577152986019,,
0.0654519508598777,0.451410431146223,0.00833254336179268,,
0.065694365492692,0.457246776312585,0.00864887544393511,,
0.0659367801255064,0.4463497847656,0.00867581535699369,,
0.0661791947583208,0.419416193642366,0.00838806850030505,,
0.0664216093911351,0.376999018518069,0.00779095305534838,,
0.0666640240239495,0.320759578395923,0.00690635250794802,,
0.0669064386567638,0.252800298179636,0.00578473556938075,,
0.0671488532895782,0.175393988092981,0.00443390085420647,,
0.0673912679223926,0.0915282317007445,0.00289506842372322,,
0.0676336825552069,0.0044312609735034,0.0012974036106197,,
0.0678760971880213,-0.0833468249819318,-0.000354836962504379,,
0.0681185118208357,-0.167871293364821,-0.00202537955861226,,
0.06836092645365,-0.24625862382628,-0.00359876354939681,,
0.0686033410864644,-0.315500959824285,-0.00505370166703711,,
0.0688457557192787,-0.372868017734559,-0.00628449505462303,,
0.0690881703520931,-0.416871171655949,-0.00732742368143668,,
0.0693305849849075,-0.445461253192373,-0.00808903712728837,,
0.0695729996177218,-0.457661609002651,-0.00855449226457194,,
0.0698154142505362,-0.4535261346725,-0.0086731064083021,,
0.0700578288833505,-0.432044305721893,-0.00854787985377126,,
0.0703002435161649,-0.395247325351674,-0.00803349536945941,,
0.0705426581489793,-0.343812332304134,-0.00725690791887867,,
0.0707850727817936,-0.279835573728096,-0.00622184022906458,,
0.071027487414608,-0.205640808572963,-0.00496603476920665,,
0.0712699020474224,-0.123809202241659,-0.00352374395189781,,
0.0715123166802367,-0.0374420586949202,-0.00193053311578417,,
0.0717547313130511,0.0501969567669352,-0.00029533980720009,,
0.0719971459458654,0.136459966089096,0.0013680689470319,,
0.0722395605786798,0.2175356850555,0.00298640819063767,,
0.0724819752114942,0.290189490914653,0.00450134204309638,,
0.0727243898443085,0.352211025574059,0.00583839518954532,,
0.0729668044771229,0.401488490984667,0.00697996777314991,,
0.0732092191099372,0.435993311266677,0.00782641867809142,,
0.0734516337427516,0.454380014011432,0.00841833643161749,,
0.073694048375566,0.456255779218686,0.00869939401316344,,
0.0739364630083803,0.441728824111934,0.00863897033092931,,
0.0741788776411947,0.410779550296369,0.00829865657417628,,
0.0744212922740091,0.365195104150557,0.00762143602068166,,
0.0746637069068234,0.30608861769255,0.00666228537149083,,
0.0749061215396378,0.235682662507262,0.00548597010543839,,
0.0751485361724521,0.156428458119011,0.00409144736037392,,
0.0753909508052665,0.0714486465959222,0.00254798645007126,,
0.0756333654380809,-0.0159808932692721,0.000897013099877775,,
0.0758757800708952,-0.10340698921364,-0.00076374071844354,,
0.0761181947037096,-0.18685816144618,-0.00239467740442967,,
0.0763606093365239,-0.263095633207804,-0.00394294960703956,,
0.0766030239693383,-0.329868713477575,-0.00535358270264119,,
0.0768454386021527,-0.384396347427278,-0.00654272600409911,,
0.077087853234967,-0.424892382799824,-0.00754156565999686,,
0.0773302678677814,-0.449889638314464,-0.00825121050120137,,
0.0775726825005958,-0.458230033460709,-0.00860898908283714,,
0.0778150971334101,-0.449782557229798,-0.00870488254264368,,
0.0780575117662245,-0.424953095218517,-0.00846586352376333,,
0.0782999263990388,-0.384304604216808,-0.00790060730973385,,
0.0785423410318532,-0.330118450994001,-0.00711142241677321,,
0.0787847556646676,-0.263287356635257,-0.00597753626733866,,
0.0790271702974819,-0.187285633680722,-0.00464724302812991,,
0.0792695849302963,-0.104031652543751,-0.00314979477470034,,
0.0795119995631107,-0.0170784743870993,-0.00155721339522286,,
0.079754414195925,0.070432689952116,0.000124578401163422,,
0.0799968288287394,0.155923976974442,0.00176487176269013,,
0.0802392434615537,0.235094710663075,0.00337456896139132,,
