Time domain (s),Current (AC) (A),Potential (AC) (V),Frequency (Hz),Column 5
0,0.246289228386978,0.00440004175076769,398.11,0.3
7.84958930948733E-05,0.214742514660538,0.00395112278778509,,
0.000156991786189747,0.174985120431898,0.00339188549084035,,
0.00023548767928462,0.128363997668533,0.00266757952625385,,
0.000313983572379493,0.0768638507622472,0.00183066664998144,,
0.000392479465474366,0.0226313588985415,0.000948459932061052,,
0.00047097535856924,-0.0324587549755232,4.60070780063937E-05,,
0.000549471251664113,-0.0873656441945612,-0.000885720684590474,,
0.000627967144758986,-0.138360412949885,-0.0017924996171188,,
0.000706463037853859,-0.183697493598683,-0.00262580187319594,,
0.000784958930948733,-0.222144067621864,-0.00333376006049901,,
0.000863454824043606,-0.25206937727503,-0.00394130412277471,,
0.000941950717138479,-0.272018121956383,-0.0043947835768039,,
0.00102044661023335,-0.28175130487211,-0.00464390859354813,,
0.00109894250332823,-0.28080749379742,-0.00475388808469202,,
0.0011774383964231,-0.268835634491935,-0.00466803642413227,,
0.00125593428951797,-0.246453489115266,-0.00436358115255731,,
0.00133443018261285,-0.214632160001986,-0.00396655513397937,,
0.00141292607570772,-0.174625598903199,-0.00337420567244484,,
0.00149142196880259,-0.128058638794064,-0.00265818080414615,,
0.00156991786189747,-0.0764455480584158,-0.00184367932516505,,
0.00164841375499234,-0.0221365940153113,-0.000974668590837613,,
0.00172690964808721,0.0327343500486158,-3.95690644587887E-05,,
0.00180540554118209,0.0874616067955517,0.000910107368868207,,
0.00188390143427696,0.138348796670037,0.00179551809560152,,
0.00196239732737183,0.183847548876314,0.00264275845659245,,
0.00204089322046671,0.221961052899605,0.00334404310681435,,
0.00211938911356158,0.251729892662775,0.00394982963027513,,
0.00219788500665645,0.271862818359544,0.00438015334377262,,
0.00227638089975132,0.281300206004693,0.00465675351376227,,
0.0023548767928462,0.280325114947521,0.00475554452614135,,
0.00243337268594107,0.268626728061583,0.00465494042694425,,
0.00251186857903594,0.246403665071582,0.00441298887930763,,
0.00259036447213082,0.214927418777712,0.00398292513046394,,
0.00266886036522569,0.174806024454648,0.00337250590355254,,
0.00274735625832056,0.12842903017499,0.0026656353461485,,
0.00282585215141544,0.0768327573866711,0.00185397014820099,,
0.00290434804451031,0.0226510226011752,0.000958585222048391,,
0.00298284393760518,-0.0324836669973652,5.32694239190334E-05,,
0.00306133983070006,-0.0873310286136497,-0.000893892906792093,,
0.00313983572379493,-0.138246676041176,-0.0017974156153846,,
0.0032183316168898,-0.183740413186876,-0.00262209015563553,,
0.00329682750998468,-0.22242169204505,-0.00335856557671965,,
0.00337532340307955,-0.251858604775625,-0.00391417892194879,,
0.00345381929617442,-0.272161436059564,-0.00437681379783239,,
0.0035323151892693,-0.281925549069825,-0.00465604472124426,,
0.00361081108236417,-0.280822142439477,-0.00474850881608146,,
0.00368930697545904,-0.268684809460821,-0.0046450062220873,,
0.00376780286855392,-0.2463871970122,-0.00440590095412441,,
0.00384629876164879,-0.214690801221939,-0.00395130720715553,,
0.00392479465474366,-0.174742321522391,-0.00335798454460834,,
0.00400329054783854,-0.12797154002107,-0.0026612059483897,,
0.00408178644093341,-0.0764723261493096,-0.00184394706653945,,
0.00416028233402828,-0.0220985728583802,-0.000955280115869872,,
0.00423877822712316,0.0327508414338613,-3.07624840627518E-05,,
0.00431727412021803,0.0874619800093621,0.000889061341490915,,
0.0043957700133129,0.138386071399347,0.00177809157609987,,
0.00447426590640778,0.183839314846623,0.00261226038102391,,
0.00455276179950265,0.22207364684102,0.00334731599515115,,
0.00463125769259752,0.251864436241412,0.00392459528347144,,
0.0047097535856924,0.272011777321607,0.0043997751203535,,
0.00478824947878727,0.281542235160716,0.00465834885240835,,
0.00486674537188214,0.28034533847087,0.00475840858117627,,
0.00494524126497702,0.26835528499213,0.00467984370765029,,
0.00502373715807189,0.24634147832043,0.00440888277092544,,
0.00510223305116676,0.214746643338315,0.00397358862211927,,
0.00518072894426164,0.174946726061156,0.00336773099721466,,
0.00525922483735651,0.128391732119816,0.00266457326833125,,
0.00533772073045138,0.0768263894260317,0.00185526552763093,,
0.00541621662354626,0.0225820946755732,0.000940045520566368,,
0.00549471251664113,-0.0324460190542445,3.85114304815026E-05,,
0.005573208409736,-0.0873456306039803,-0.000919732726828659,,
0.00565170430283088,-0.138219524736471,-0.00179832549167358,,
0.00573020019592575,-0.183690169277655,-0.00262428541271431,,
0.00580869608902062,-0.222154937474091,-0.00336224952027875,,
0.00588719198211549,-0.251944583907188,-0.00395016514021362,,
0.00596568787521037,-0.272411909178046,-0.00438821669188894,,
0.00604418376830524,-0.28188883416123,-0.00468513187753627,,
0.00612267966140012,-0.280746799901509,-0.00473689150673362,,
0.00620117555449499,-0.268639137420777,-0.00465394722865087,,
0.00627967144758986,-0.246363591238694,-0.00440269694531148,,
0.00635816734068474,-0.214764604252939,-0.00396153137258803,,
0.00643666323377961,-0.174816124553391,-0.00337219816761625,,
0.00651515912687448,-0.128046462693501,-0.00266853161902558,,
0.00659365501996935,-0.0763795825174335,-0.00184608788657492,,
0.00667215091306423,-0.0221511960056419,-0.000962730214032703,,
0.0067506468061591,0.0327703185295898,-3.64728187713936E-05,,
0.00682914269925397,0.0873445342884124,0.000921270295551668,,
0.00690763859234885,0.138400113568962,0.00178681039065109,,
0.00698613448544372,0.183843070310589,0.00262925806994252,,
0.00706463037853859,0.222203082055628,0.00335205535076755,,
0.00714312627163347,0.25171585049316,0.00396299895082697,,
0.00722162216472834,0.271479714383203,0.00438904991193345,,
0.00730011805782321,0.281665885561263,0.00464990111211172,,
0.00737861395091809,0.280410534258369,0.0047539736286164,,
0.00745710984401296,0.268504034021425,0.00462982384190669,,
0.00753560573710783,0.246451436439309,0.00441612845243711,,
0.00761410163020271,0.214723970599336,0.00397338420546811,,
0.00769259752329758,0.174896505477799,0.00337205040992794,,
0.00777109341639245,0.128476428328906,0.00264647795087347,,
0.00784958930948733,0.0768370726713534,0.00183567041409205,,
0.0079280852025822,0.0226394063213276,0.000949735314209832,,
0.00800658109567707,-0.0324939770288766,3.88058348970155E-05,,
0.00808507698877195,-0.0873735283363052,-0.00089775682588078,,
0.00816357288186682,-0.138290342056988,-0.00179916426651916,,
0.00824206877496169,-0.183714148264971,-0.00262674730020729,,
0.00832056466805657,-0.222215817976907,-0.00332901292816246,,
0.00839906056115144,-0.252092189969188,-0.00394147409966372,,
0.00847755645424631,-0.272267288826529,-0.00438757344601415,,
0.00855605234734119,-0.28192573567673,-0.00466179949435519,,
0.00863454824043606,-0.280792331986374,-0.0047450459535745,,
0.00871304413353093,-0.268698105202815,-0.00464637270296153,,
0.00879154002662581,-0.246326876330099,-0.00439262387044703,,
0.00887003591972068,-0.214810322944709,-0.00397189107514784,,
0.00894853181281555,-0.174776610541219,-0.00335659362261298,,
0.00902702770591043,-0.128068575611765,-0.0026744285950242,,
0.0091055235990053,-0.0764024418633185,-0.00183868222681483,,
0.00918401949210017,-0.0221049174931564,-0.000945849175919999,,
0.00926251538519504,0.0327654434241919,-2.91393714149102E-05,,
0.00934101127828992,0.0875363661869408,0.0008805047271081,,
0.00941950717138479,0.138302704764457,0.00180788752491035,,
0.00949800306447967,0.183811020574624,0.00261345577404848,,
0.00957649895757454,0.222113557392866,0.00334805811647154,,
0.00965499485066941,0.251778433783986,0.00396096367199705,,
0.00973349074376429,0.271681296492527,0.00437924457844385,,
0.00981198663685916,0.281443496782011,0.00467029611689407,,
0.00989048252995403,0.280268713010429,0.00476789173624859,,
0.0099689784230489,0.268737665866714,0.00465868880618681,,
0.0100474743161438,0.246164644951905,0.00439728434789854,,
0.0101259702092387,0.214741371693244,0.00397110895926511,,
0.0102044661023335,0.174969188867368,0.00337172823151066,,
0.0102829619954284,0.128433158852767,0.00266347563979208,,
0.0103614578885233,0.0768690990814555,0.0018239920019405,,
0.0104399537816181,0.0226424153576737,0.000947611158575334,,
0.010518449674713,-0.0324654728241098,3.00981299465874E-05,,
0.0105969455678079,-0.0873448841763596,-0.000894142872805759,,
0.0106754414609028,-0.138229461554172,-0.00180438355688128,,
0.0107539373539976,-0.183657419765795,-0.00263376967874684,,
0.0108324332470925,-0.222136929907741,-0.00335173095043029,,
0.0109109291401874,-0.251938239272412,-0.00396084479927072,,
0.0109894250332823,-0.272313567339014,-0.0043891443435391,,
0.0110679209263771,-0.281830379548182,-0.0046673754028963,,
0.011146416819472,-0.280789719489701,-0.00475014970409005,,
0.0112249127125669,-0.268862972403545,-0.00465699014825516,,
0.0113034086056618,-0.2463502954967,-0.00439421254333272,,
0.0113819044987566,-0.214519589386434,-0.00396690286447843,,
0.0114604003918515,-0.174731265063259,-0.00335355959068906,,
0.0115388962849464,-0.128109629130905,-0.00265527231070894,,
0.0116173921780412,-0.0764295931680226,-0.00184596345904842,,
0.0116958880711361,-0.0220847172956703,-0.000964559965251244,,
0.011774383964231,0.032805353976038,-4.66625444421886E-05,,
0.0118528798573259,0.0874694676114326,0.000912607029003087,,
0.0119313757504207,0.138452573435182,0.00179367167998201,,
0.0120098716435156,0.183791543478896,0.00262944471123294,,
0.0120883675366105,0.222055662600533,0.00333917932367145,,
0.0121668634297054,0.251786667813677,0.00393531160421068,,
0.0122453593228002,0.271934008893872,0.00436537757497435,,
0.0123238552158951,0.281383759246489,0.00464539505810802,,
0.01240235110899,0.280330713154677,0.00475910404217395,,
0.0124808470020848,0.268427035347173,0.00468904245694723,,
0.0125593428951797,0.246115917223789,0.00441138243106076,,
0.0126378387882746,0.214864462273076,0.00397889678928598,,
0.0127163346813695,0.174975183614197,0.00338040927341998,,
0.0127948305744643,0.128355017211221,0.00267179228680137,,
0.0128733264675592,0.076870591936697,0.00185211484490067,,
0.0129518223606541,0.0226047440886898,0.000963564545037432,,
0.013030318253749,-0.0325003216636528,2.15059648422944E-05,,
0.0131088141468438,-0.0873182460406447,-0.000903119430090804,,
0.0131873100399387,-0.138221017591713,-0.00177273563765068,,
0.0132658059330336,-0.183622570926252,-0.00262617626673656,,
0.0133443018261285,-0.22216389460554,-0.00334261219025755,,
0.0134227977192233,-0.25214859190628,-0.00393679917973122,,
0.0135012936123182,-0.272292014241466,-0.00438786785043011,,
0.0135797895054131,-0.281809386271349,-0.00467536987148875,,
0.0136582853985079,-0.280678455122486,-0.00475434357831661,,
0.0137367812916028,-0.268710094696473,-0.00466095183182924,,
0.0138152771846977,-0.24662698688536,-0.00438736902936299,,
0.0138937730777926,-0.214766843535802,-0.00398083097075119,,
0.0139722689708874,-0.17459322260515,-0.00337034286431592,,
0.0140507648639823,-0.127807839113498,-0.00264683234713292,,
0.0141292607570772,-0.0764998506678241,-0.00183882554066273,,
0.0142077566501721,-0.0220814983265559,-0.00094367280516261,,
0.0142862525432669,0.0327581424290266,-3.37965159866727E-05,,
0.0143647484363618,0.0875166791584439,0.000908672008470557,,
0.0144432443294567,0.138435895443031,0.00182344763151132,,
0.0145217402225516,0.183791730085801,0.00262996241862057,,
0.0146002361156464,0.222302566861954,0.00334510518463205,,
0.0146787320087413,0.251841203681717,0.00393655143563754,,
0.0147572279018362,0.272021690813445,0.00441965463966776,,
0.014835723794931,0.28146616952099,0.0046625082868732,,
0.0149142196880259,0.28018683923078,0.00473538726681211,,
0.0149927155811208,0.268611566250536,0.00467739070783768,,
0.0150712114742157,0.246086713243128,0.00441922580908471,,
0.0151497073673105,0.214526143953978,0.00397061791491859,,
0.0152282032604054,0.174826621191808,0.00340898094424391,,
0.0153066991535003,0.128500407316222,0.00264987748865719,,
0.0153851950465952,0.0769427155055503,0.00182498297831435,,
0.01546369093969,0.0226026914127328,0.000962993511566701,,
0.0155421868327849,-0.0324169550287622,2.84827940193466E-05,,
0.0156206827258798,-0.0873727819086845,-0.000885765122992765,,
0.0156991786189747,-0.138177911396616,-0.00181094266507564,,
0.0157776745120695,-0.183806891896847,-0.00264435157331855,,
0.0158561704051644,-0.222299184611797,-0.00335879665641192,,
0.0159346662982593,-0.251954520724889,-0.00395331471198368,,
0.0160131621913541,-0.27189524130932,-0.00440906830125565,,
0.016091658084449,-0.282092282339606,-0.00464666710737704,,
0.0161701539775439,-0.28067752208796,-0.00476004502534488,,
0.0162486498706388,-0.269031011921662,-0.00465300180163952,,
0.0163271457637336,-0.246418080455007,-0.00440517771912541,,
0.0164056416568285,-0.214649794354525,-0.00395494671231189,,
0.0164841375499234,-0.17458477864269,-0.00335182871491568,,
0.0165626334430183,-0.127950173530426,-0.00267484853792688,,
0.0166411293361131,-0.0764541319760542,-0.00185371684930757,,
0.016719625229208,-0.0221100025313227,-0.000975382938156244,,
0.0167981211223029,0.032774447207367,-1.45957932691232E-05,,
0.0168766170153978,0.0873906028681295,0.000911518288144286,,
0.0169551129084926,0.138392439359987,0.00178799689599529,,
0.0170336088015875,0.183978500272026,0.00261979046831096,,
0.0171121046946824,0.222016871690118,0.00334926239717648,,
0.0171906005877772,0.252054215463984,0.00394775880072329,,
0.0172690964808721,0.271950710211886,0.00436868823595304,,
0.017347592373967,0.281460198100024,0.00467211586947247,,
0.0174260882670619,0.28024100188501,0.00477228225040616,,
0.0175045841601567,0.268574478128131,0.00468160124646522,,
0.0175830800532516,0.246410802785705,0.00439821311050892,,
0.0176615759463465,0.214630107326028,0.00396823601654983,,
0.0177400718394414,0.174971264869188,0.00339265205328143,,
0.0178185677325362,0.128348066104003,0.00264991303937911,,
0.0178970636256311,0.0768445602734239,0.00183480608716513,,
0.017975559518726,0.0225965100589986,0.000946782382370337,,
0.0180540554118209,-0.0324503110130637,1.1930600084753E-05,,
0.0181325513049157,-0.0873873838990151,-0.000907588822412375,,
0.0182110471980106,-0.138297619726291,-0.00181168367543583,,
0.0182895430911055,-0.183720912765284,-0.00263124446653018,,
0.0183680389842003,-0.222166553753938,-0.00335789566780331,,
0.0184465348772952,-0.25203284897334,-0.00395036955686479,,
0.0185250307703901,-0.272240510735635,-0.00438474605266137,,
0.018603526663485,-0.281942017129208,-0.00465742786651902,,
0.0186820225565798,-0.280809219911293,-0.00475774311610033,,
0.0187605184496747,-0.268830222891685,-0.0046767974551658,,
0.0188390143427696,-0.24643907373184,-0.00439848640668394,,
0.0189175102358645,-0.214637431647057,-0.00396239681047472,,
0.0189960061289593,-0.1747228211008,-0.00337054728096708,,
0.0190745020220542,-0.128066709542713,-0.00267225222426681,,
0.0191529979151491,-0.076471766328594,-0.00182676273633087,,
0.019231493808244,-0.0220912485373518,-0.000968574974908432,,
0.0193099897013388,0.0327141265252665,-2.14393072388575E-05,,
0.0193884855944337,0.0874046683636077,0.000909991829022072,,
0.0194669814875286,0.138347093882027,0.00180447909944625,,
0.0195454773806234,0.183886713000539,0.00262264563566506,,
0.0196239732737183,0.222143694408054,0.00335888108937654,,
0.0197024691668132,0.251802412771302,0.00393204538163383,,
0.0197809650599081,0.271995449217403,0.00439407367332523,,
0.0198594609530029,0.281456815849868,0.00466518347869771,,
0.0199379568460978,0.280176552525132,0.00476912267999552,,
0.0200164527391927,0.268305064408773,0.00466803864605225,,
0.0200949486322876,0.246441896161281,0.00440372569432679,,
0.0201734445253824,0.214744940550306,0.00398305844567126,,
0.0202519404184773,0.175058177035277,0.00338995686417576,,
0.0203304363115722,0.128353687637022,0.0026626557512679,,
0.0204089322046671,0.0767864788741856,0.00183683914407506,,
0.0204874280977619,0.0225850803860561,0.00095964729986564,,
0.0205659239908568,-0.0324917377460144,2.46466489319808E-05,,
0.0206444198839517,-0.0873668104877186,-0.000921793557739914,,
0.0207229157770465,-0.138319359430744,-0.00181668855050621,,
0.0208014116701414,-0.183799987441355,-0.00260861754298736,,
0.0208799075632363,-0.222065552766508,-0.00334468190884918,,
0.0209584034563312,-0.251855245851332,-0.00395891728356679,,
0.021036899349426,-0.272018495170193,-0.004392365016753,,
0.0211153952425209,-0.281677315234205,-0.0046505665771881,,
0.0211938911356158,-0.280868980772678,-0.00475528011764759,,
0.0212723870287107,-0.268675292508656,-0.00467035610873756,,
0.0213508829218055,-0.246454795363602,-0.0043980575761009,,
0.0214293788149004,-0.214718512347359,-0.00396137139433916,,
0.0215078747079953,-0.174553475334346,-0.00338824931856374,,
0.0215863706010902,-0.1280725410085,-0.00266751397961063,,
0.021664866494185,-0.0765397845455333,-0.00186751941709362,,
0.0217433623872799,-0.0220749670848745,-0.000955003486815098,,
0.0218218582803748,0.0327086915991531,-4.84289709374863E-05,,
0.0219003541734696,0.0873724320207373,0.000893485184449982,,
0.0219788500665645,0.138441330369145,0.00179143198450094,,
0.0220573459596594,0.183891401499032,0.00262061257875557,,
0.0221358418527543,0.221859678698365,0.0033638959630875,,
0.0222143377458491,0.251636052715331,0.0039519337886289,,
0.022292833638944,0.271872381963435,0.00439273385549255,,
0.0223713295320389,0.281473867055829,0.0046568157275253,,
0.0224498254251338,0.280507569849064,0.00476191477112575,,
0.0225283213182286,0.268400047323511,0.00466119513208207,,
0.0226068172113235,0.246209967104002,0.00440449447868829,,
0.0226853131044184,0.214688561939077,0.00398504706417846,,
0.0227638089975132,0.174963380727444,0.00337217483745489,,
0.0228423048906081,0.128434278494198,0.00263329085496045,,
0.022920800783703,0.0767392906530374,0.00182061023951796,,
0.0229992966767979,0.0226156139409167,0.000953759211547389,,
0.0230777925698927,-0.0324868393147533,3.74682389847614E-05,,
0.0231562884629876,-0.0873802928366181,-0.000896400343647574,,
0.0232347843560825,-0.138368810260618,-0.00182040915574744,,
0.0233132802491774,-0.183802413331123,-0.00262479423242157,,
0.0233917761422722,-0.222189739661907,-0.00332415914366013,,
0.0234702720353671,-0.2521997221983,-0.00394490918816937,,
0.023548767928462,-0.271898786840518,-0.00439387370051447,,
0.0236272638215569,-0.281834111686285,-0.00464073235873652,,
0.0237057597146517,-0.280608197622684,-0.00472556860180173,,
0.0237842556077466,-0.268639510634588,-0.00468958349449666,,
0.0238627515008415,-0.246525426077214,-0.00440968377312911,,
0.0239412473939363,-0.21472807595125,-0.00395274367851295,,
0.0240197432870312,-0.174728279352776,-0.00338026484861231,,
0.0240982391801261,-0.128042357341587,-0.00265245269407632,,
0.024176735073221,-0.0764138715362609,-0.00182713712987104,,
0.0242552309663158,-0.02208434408186,-0.000959170698000111,,
0.0243337268594107,0.0327779927385655,-3.78915147680736E-05,,
0.0244122227525056,0.0874844661414367,0.00089717134992906,,
0.0244907186456005,0.138403495819119,0.00178470401037734,,
0.0245692145386953,0.183693388246769,0.00261808625557869,,
0.0246477104317902,0.222015728722824,0.00333846608731303,,
0.0247262063248851,0.251833506146878,0.0039421995565827,,
0.02480470221798,0.271706395121274,0.00437928901684614,,
0.0248831981110748,0.281458518637878,0.00465823331256221,,
0.0249616940041697,0.280158941498455,0.0047472189914517,,
0.0250401898972646,0.268511894837305,0.00465866214314525,,
0.0251186857903594,0.246328929006056,0.00440940047831351,,
0.0251971816834543,0.214761431935551,0.00397737255208375,,
0.0252756775765492,0.175009845846835,0.00338512196599439,,
0.0253541734696441,0.128342444570985,0.002654963463812,,
0.0254326693627389,0.0768762134697156,0.00184576237527745,,
0.0255111652558338,0.0226315455054467,0.00096317126517631,,
0.0255896611489287,-0.0324641665757736,3.69505315971352E-05,,
0.0256681570420236,-0.0872603979000378,-0.000902557284300443,,
0.0257466529351184,-0.138188781248842,-0.0017923296402298,,
