Time domain (s),Current (AC) (A),Potential (AC) (V),Frequency (Hz),Column 5
0,0.175641626850196,0.00244615074380627,630.96,0.3
4.95277038164067E-05,0.214897188459072,0.0031309265275361,,
9.90554076328135E-05,0.246511010693789,0.00372365482645121,,
0.00014858311144922,0.26795195749244,0.00414682617908246,,
0.000198110815265627,0.279386295607544,0.00441705388216729,,
0.000247638519082034,0.280139067863053,0.0045565282519453,,
0.00029716622289844,0.270198518023941,0.00443950194114029,,
0.000346693926714847,0.249833733247482,0.00423857148276063,,
0.000396221630531254,0.220046792614509,0.00383550628529639,,
0.000445749334347661,0.181806932390545,0.00325276773924132,,
0.000495277038164067,0.136520235606146,0.00259434170621553,,
0.000544804741980474,0.0858066368052077,0.00183072330894429,,
0.000594332445796881,0.0322099613191877,0.000996247879043732,,
0.000643860149613288,-0.0221764812412942,0.000135084966580656,,
0.000693387853429694,-0.077348445569145,-0.000786798578924053,,
0.000742915557246101,-0.128977304588281,-0.00161457047582214,,
0.000792443261062508,-0.175437059030389,-0.00244103588368993,,
0.000841970964878915,-0.215224636925942,-0.00314681547831519,,
0.000891498668695321,-0.246474015874836,-0.00369351448002231,,
0.000941026372511728,-0.268395662061239,-0.00414723056854438,,
0.000990554076328135,-0.279818430548222,-0.00439638780313034,,
0.00104008178014454,-0.280649577703908,-0.00451853897269228,,
0.00108960948396095,-0.270478941550705,-0.00446282210376081,,
0.00113913718777736,-0.250085232703942,-0.0042046349858067,,
0.00118866489159376,-0.219985352290978,-0.00380149979785882,,
0.00123819259541017,-0.181607263001999,-0.00323682990621998,,
0.00128772029922658,-0.136152200137399,-0.00259247418235464,,
0.00133724800304298,-0.0854324433085889,-0.00181976924275284,,
0.00138677570685939,-0.0315705527585772,-0.000960517181592735,,
0.0014363034106758,0.0226034378403535,-0.000109548438640861,,
0.0014858311144922,0.0774184464844519,0.000803759606160526,,
0.00153535881830861,0.129107276297741,0.00166826095360406,,
0.00158488652212502,0.175568663550269,0.00243770522543008,,
0.00163441422594142,0.215115705145042,0.00313354839327795,,
0.00168394192975783,0.246295106504492,0.00371841109496796,,
0.00173346963357424,0.267999728860167,0.0041551161630502,,
0.00178299733739064,0.279475680315127,0.00443989522100186,,
0.00183252504120705,0.280384269336464,0.00455965671547443,,
0.00188205274502346,0.270107453854212,0.0044503293578857,,
0.00193158044883986,0.249842130558215,0.00422611984240762,,
0.00198110815265627,0.220101655044633,0.00380501265356825,,
0.00203063585647268,0.18179163062432,0.00328529664979937,,
0.00208016356028908,0.136270928780822,0.00258340097154441,,
0.00212969126410549,0.0858047707361558,0.00180863520103092,,
0.0021792189679219,0.0322080952501358,0.000974099779286863,,
0.0022287466717383,-0.0222690382662651,0.000132579751645601,,
0.00227827437555471,-0.0772691376344421,-0.000780809393240212,,
0.00232780207937112,-0.128932192368953,-0.00163007170154028,,
0.00237732978318752,-0.175509275902695,-0.00244779052085509,,
0.00242685748700393,-0.21535414211814,-0.00315013947081466,,
0.00247638519082034,-0.246409636492548,-0.00372683439414345,,
0.00252591289463674,-0.268325311257985,-0.0041706407189297,,
0.00257544059845315,-0.279819923403464,-0.00441044811365021,,
0.00262496830226956,-0.280790885782858,-0.00454259903471277,,
0.00267449600608596,-0.270298306066488,-0.0044455189008259,,
0.00272402370990237,-0.250096988938969,-0.00421690109582995,,
0.00277355141371878,-0.22015031279516,-0.00382200367672692,,
0.00282307911753518,-0.181529401270812,-0.00323600335193541,,
0.00287260682135159,-0.136042708535782,-0.0025955037704386,,
0.002922134525168,-0.0853831790856206,-0.0018112370694916,,
0.0029716622289844,-0.0315668672721999,-0.000982754158154631,,
0.00302118993280081,0.0226064235508364,-0.000125270745410688,,
0.00307071763661722,0.077447953701334,0.000803491864786121,,
0.00312024534043362,0.129123884312303,0.00165148101285695,,
0.00316977304425003,0.175537500197104,0.00245375637637757,,
0.00321930074806644,0.21521609966003,0.00313977865729465,,
0.00326882845188285,0.246188180747822,0.00371509599014885,,
0.00331835615569925,0.267767963083929,0.00415918005495008,,
0.00336788385951566,0.27958092660965,0.00444566332563356,,
0.00341741156333207,0.280103612551068,0.00453944613006207,,
0.00346693926714847,0.270271294716963,0.00446168781353951,,
0.00351646697096488,0.249721395890561,0.00424504171415041,,
0.00356599467478129,0.220167154068352,0.00382259248555838,,
0.00361552237859769,0.181797765326328,0.00327967074805535,,
0.0036650500824141,0.136392409876096,0.00261298805986332,,
0.00371457778623051,0.0858865045606261,0.00182585063812102,,
0.00376410549004691,0.0321808506419791,0.0010032335959016,,
0.00381363319386332,-0.0222639532280989,0.000106118904935393,,
0.00386316089767973,-0.0773338902305407,-0.000782123658991107,,
0.00391268860149613,-0.12901560565557,-0.0016359275720168,,
0.00396221630531254,-0.175671577258478,-0.00244221794519417,,
0.00401174400912895,-0.215164549502473,-0.00314156285915113,,
0.00406127171294535,-0.24661565051587,-0.00370963784337386,,
0.00411079941676176,-0.268347004310713,-0.00414739054679281,,
0.00416032712057817,-0.27981619126536,-0.00442535275381584,,
0.00420985482439457,-0.280362762890642,-0.0045442699186431,,
0.00425938252821098,-0.270308756053178,-0.00444926061430806,,
0.00430891023202739,-0.250146393117116,-0.00422462337920715,,
0.00435843793584379,-0.219921532729405,-0.00380037106243769,,
0.0044079656396602,-0.181376430260288,-0.00324787729305731,,
0.00445749334347661,-0.136074571664842,-0.00259488163280475,,
0.00450702104729301,-0.0853574739844316,-0.00180825969653053,,
0.00455654875110942,-0.031664042818074,-0.00100705307658799,,
0.00460607645492583,0.0226652047259692,-0.000101078479143091,,
0.00465560415874223,0.0773499850761128,0.000795093006732195,,
0.00470513186255864,0.129112501291087,0.00163989147751087,,
0.00475465956637505,0.175616248311091,0.00244089590272223,,
0.00480418727019145,0.215014564202432,0.00313576142571748,,
0.00485371497400786,0.246166720953725,0.00370159560349892,,
0.00490324267782427,0.267797446974948,0.00414000044047347,,
0.00495277038164067,0.279373046517276,0.00441731162490111,,
0.00500229808545708,0.280117794675862,0.00455631494761377,,
0.00505182578927349,0.270276146496497,0.00446493181691476,,
0.00510135349308989,0.249932448300324,0.00421593456057723,,
0.0051508811969063,0.220147560343308,0.00383129352474887,,
0.00520040890072271,0.181605210326042,0.00325119461979639,,
0.00524993660453911,0.1364573490791,0.00258342763458552,,
0.00529946430835552,0.0858642983389093,0.00182003809508702,,
0.00534899201217193,0.0321754623675919,0.000953391483767607,,
0.00539851971598833,-0.0222195874363915,0.000112162527662107,,
0.00544804741980474,-0.0772603671098985,-0.000784487781999132,,
0.00549757512362115,-0.129045789322484,-0.0016693374739023,,
0.00554710282743756,-0.175289079754578,-0.00242312609656192,,
0.00559663053125396,-0.215247776182185,-0.00313017774045576,,
0.00564615823507037,-0.246570491644816,-0.00374560517531775,,
0.00569568593888678,-0.268364731966705,-0.00412190067917528,,
0.00574521364270318,-0.279735996947857,-0.0044218321213858,,
0.00579474134651959,-0.280574235165941,-0.00454683068158124,,
0.005844269050336,-0.270479501371421,-0.0044471542340343,,
0.0058937967541524,-0.250300763679429,-0.00422212705195202,,
0.00594332445796881,-0.220005692443643,-0.00381302711944187,,
0.00599285216178522,-0.181496418500321,-0.00325883580308961,,
0.00604237986560162,-0.136013737813753,-0.00261291473649949,,
0.00609190756941803,-0.0853982942449404,-0.00180673101548789,,
0.00614143527323444,-0.0316736064219647,-0.00100441232452519,,
0.00619096297705084,0.022718014480136,-0.000112952420264989,,
0.00624049068086725,0.077343080620621,0.000803651843034547,,
0.00629001838468366,0.129176344178522,0.00165734021621367,,
0.00633954608850006,0.175515457256429,0.00245425408648448,,
0.00638907379231647,0.215160117588475,0.00315641639515407,,
0.00643860149613288,0.246124734400059,0.00371250078744856,,
0.00648812919994928,0.268049552903851,0.00416077761551614,,
0.00653765690376569,0.279411674146649,0.00439878081109946,,
0.0065871846075821,0.280171164250745,0.00455038686473319,,
0.0066367123113985,0.27019777159632,0.00446017690785805,,
0.00668624001521491,0.249920692065297,0.00422199818058511,,
0.00673576771903132,0.220227241491821,0.00383535297280835,,
0.00678529542284772,0.181649995983286,0.00327370711445285,,
0.00683482312666413,0.136409764318278,0.00259637698504545,,
0.00688435083048054,0.085843584972434,0.0018185982908494,,
0.00693387853429694,0.0321642659532809,0.000958652990612041,,
0.00698340623811335,-0.0221940222903814,0.000106902131777442,,
0.00703293394192976,-0.0774141311997695,-0.000796078428305425,,
0.00708246164574616,-0.129183178656425,-0.00165902776454496,,
0.00713198934956257,-0.17543314028538,-0.0024187811317673,,
0.00718151705337898,-0.215116404920936,-0.00314599003499039,,
0.00723104475719538,-0.246677417401486,-0.0036956119726157,,
0.00728057246101179,-0.268280525600741,-0.00413072614589227,,
0.0073301001648282,-0.279910800966288,-0.00443423154661593,,
0.0073796278686446,-0.28057386195213,-0.0045343968165894,,
0.00742915557246101,-0.270636857644217,-0.00444437239004403,,
0.00747868327627742,-0.250065825585803,-0.00421311383298528,,
0.00752821098009382,-0.220025519427318,-0.00381351594186796,,
0.00757773868391023,-0.181643044876068,-0.00326675472639737,,
0.00762726638772664,-0.136084275223912,-0.00259178871999755,,
0.00767679409154304,-0.0854714908034985,-0.00182056024631549,,
0.00772632179535945,-0.0316146386399268,-0.000982656393669235,,
0.00777584949917586,0.0226261805569227,-9.14708965438216E-05,,
0.00782537720299227,0.0773121038743605,0.000795706256685236,,
0.00787490490680867,0.129172215500745,0.00165364960689418,,
0.00792443261062508,0.17565077058855,0.002458557945757,,
0.00797396031444149,0.214894016141684,0.00313597473004901,,
0.00802348801825789,0.246326269857657,0.0037378040137761,,
0.0080730157220743,0.26797714942464,0.00414500198266365,,
0.00812254342589071,0.279262948443218,0.00442711473647073,,
0.00817207112970711,0.280455926388055,0.00454214576300815,,
0.00822159883352352,0.27007498425271,0.00446808694348544,,
0.00827112653733993,0.249808168101472,0.00421140184353241,,
0.00832065424115633,0.220041381014259,0.00380676352662279,,
0.00837018194497274,0.18171323239828,0.00326385956448094,,
0.00841970964878915,0.13640659200089,0.00259335517368209,,
0.00846923735260555,0.0858618724491419,0.00181244135019654,,
0.00851876505642196,0.0322211577334987,0.000961914769348038,,
0.00856829276023837,-0.0222039124563561,0.000122908844322644,,
0.00861782046405477,-0.0773818482051728,-0.00079756155998556,,
0.00866734816787118,-0.129062630595676,-0.00165111772891757,,
0.00871687587168759,-0.175449748299941,-0.00243253926115106,,
0.00876640357550399,-0.215225523308742,-0.00314018637963676,,
0.0088159312793204,-0.246292633962998,-0.00372966956421639,,
0.00886545898313681,-0.268274600831502,-0.00414397767748831,,
0.00891498668695321,-0.279736370161668,-0.00442521943860852,,
0.00896451439076962,-0.280566724238007,-0.00452411265931341,,
0.00901404209458603,-0.27034589082731,-0.00444910952374,,
0.00906356979840243,-0.250020293500939,-0.00421410147647849,,
0.00911309750221884,-0.220058315590904,-0.00382412783236186,,
0.00916262520603525,-0.181394904343901,-0.0032766911531743,,
0.00921215290985165,-0.13601956927954,-0.00260155628084568,,
0.00926168061366806,-0.0854145290456914,-0.00181817834794673,,
0.00931120831748447,-0.0316226627368496,-0.000963885612494941,,
0.00936073602130087,0.0226788270300475,-0.000123653187563022,,
0.00941026372511728,0.0773992492990811,0.00077578007704826,,
0.00945979142893369,0.129109142366793,0.00165526049898146,,
0.00950931913275009,0.175652636657602,0.00243397239962828,,
0.0095588468365665,0.215139217615095,0.00311039598562646,,
0.00960837454038291,0.246252186916299,0.00371498933798309,,
0.00965790224419931,0.268014284198771,0.00414488644281752,,
0.00970742994801572,0.279126165581719,0.00444492564815357,,
0.00975695765183213,0.280256070392603,0.00452998963803086,,
0.00980648535564854,0.270099056543478,0.00445173361140139,,
0.00985601305946494,0.249949429528695,0.00424183326149707,,
0.00990554076328135,0.220091018451038,0.00380774117147586,,
0.00995506846709776,0.181794056514088,0.00326701469105117,,
0.0100045961709142,0.136404912538743,0.00258915130081494,,
0.0100541238747306,0.0857381753968686,0.00179252183631995,,
0.010103651578547,0.0322353631841557,0.000997054436047584,,
0.0101531792823634,-0.0222175347604345,0.000104609110213705,,
0.0102027069861798,-0.0773491919967657,-0.000778551922398396,,
0.0102522346899962,-0.129074899999692,-0.00165459170102533,,
0.0103017623938126,-0.175414292987956,-0.00241176764090811,,
0.010351290097629,-0.215312715385189,-0.00314948178245933,,
0.0104008178014454,-0.246500700662277,-0.00372190173147668,,
0.0104503455052618,-0.268331096072046,-0.00412394484568557,,
0.0104998732090782,-0.279883229796047,-0.00442506834804046,,
0.0105494009128946,-0.280648271455572,-0.00451864562485804,,
0.010598928616711,-0.270558622699218,-0.004446913155701,,
0.0106484563205274,-0.250014322079973,-0.00420141875643321,,
0.0106979840243439,-0.220091578271753,-0.00380510819613367,,
0.0107475117281603,-0.181583750531946,-0.00327332272227254,,
0.0107970394319767,-0.136038369925237,-0.00259271303876751,,
0.0108465671357931,-0.0854408406193222,-0.001832690819211,,
0.0108960948396095,-0.0316870421191379,-0.000977608191156776,,
0.0109456225434259,0.0226118118252236,-0.000118693861855146,,
0.0109951502472423,0.0772975252098931,0.000773504830845262,,
0.0110446779510587,0.129131161981605,0.00166008650948202,,
0.0110942056548751,0.175594788516995,0.00240817146319383,,
0.0111437333586915,0.214927045563901,0.00315580314520059,,
0.0111932610625079,0.246227928018626,0.00372843639854947,,
0.0112427887663243,0.268015403840202,0.0041886849322248,,
0.0112923164701407,0.279619927452833,0.00444516339360623,,
0.0113418441739571,0.280252151647594,0.00455016467272129,,
0.0113913718777736,0.269999408456111,0.0044655450668678,,
0.01144089958159,0.249990856261646,0.00423551412067535,,
0.0114904272854064,0.220053323856191,0.00383199342958651,,
0.0115399549892228,0.181767371726647,0.00328316360648406,,
0.0115894826930392,0.136411070566614,0.00261274809249024,,
0.0116390103968556,0.0858185796471394,0.00180670879628675,,
0.011688538100672,0.0322224639818349,0.000978081460142111,,
0.0117380658044884,-0.0222423534788239,0.000138977770631321,,
0.0117875935083048,-0.0773915517642423,-0.000774320275529483,,
0.0118371212121212,-0.129048215212251,-0.00164420311350399,,
0.0118866489159376,-0.175640087343228,-0.00245155778641859,,
0.011936176619754,-0.215172760206301,-0.0031273514580632,,
0.0119857043235704,-0.246353654420993,-0.00373651307818657,,
0.0120352320273868,-0.268650986959256,-0.00416048210014042,,
0.0120847597312032,-0.279810453103026,-0.00442227761636982,,
0.0121342874350197,-0.280305707829382,-0.00450033700306873,,
0.0121838151388361,-0.27042095345492,-0.00445685069343815,,
0.0122333428426525,-0.25011826212616,-0.00422926274841773,,
0.0122828705464689,-0.220192719214363,-0.0038075523082659,,
0.0123323982502853,-0.181479204013317,-0.00326048891165875,,
0.0123819259541017,-0.135948098834854,-0.00256325926565593,,
0.0124314536579181,-0.0853567275568108,-0.00183511826694227,,
0.0124809813617345,-0.0316235957713756,-0.000992841675500067,,
0.0125305090655509,0.0226235680602501,-0.000109672866167365,,
0.0125800367693673,0.0773945608005884,0.000788747202868922,,
0.0126295644731837,0.12903487281853,0.00164400869549342,,
0.0126790921770001,0.175491944786376,0.00243630985959431,,
0.0127286198808165,0.215097604275239,0.0031570740835094,,
0.0127781475846329,0.246166347739915,0.0037240725474339,,
0.0128276752884493,0.267985919949183,0.00413271032055951,,
0.0128772029922658,0.279321729618351,0.00444152166652945,,
0.0129267306960822,0.279884909258194,0.00455371974491348,,
0.0129762583998986,0.270167541277681,0.00446924234194768,,
0.013025786103715,0.249915093858142,0.00421980292350632,,
0.0130753138075314,0.22002701228256,0.00379802693671083,,
0.0131248415113478,0.181887359966679,0.00328518999763361,,
0.0131743692151642,0.136408458069942,0.00259946101017228,,
0.0132238969189806,0.0858646715527197,0.00181834054811514,,
0.013273424622797,0.0321696542276681,0.000978205887668615,,
0.0133229523266134,-0.0222594746623745,0.000129832347417036,,
0.0133724800304298,-0.077343407182705,-0.0007979526179267,,
0.0134220077342462,-0.129017471724622,-0.00162667660759652,,
0.0134715354380626,-0.175546037463016,-0.0024377296665512,,
0.013521063141879,-0.21535110975593,-0.00314710099505078,,
0.0135705908456954,-0.246491743530828,-0.00372395478566778,,
0.0136201185495119,-0.268380360295014,-0.00414009376111846,,
0.0136696462533283,-0.279894006344821,-0.00440407564674583,,
0.0137191739571447,-0.280644585969195,-0.00453279592314271,,
0.0137687016609611,-0.270703616264546,-0.00447250967548474,,
0.0138182293647775,-0.24991486059951,-0.00422140714983321,,
0.0138677570685939,-0.219909963101284,-0.00381989729645316,,
0.0139172847724103,-0.181293716749565,-0.00326159098403833,,
0.0139668124762267,-0.136074198451032,-0.00260099746793552,,
0.0140163401800431,-0.0853452978838684,-0.00182087131513242,,
0.0140658678838595,-0.0316053082946676,-0.000982416426296595,,
0.0141153955876759,0.022593734281284,-0.000109102943656847,,
0.0141649232914923,0.0774828491926032,0.000786214213932102,,
0.0142144509953087,0.129177253887185,0.00163210586940998,,
0.0142639786991251,0.175663459858102,0.00241755907570118,,
0.0143135064029415,0.215081369474488,0.00315931377899048,,
0.014363034106758,0.246180343257804,0.00373435559374968,,
0.0144125618105744,0.267937961974551,0.00416907870908512,,
0.0144620895143908,0.279639894391688,0.00441241451295626,,
0.0145116172182072,0.279921110997799,0.00453094950752275,,
0.0145611449220236,0.270292941117964,0.004461563386013,,
0.01461067262584,0.250000186606905,0.00424456177940469,,
0.0146602003296564,0.220110798782987,0.00382587203965556,,
0.0147097280334728,0.181737118082144,0.00329408656579444,,
0.0147592557372892,0.136311982299962,0.00258915130081494,,
0.0148087834411056,0.085843584972434,0.0018270060365837,,
0.014858311144922,0.0322295550442319,0.000983102999613461,,
0.0149078388487384,-0.0222820540979016,0.000108207509847968,,
0.0149573665525548,-0.0772586876477518,-0.000759247880394831,,
0.0150068942563712,-0.129084463603583,-0.00163219585717478,,
0.0150564219601876,-0.175582425809526,-0.00242556243197356,,
0.0151059496640041,-0.215171080744155,-0.00312755587471436,,
0.0151554773678205,-0.24655407023716,-0.00371827555784066,,
0.0152050050716369,-0.268327737147753,-0.00417030298707122,,
0.0152545327754533,-0.279633129891375,-0.00441911360211877,,
0.0153040604792697,-0.280562432279188,-0.00454269679919816,,
0.0153535881830861,-0.270433596072746,-0.00444344696031385,,
0.0154031158869025,-0.25035264039907,-0.00419270771860214,,
0.0154526435907189,-0.220008304940315,-0.00381164952896729,,
0.0155021712945353,-0.181333650627274,-0.00326259418097274,,
0.0155516989983517,-0.136017516603583,-0.00257697295663695,,
0.0156012267021681,-0.0853667576779644,-0.00179240407455383,,
0.0156507544059845,-0.0317123740065165,-0.000962303605369641,,
0.0157002821098009,0.0226353242952767,-0.00010399252738047,,
0.0157498098136173,0.0775136160060953,0.000774473588017521,,
0.0157993375174338,0.129132468229941,0.00163598312001945,,
0.0158488652212502,0.175537500197104,0.00242962632387345,,
0.0158983929250666,0.21504292845202,0.00313509484968133,,
0.015947920628883,0.246277378848499,0.00369790721609986,,
0.0159974483326994,0.267815921058561,0.00413121719023879,,
0.0160469760365158,0.279556107891261,0.00442260868246747,,
0.0160965037403322,0.280002471608459,0.0045336958007911,,
0.0161460314441486,0.270375794583865,0.00445813274134732,,
0.016195559147965,0.249749386926339,0.00422585321199342,,
