Time domain (s),Current (AC) (A),Potential (AC) (V),Frequency (Hz),Column 5
0,-0.281785150699538,-0.00532208415584634,125.89,0.3
0.000242414632814362,-0.271623471677784,-0.00525399664060444,,
0.000484829265628723,-0.251484481256596,-0.00501177931497354,,
0.000727243898443085,-0.222346746046756,-0.00459606311160643,,
0.000969658531257447,-0.184845475953508,-0.00399331110439505,,
0.00121207316407181,-0.140591648389298,-0.00325761170530336,,
0.00145448779688617,-0.0914115851351552,-0.00238020331222444,,
0.00169690242970053,-0.0386425112736229,-0.00145462055059609,,
0.00193931706251489,0.0153574217344981,-0.000448278409495462,,
0.00218173169532926,0.0691278282492438,0.000568207304267432,,
0.00242414632814362,0.120183267574615,0.00156384639507623,,
0.00266656096095798,0.166815983291964,0.00250520399332732,,
0.00290897559377234,0.207117663211298,0.00338452038755932,,
0.0031513902265867,0.240092036391705,0.0040933298931134,,
0.00339380485940106,0.264111144192369,0.00467006923122115,,
0.00363621949221543,0.278286364530804,0.00505951127050652,,
0.00387863412502979,0.28250274755342,0.00528921028419127,,
0.00412104875784415,0.276500909662011,0.00530325803769882,,
0.00436346339065851,0.260275999077042,0.00514576812581025,,
0.00460587802347287,0.234346782994923,0.00480929098227145,,
0.00484829265628724,0.200220485388819,0.0042315543144773,,
0.0050907072891016,0.158572250041683,0.00357592254942007,,
0.00533312192191596,0.111059146271543,0.0027364385298525,,
0.00557553655473032,0.0594110200894463,0.00183079019939214,,
0.00581795118754468,0.00575836253187129,0.000841305362500488,,
0.00606036582035904,-0.0483132275278401,-0.000173041261523732,,
0.00630278045317341,-0.100821611542831,-0.00118453880653613,,
0.00654519508598777,-0.149262898059353,-0.00216846535480997,,
0.00678760971880213,-0.192533867053963,-0.00302529318087252,,
0.00703002435161649,-0.228544287929976,-0.00381149303756834,,
0.00727243898443085,-0.256201204043734,-0.00444805847397456,,
0.00751485361724521,-0.274289337925232,-0.00491715462035103,,
0.00775726825005958,-0.282634025511217,-0.00521395750246834,,
0.00799968288287394,-0.280307037403581,-0.00530459287834617,,
0.0082420975156883,-0.267788513169362,-0.00523137428430642,,
0.00848451214850266,-0.245614014626436,-0.00495747349730147,,
0.00872692678131702,-0.214340003566058,-0.00446377097749195,,
0.00896934141413138,-0.175139677601116,-0.00383270453723705,,
0.00921175604694575,-0.129660915659557,-0.00307565833002821,,
0.00945417067976011,-0.0793166585757023,-0.00220576791758731,,
0.00969658531257447,-0.0261062593834116,-0.00123487811025758,,
0.00993899994538883,0.0278755727549067,-0.000217895251971356,,
0.0101814145782032,0.0812104387529546,0.000766288230322765,,
0.0104238292110176,0.131595796007676,0.00179324438547157,,
0.0106662438438319,0.176912163289999,0.00270183605476237,,
0.0109086584766463,0.215538486414597,0.00353010619663818,,
0.0111510731094606,0.246261074070159,0.00424154281453637,,
0.011393487742275,0.268386494997022,0.00476781666239212,,
0.0116359023750894,0.280355275288571,0.00513305521295004,,
0.0118783170079037,0.282035297255936,0.00531982344053628,,
0.0121207316407181,0.273538898256037,0.00529623112030597,,
0.0123631462735324,0.254929711243542,0.00507826593363081,,
0.0126055609063468,0.227175293021825,0.00468253585229927,,
0.0128479755391612,0.191190017426286,0.00408806350586799,,
0.0130903901719755,0.14803007954026,0.00338927290676549,,
0.0133328048047899,0.0993934155940113,0.0025359874254729,,
0.0135752194376043,0.0470960839887823,0.00158295377235795,,
0.0138176340704186,-0.0067403347186719,0.000577925187430051,,
0.014060048703233,-0.0608086125058163,-0.000421192394723935,,
0.0143024633360473,-0.112456785339639,-0.00142332629105058,,
0.0145448779688617,-0.159902850579093,-0.00237254090122008,,
0.0147872926016761,-0.201532985056426,-0.00321685193565635,,
0.0150297072344904,-0.235656856772762,-0.00398624465869135,,
0.0152721218673048,-0.261203715306161,-0.00456491480274668,,
0.0155145365001192,-0.277124456635681,-0.00500650076517095,,
0.0157569511329335,-0.28299795562805,-0.00524826959650682,,
0.0159993657657479,-0.278454217442017,-0.00529858457511434,,
0.0162417803985622,-0.263623260438767,-0.00517812660910622,,
0.0164841950313766,-0.238840323923462,-0.00484447117882603,,
0.016726609664191,-0.205913815414234,-0.00434365356308453,,
0.0169690242970053,-0.16504275117546,-0.00368046732971727,,
0.0172114389298197,-0.118340407756615,-0.0028839521042392,,
0.017453853562634,-0.0671174187562519,-0.00198573509619715,,
0.0176962681954484,-0.0135862422939512,-0.00100555461552521,,
0.0179386828282628,0.0404522950176796,-8.42257082744879E-07,,
0.0181810974610771,0.0932975278223898,0.00103950639380779,,
0.0184235120938915,0.1424309626761,0.00199682126703893,,
0.0186659267267059,0.186524658189799,0.00291773056608235,,
0.0189083413595202,0.223401354971399,0.00372041372835508,,
0.0191507559923346,0.252343899358417,0.00436736142760807,,
0.0193931706251489,0.271987635053249,0.00488210821192503,,
0.0196355852579633,0.281452523891049,0.00518097872875778,,
0.0198779998907777,0.280839893421332,0.00533823147078216,,
0.020120414523592,0.270205912322559,0.00525768493606016,,
0.0203628291564064,0.249337288902105,0.00500621494507758,,
0.0206052437892207,0.219596813388523,0.0045491703725169,,
0.0208476584220351,0.181736674890744,0.00396061206949883,,
0.0210900730548495,0.137153486138886,0.0031887397051249,,
0.0213324876876638,0.0874869620087935,0.00233301867176294,,
0.0215749023204782,0.0346447382404294,0.00137086310078649,,
0.0218173169532926,-0.0193264573042934,0.000375126709520224,,
0.0220597315861069,-0.0731252280686269,-0.000640787364056816,,
0.0223021462189213,-0.123987365966091,-0.00165641105658176,,
0.0225445608517356,-0.17022053297358,-0.00258599377919255,,
0.02278697548455,-0.210294739075495,-0.00343272668282113,,
0.0230293901173644,-0.242324881315676,-0.00412852225222515,,
0.0232718047501787,-0.265713957552714,-0.00466800463714501,,
0.0235142193829931,-0.279473650965033,-0.0050846816825274,,
0.0237566340158075,-0.28290651824451,-0.00527992721244708,,
0.0239990486486218,-0.27569262185221,-0.00530691592676158,,
0.0242414632814362,-0.25874871486157,-0.00513182375403831,,
0.0244838779142505,-0.232250720932452,-0.00473335405670916,,
0.0247262925470649,-0.196904947200976,-0.00418215912925435,,
0.0249687071798793,-0.154626913548846,-0.00347471183010084,,
0.0252111218126936,-0.106794152150127,-0.00266844375410846,,
0.025453536445508,-0.0549021307429558,-0.0017350769559048,,
0.0256959510783223,-0.00107555554975001,-0.000755176214047193,,
0.0259383657111367,0.0529374399417339,0.000246215766293467,,
0.0261807803439511,0.105142401128897,0.00125971861291596,,
0.0264231949767654,0.153383481762021,0.00223398200953451,,
0.0266656096095798,0.195902588209784,0.00311404944167037,,
0.0269080242423942,0.230801811617157,0.00388075575989522,,
0.0271504388752085,0.257634205120363,0.00450207695123428,,
0.0273928535080229,0.274925947382264,0.00498083168830687,,
0.0276352681408372,0.282348983463549,0.00523558861035855,,
0.0278776827736516,0.279309343585019,0.00532622094559709,,
0.028120097406466,0.266406035912312,0.0052159704056769,,
0.0283625120392803,0.243213783308516,0.00490614142485235,,
0.0286049266720947,0.211510389759312,0.0044340365659008,,
0.028847341304909,0.171803239439892,0.00378143631821315,,
0.0290897559377234,0.125994229927885,0.00300915042689587,,
0.0293321705705378,0.0754528693004303,0.00208894047488828,,
0.0295745852033521,0.022143008627677,0.00115263033785462,,
0.0298169998361665,-0.0319119734174731,0.000149608574855797,,
0.0300594144689809,-0.0852498717777303,-0.000877580189198923,,
0.0303018291017952,-0.135218349206272,-0.00187253817680721,,
0.0305442437346096,-0.180116483762353,-0.00277917167439679,,
0.0307866583674239,-0.218493126847817,-0.00359465896870859,,
0.0310290730002383,-0.248644324159707,-0.00427455655559905,,
0.0312714876330527,-0.269855371251172,-0.00480860227747293,,
0.031513902265867,-0.281178118436977,-0.00515096761899159,,
0.0317563168986814,-0.282296640226645,-0.0053065768954812,,
0.0319987315314958,-0.272671642664198,-0.00524970477825049,,
0.0322411461643101,-0.25346022851695,-0.00507683683316573,,
0.0324835607971245,-0.22467387410957,-0.00462819658759495,,
0.0327259754299388,-0.187748332970538,-0.00404709545242943,,
0.0329683900627532,-0.143899955559566,-0.00332603673150622,,
0.0332108046955676,-0.095011978763761,-0.00248800157655937,,
0.0334532193283819,-0.0424815751339581,-0.00153877328351282,,
0.0336956339611963,0.0114703765736677,-0.000539705871907437,,
0.0339380485940106,0.0653001474101248,0.00046986086715739,,
0.034180463226825,0.116643171302247,0.00147659221008656,,
0.0344228778596394,0.163586354258094,0.0024441753221911,,
0.0346652924924537,0.204536703105708,0.00326867203071091,,
0.0349077071252681,0.237835772301135,0.00404397423620129,,
0.0351501217580825,0.26252927745713,0.00462152542499883,,
0.0353925363908968,0.277622230555257,0.00506662636643895,,
0.0356349510237112,0.282638783987299,0.00526453549637429,,
0.0358773656565255,0.277239126578916,0.00533119543147098,,
0.0361197802893399,0.26181643907933,0.00515179771351715,,
0.0363621949221543,0.236503958818842,0.00480575471878009,,
0.0366046095549686,0.202784837479848,0.00430002951122876,,
0.036847024187783,0.161774984355344,0.00363804889133901,,
0.0370894388205973,0.114680603154571,0.00282830232400189,,
0.0373318534534117,0.0632637062538599,0.00189044754220991,,
0.0375742680862261,0.0096194460070181,0.000935820594108794,,
0.0378166827190404,-0.0444532636941244,-9.2695408994814E-05,,
0.0380590973518548,-0.097178858146749,-0.00112956404822073,,
0.0383015119846692,-0.146100844051023,-0.00208814382739542,,
0.0385439266174835,-0.189547783357221,-0.00298580135780835,,
0.0387863412502979,-0.226170134927056,-0.00374700715956244,,
0.0390287558831122,-0.254444206727981,-0.00441758974799589,,
0.0392711705159266,-0.27338672032486,-0.00491693569432261,,
0.039513585148741,-0.282444246288645,-0.00520555165515857,,
0.0397559997815553,-0.280845258369856,-0.00532642466842903,,
0.0399984144143697,-0.269225572946179,-0.00525737935181159,,
0.040240829047184,-0.247434178379593,-0.00493460941018009,,
0.0404832436799984,-0.216877297655835,-0.00452067958239422,,
0.0407256583128128,-0.178266976073356,-0.00386866921872775,,
0.0409680729456271,-0.132998286855307,-0.00311859063644615,,
0.0412104875784415,-0.0830147875708978,-0.00226152107956024,,
0.0414529022112559,-0.0299779794521539,-0.00129770075857394,,
0.0416953168440702,0.0240128098176132,-0.000311607754807319,,
0.0419377314768846,0.0775426800315776,0.000713755105354874,,
0.0421801461096989,0.127948937259679,0.00172102312111821,,
0.0424225607425133,0.173714280755874,0.00263839615667072,,
0.0426649753753277,0.212912927258669,0.00347492163421181,,
0.042907390008142,0.244451360303692,0.00416906613648305,,
0.0431498046409564,0.267064758287609,0.00474063334716313,,
0.0433922192737708,0.279641877090056,0.00511166431556331,,
0.0436346339065851,0.281957482176475,0.00528187930286927,,
0.0438770485393995,0.274466147967893,0.00526490037308891,,
0.0441194631722138,0.256681203655592,0.00510378297853054,,
0.0443618778050282,0.229440887457655,0.00471773125205077,,
0.0446042924378426,0.194095486939989,0.00416285106977954,,
0.0448467070706569,0.151215086197928,0.00343532338877273,,
0.0450891217034713,0.102963928791925,0.00262708497852193,,
0.0453315363362856,0.0508995059302275,0.00168022990443939,,
0.0455739509691,-0.00288116396430322,0.000669363292079339,,
0.0458163656019144,-0.0569510279101417,-0.000335689617963375,,
0.0460587802347287,-0.108999472555583,-0.00137533284053903,,
0.0463011948675431,-0.156794166145645,-0.00231452398329779,,
0.0465436095003575,-0.198714101146727,-0.0031704897881224,,
0.0467860241331718,-0.233667813770414,-0.00393921052987478,,
0.0470284387659862,-0.259696864546806,-0.00455319161797441,,
0.0472708533988005,-0.276463075111985,-0.00500269388478314,,
0.0475132680316149,-0.282965812588632,-0.00524386523049891,,
0.0477556826644293,-0.27913477282522,-0.00532695982094378,,
0.0479980972972436,-0.264804435496851,-0.00519981244850376,,
0.048240511930058,-0.241159661147985,-0.00485929733599155,,
0.0484829265628723,-0.208640328905867,-0.00439759298372255,,
0.0487253411956867,-0.168309631612777,-0.00374140022071634,,
0.0489677558285011,-0.121906885580203,-0.0029688102654708,,
0.0492101704613154,-0.0709896986457097,-0.00204314236594216,,
0.0494525850941298,-0.0175025614130323,-0.00110598084990787,,
0.0496949997269442,0.0365361858313669,-5.73738227132026E-05,,
0.0499374143597585,0.0895636869307148,0.000935139490908288,,
0.0501798289925729,0.139159160481659,0.00190347364091714,,
0.0504222436253872,0.183452012214915,0.00281755062348177,,
0.0506646582582016,0.221055332959435,0.00364529777540001,,
0.050907072891016,0.250406173254994,0.0043153087236476,,
0.0511494875238303,0.270693702772708,0.0048147884581029,,
0.0513919021566447,0.28108173597045,0.00516864589580823,,
0.0516343167894591,0.281242217908907,0.0053259533693395,,
0.0518767314222734,0.271068596045221,0.00528106137090134,,
0.0521191460550878,0.251148308916908,0.00503099007399133,,
0.0523615606879021,0.22194078272453,0.00460831688793428,,
0.0526039753207165,0.18469292480852,0.00401097721865495,,
0.0528463899535309,0.140528878491567,0.00324556317212732,,
0.0530888045863452,0.0911787930209391,0.00240987691102967,,
0.0533312192191596,0.0384869744181527,0.00143229921758747,,
0.0535736338519739,-0.0154314113724033,0.00044188698571368,,
0.0538160484847883,-0.0692661972694371,-0.000584413911669301,,
0.0540584631176027,-0.120451958192216,-0.00156082399962498,,
0.054300877750417,-0.167068882300214,-0.00251250760889565,,
0.0545432923832314,-0.207494935721852,-0.00337043006510163,,
0.0547857070160458,-0.240670051280511,-0.0040793125459988,,
0.0550281216488601,-0.264427349593202,-0.00465811647818271,,
0.0552705362816745,-0.278850710463805,-0.00504780480925016,,
0.0555129509144888,-0.2830546374755,-0.00527766649713701,,
0.0557553655473032,-0.276631581147366,-0.00530819451558173,,
0.0559977801801176,-0.260082394412915,-0.00513464546729692,,
0.0562401948129319,-0.234382704824171,-0.00478600424628928,,
0.0564826094457463,-0.199776454257936,-0.00423277969211044,,
0.0567250240785607,-0.158038834203217,-0.00355054537392752,,
0.056967438711375,-0.110307447005738,-0.00274853419293741,,
0.0572098533441894,-0.0587572427971367,-0.00181914455092125,,
0.0574522679770037,-0.00492576917266989,-0.000845750777138665,,
0.0576946826098181,0.0490269289625766,0.000192724839950476,,
0.0579370972426325,0.10143862727482,0.00117976500285488,,
0.0581795118754468,0.149993744003504,0.00214923027067826,,
0.0584219265082612,0.192876943849143,0.00305908988655146,,
0.0586643411410755,0.228763317784935,0.00380280593112436,,
0.0589067557738899,0.256062415158004,0.00445463993771211,,
0.0591491704067043,0.274122044834735,0.0049113348367551,,
0.0593915850395186,0.282069259712679,0.00521521632713329,,
0.059633999672333,0.280006506982784,0.00531527464416248,,
0.0598764143051473,0.267454953326347,0.00523284899436094,,
0.0601188289379617,0.245159346901957,0.0049240082213049,,
0.0603612435707761,0.213828420735498,0.00445809714458179,,
0.0606036582035904,0.174959881847972,0.00382336065270694,,
0.0608460728364048,0.129524086146331,0.00304715537734879,,
0.0610884874692192,0.0792185966470285,0.00219743048466148,,
0.0613309021020335,0.0260505572222144,0.00122306370630687,,
0.0615733167348479,-0.0279740545491171,0.000212063305818244,,
0.0618157313676622,-0.0814930549108546,-0.000797682830964597,,
0.0620581460004766,-0.131649445492916,-0.00180018312432528,,
0.062300560633291,-0.177152419680423,-0.00270429897258495,,
0.0625429752661053,-0.215927841722262,-0.00353620571904845,,
0.0627853898989197,-0.246717467908511,-0.0042152169595866,,
0.0630278045317341,-0.268704006646192,-0.00476107100413303,,
0.0632702191645484,-0.280692380662785,-0.00514596880800333,,
0.0635126337973628,-0.282516836374762,-0.00531431228182822,,
0.0637550484301771,-0.273699286891042,-0.00531032144276322,,
0.0639974630629915,-0.255037849945096,-0.0050507846357517,,
0.0642398776958059,-0.227191621126029,-0.00468384028655366,,
0.0644822923286202,-0.190665325460637,-0.00408994414126695,,
0.0647247069614346,-0.147454117327412,-0.0033945727410436,,
0.0649671215942489,-0.0986279074172233,-0.00255015072327325,,
0.0652095362270633,-0.0463144809664222,-0.00159980499528878,,
0.0654519508598777,0.00755296113901869,-0.000599471157419984,,
0.065694365492692,0.0614888879786619,0.000418072698814775,,
0.0659367801255064,0.113164631982725,0.00141587672479648,,
0.0661791947583208,0.160377298635521,0.00237607412407215,,
0.0664216093911351,0.201926818929815,0.00324688889085634,,
0.0666640240239495,0.235724501775891,0.00398565477466972,,
0.0669064386567638,0.261019814201103,0.00459706956321027,,
0.0671488532895782,0.276900061832198,0.00499962283910271,,
0.0673912679223926,0.282496216311739,0.00526684334159366,,
0.0676336825552069,0.277923600707128,0.00529024410154877,,
0.0678760971880213,0.263177549845737,0.00517880163102813,,
0.0681185118208357,0.238806874635708,0.00483548000845335,,
0.06836092645365,0.205631899032229,0.00434437723523473,,
0.0686033410864644,0.165011517844705,0.00369247633458292,,
0.0688457557192787,0.118167189896878,0.00288922457276319,,
0.0690881703520931,0.0670449452994514,0.00195981060563311,,
0.0693305849849075,0.0135129990836668,0.000999065891285955,,
0.0695729996177218,-0.0405666150729675,-1.74076599201989E-05,,
0.0698154142505362,-0.0934875869553189,-0.00104590998014675,,
0.0700578288833505,-0.142777141811078,-0.00202148085165943,,
0.0703002435161649,-0.186627571898008,-0.00291558691538496,,
0.0705426581489793,-0.223741819269906,-0.00371692915573174,,
0.0707850727817936,-0.25273138859703,-0.00435194842706021,,
0.071027487414608,-0.272374937684957,-0.00485527152957488,,
0.0712699020474224,-0.282268089370152,-0.00517142351979727,,
0.0715123166802367,-0.281015257260478,-0.00531904351655932,,
0.0717547313130511,-0.270115128063187,-0.00526280385230038,,
0.0719971459458654,-0.249410718719294,-0.00498339190658692,,
0.0722395605786798,-0.219488721338696,-0.00457003523930677,,
0.0724819752114942,-0.181239344162567,-0.00394018505476668,,
0.0727243898443085,-0.136409414430331,-0.00320318274174003,,
0.0729668044771229,-0.0868152704535863,-0.00231819859587645,,
0.0732092191099372,-0.0339150119377102,-0.00137566274990153,,
0.0734516337427516,0.0201416495695865,-0.000380349007496505,,
0.073694048375566,0.0737579421065139,0.000650109964111856,,
0.0739364630083803,0.124500628258798,0.00164705348917504,,
0.0741788776411947,0.17068809990038,0.00258478360475634,,
0.0744212922740091,0.210459979490035,0.00342423113665236,,
0.0746637069068234,0.242398497739771,0.00413109463306238,,
0.0749061215396378,0.265581419998307,0.0047174028630077,,
0.0751485361724521,0.279239365995575,0.00508105115921831,,
0.0753909508052665,0.282305690661547,0.00529327257827905,,
0.0756333654380809,0.275241499658929,0.00530535303816793,,
0.0758757800708952,0.258329502449076,0.0051057168251174,,
0.0761181947037096,0.231992177065321,0.00474530376910831,,
0.0763606093365239,0.196798487961569,0.00420875256046171,,
0.0766030239693383,0.154703515683424,0.00349597806127688,,
0.0768454386021527,0.10673415803011,0.00264334631743068,,
0.077087853234967,0.0548158483751717,0.00172022039234676,,
0.0773302678677814,0.0010433658586059,0.000749113179308036,,
0.0775726825005958,-0.0531321642472926,-0.000254176159947939,,
0.0778150971334101,-0.105254271968555,-0.00129724922363961,,
0.0780575117662245,-0.153563814010017,-0.00221857509026568,,
0.0782999263990388,-0.195975644813163,-0.00310262271922879,,
0.0785423410318532,-0.231238051909749,-0.00387374100505911,,
0.0787847556646676,-0.258057149670961,-0.00449412872013699,,
0.0790271702974819,-0.275653434402121,-0.00493694310083326,,
0.0792695849302963,-0.282965999195538,-0.00523801656082989,,
0.0795119995631107,-0.279563035672616,-0.00530865517243395,,
0.079754414195925,-0.266087964442427,-0.00518724852696817,,
