Time domain (s),Current (AC) (A),Potential (AC) (V),Frequency (Hz),Column 5
0,-0.102976781342519,-0.00204737117713272,7943.3,0.3
3.93413316883411E-06,-0.124326710623167,-0.00225869968885117,,
7.86826633766822E-06,-0.140768365128506,-0.00236818282130313,,
1.18023995065023E-05,-0.151651606400878,-0.00236787441287989,,
1.57365326753364E-05,-0.156660462298081,-0.00230536968642792,,
1.96706658441706E-05,-0.155476161574335,-0.00215139213630167,,
2.36047990130047E-05,-0.148364385810896,-0.0019240170971524,,
2.75389321818388E-05,-0.135389094524515,-0.0015890576810258,,
3.14730653506729E-05,-0.117125970017682,-0.0012433299804262,,
3.5407198519507E-05,-0.0944633078107959,-0.000797923191053318,,
3.93413316883411E-05,-0.0681564926560386,-0.000356702209982185,,
4.32754648571752E-05,-0.0393139695701986,0.000120910965059284,,
4.72095980260093E-05,-0.00941483153548466,0.000592292803640593,,
5.11437311948435E-05,0.0200666335937028,0.000961877567890124,,
5.50778643636776E-05,0.0495731506999112,0.00138902880805158,,
5.90119975325117E-05,0.0777099264703481,0.0017354792247759,,
6.29461307013458E-05,0.102777765078141,0.00205187282538599,,
6.68802638701799E-05,0.123960121357935,0.00222943061473346,,
7.0814397039014E-05,0.140394428216382,0.00235351855813093,,
7.47485302078481E-05,0.151356021063068,0.00236864914970214,,
7.86826633766822E-05,0.156171132340964,0.00233233498677876,,
8.26167965455164E-05,0.155147336881539,0.00213720534882134,,
8.65509297143505E-05,0.148093899101833,0.00191093760738559,,
9.04850628831846E-05,0.135254784204509,0.00159110692494746,,
9.44191960520187E-05,0.117137469668214,0.00124499464275951,,
9.83533292208528E-05,0.0945738024245275,0.000828860643268037,,
0.000102287462389687,0.0683217097447152,0.000338253441034997,,
0.000106221595558521,0.0397253444926751,-0.000126272812711381,,
0.000110155728727355,0.0100818579180622,-0.000548084499806034,,
0.000114089861896189,-0.0194759294353452,-0.0009669644489958,,
0.000118023995065023,-0.0493118543809283,-0.00139376454944617,,
0.000121958128233857,-0.0776040270516566,-0.00175580073884873,,
0.000125892261402692,-0.102929989661044,-0.00203316209506799,,
0.000129826394571526,-0.124299745925368,-0.00223404373591141,,
0.00013376052774036,-0.140721573447032,-0.00236612614585274,,
0.000137694660909194,-0.15167525882611,-0.00236882750638134,,
0.000141628794078028,-0.156573783390623,-0.0023137468766774,,
0.000145562927246862,-0.155476161574335,-0.00215097782860019,,
0.000149497060415696,-0.148416029271906,-0.00192809700617635,,
0.00015343119358453,-0.135280116091888,-0.00158515984444474,,
0.000157365326753364,-0.117198933317609,-0.00125081538728278,,
0.000161299459922199,-0.0944444138616461,-0.000800345869271357,,
0.000165233593091033,-0.0681774392811454,-0.000360109565697098,,
0.000169167726259867,-0.039362300758641,0.000106289433174922,,
0.000173101859428701,-0.00947263302436517,0.000542200587292818,,
0.000177035992597535,0.0200469932169323,0.000974015111447901,,
0.000180970125766369,0.049588569095452,0.00138706316882242,,
0.000184904258935203,0.0777472945031111,0.00172805512802787,,
0.000188838392104037,0.102739417359126,0.00203422666149322,,
0.000192772525272871,0.124030635442231,0.002255481837107,,
0.000196706658441706,0.140367276911678,0.0023531841393587,,
0.00020064079161054,0.151201347264534,0.00237737747966316,,
0.000204574924779374,0.15623238605759,0.00232405998004293,,
0.000208509057948208,0.15516986966534,0.00214864990236752,,
0.000212443191117042,0.147977363089546,0.001910447126519,,
0.000216377324285876,0.135041539163611,0.00158851332157894,,
0.00022031145745471,0.11712958552647,0.00122805818981764,,
0.000224245590623544,0.0945472109405389,0.000807043534130081,,
0.000228179723792378,0.0684474827988087,0.000322467017093597,,
0.000232113856961213,0.0397062639366201,-0.000125845499835187,,
0.000236047990130047,0.0100537269271058,-0.000533433241808989,,
0.000239982123298881,-0.0195328911931524,-0.000969037845385046,,
0.000243916256467715,-0.0492746729550706,-0.00140801636279875,,
0.000247850389636549,-0.0775761293193317,-0.00176643154004807,,
0.000251784522805383,-0.102996608326195,-0.00204074225391038,,
0.000255718655974217,-0.124310335867237,-0.00225010698428108,,
0.000259652789143051,-0.140625051025326,-0.00236505229001693,,
0.000263586922311885,-0.151631779417202,-0.00236718513863199,,
0.00026752105548072,-0.156577422225274,-0.00233927603418937,,
0.000271455188649554,-0.155471169839622,-0.00215668524231694,,
0.000275389321818388,-0.148309709987677,-0.00190162961821949,,
0.000279323454987222,-0.135198988739859,-0.00159154166935194,,
0.000283257588156056,-0.117215354725265,-0.00120753602448209,,
0.00028719172132489,-0.0945590371531549,-0.000807357516200202,,
0.000291125854493724,-0.0681329335342592,-0.000344598108301675,,
0.000295059987662558,-0.0393256791534988,0.000118456702845826,,
0.000298994120831392,-0.00941847037013573,0.000557881111955982,,
0.000302928254000227,0.0199803512259187,0.000969104729139136,,
0.000306862387169061,0.049649449598268,0.00138858663211927,,
0.000310796520337895,0.0777694540731016,0.00173601429481218,,
0.000314730653506729,0.102799528108458,0.00200516938593198,,
0.000318664786675563,0.124051978607011,0.00225270616129558,,
0.000322598919844397,0.140377097100063,0.00237220885174683,,
0.000326533053013231,0.151296120246504,0.00240290849505698,,
0.000330467186182065,0.156272273283573,0.00230833486620963,,
0.000334401319350899,0.155056972487704,0.00216516275819778,,
0.000338335452519734,0.148087157927383,0.00190952561701296,,
0.000342269585688568,0.135125535596807,0.0016036847865557,,
0.000346203718857402,0.117123427498599,0.00125185394335903,,
0.000350137852026236,0.0945766948315579,0.000782110756762489,,
0.00035407198519507,0.0683652358053492,0.000344113201081075,,
0.000358006118363904,0.0397761948743375,-0.000128130694780459,,
0.000361940251532738,0.0100647134086485,-0.000555679521704544,,
0.000365874384701572,-0.0194876390186455,-0.000987847043453005,,
0.000369808517870407,-0.0493360666268759,-0.0013924138691821,,
0.000373742651039241,-0.077570344505271,-0.0017444174954111,,
0.000377676784208075,-0.102947670665311,-0.00204709621058674,,
0.000381610917376909,-0.124213067017911,-0.00223453421677755,,
0.000385545050545743,-0.140605410648555,-0.00236377964079937,,
0.000389479183714577,-0.151668914191334,-0.00240290106352914,,
0.000393413316883411,-0.156576442539022,-0.00231090803287604,,
0.000397347450052245,-0.155542593632581,-0.00216429512727201,,
0.000401281583221079,-0.148364385810896,-0.00192314389258019,,
0.000405215716389913,-0.13533978364982,-0.00159178876766752,,
0.000409149849558748,-0.117184704541088,-0.00122605353506522,,
0.000413083982727582,-0.0944792627011891,-0.000806252076369418,,
0.000417018115896416,-0.0682059901376385,-0.000344568382188548,,
0.00042095224906525,-0.0393482119372997,0.000120942549054259,,
0.000424886382234084,-0.00945028684746948,0.000569879314358701,,
0.000428820515402918,0.0200762905010461,0.000992519616856313,,
0.000432754648571752,0.0496434781773021,0.00139554997411429,,
0.000436688781740586,0.077760380312337,0.00175827915352844,,
0.000440622914909421,0.102803773415551,0.0020407181014428,,
0.000444557048078255,0.124014633900111,0.00223179384072525,,
0.000448491181247089,0.140315470169627,0.00235782884453162,,
0.000452425314415923,0.151300738767407,0.00239486758146201,,
0.000456359447584757,0.156191565797082,0.00232278918870765,,
0.000460293580753591,0.155153868123221,0.00217640666048036,,
0.000464227713922425,0.148062899029709,0.00188930071280824,,
0.000468161847091259,0.135214896978526,0.00160086080581046,,
0.000472095980260093,0.117182558561679,0.00122012503338231,,
0.000476030113428928,0.0946082780502601,0.000805570233649355,,
0.000479964246597762,0.0684122140937291,0.000356986465938292,,
0.000483898379766596,0.0397392000553849,-9.17236377535602E-05,,
0.00048783251293543,0.0100521874201381,-0.000541687811841829,,
0.000491766646104264,-0.0194618406140039,-0.000973088028295876,,
0.000495700779273098,-0.0493898094155686,-0.00139868793692965,,
0.000499634912441932,-0.0776350504496433,-0.00175690432079767,,
0.000503569045610766,-0.103030524131212,-0.00205163687436372,,
0.0005075031787796,-0.124321112416012,-0.00222632609379625,,
0.000511437311948435,-0.140679960107176,-0.00238373886786825,,
0.000515371445117269,-0.151651979614688,-0.00238703846642307,,
0.000519305578286103,-0.156536182099229,-0.00231405528510109,,
0.000523239711454937,-0.155410709202342,-0.00216072056217076,,
0.000527173844623771,-0.148510032500392,-0.00191800127501285,,
0.000531107977792605,-0.135458232382885,-0.001591695873564,,
0.000535042110961439,-0.11725081003725,-0.0012194580537197,,
0.000538976244130273,-0.0945393967763844,-0.000808968299954138,,
0.000542910377299107,-0.0681285016202611,-0.000322810725276845,,
0.000546844510467942,-0.0392996941419521,0.000101289872527222,,
0.000550778643636776,-0.0094176772907887,0.000559322828441733,,
0.00055471277680561,0.0200514484567935,0.000980887417221687,,
0.000558646909974444,0.0496688800422702,0.00139818816665249,,
0.000562581043143278,0.0776792996120349,0.00174577560720302,,
0.000566515176312112,0.10284170126903,0.00200839095343985,,
0.000570449309480946,0.123915242397238,0.00222924482652642,,
0.00057438344264978,0.140426594581663,0.00237769703537882,,
0.000578317575818614,0.151257212706773,0.00238716851816712,,
0.000582251708987449,0.156213328827399,0.00229890054106274,,
0.000586185842156283,0.155073743783308,0.00217270947516246,,
0.000590119975325117,0.14800414118044,0.00192234871905406,,
0.000594054108493951,0.135158868255245,0.00158228570088337,,
0.000597988241662785,0.117193358436316,0.00121567354794472,,
0.000601922374831619,0.0946051990363246,0.000787680687205583,,
0.000605856508000453,0.0684211012475885,0.000367020886993696,,
0.000609790641169287,0.0397486470299598,-0.000110257869275099,,
0.000613724774338121,0.0100579955600619,-0.00055649327405094,,
0.000617658907506956,-0.0194591348138787,-0.000972166518789397,,
0.00062159304067579,-0.049343810813441,-0.00138560101563456,,
0.000625527173844624,-0.0775955830891971,-0.00174113275991283,,
0.000629461307013458,-0.102950563072341,-0.0020189567287674,,
0.000633395440182292,-0.124181670406114,-0.00223820167598232,,
0.000637329573351126,-0.140633774898143,-0.00236500770084724,,
0.00064126370651996,-0.151556810093045,-0.00239618296196698,,
0.000645197839688794,-0.156508890839346,-0.00232187882649404,,
0.000649131972857628,-0.155356919761923,-0.00215304936710758,,
0.000653066106026463,-0.148406232409383,-0.00189626033903956,,
0.000657000239195297,-0.135279323012541,-0.00159327693120481,,
0.000660934372364131,-0.117184704541088,-0.00124392821845243,,
0.000664868505532965,-0.0944550038035152,-0.00079187578491835,,
0.000668802638701799,-0.0681375520551625,-0.000326446600486197,,
0.000672736771870633,-0.0393074383285172,0.000140886913066574,,
0.000676670905039467,-0.00943951029869514,0.000541862452756003,,
0.000680605038208301,0.0200321579679702,0.000967018327575175,,
0.000684539171377135,0.0496057136048657,0.00136936126846754,,
0.000688473304545969,0.0777224524588585,0.00174328976099458,,
0.000692407437714804,0.102844990215733,0.00203868929422324,,
0.000696341570883638,0.124070872556161,0.00224291512279118,,
0.000700275704052472,0.140325080425244,0.00234479022817036,,
0.000704209837221306,0.151236592643751,0.00238199617448664,,
0.00070814397039014,0.156157649992065,0.00231244821711085,,
0.000712078103558974,0.155087436064975,0.00213102603305959,,
0.000716012236727808,0.148051912548167,0.00190923207164584,,
0.000719946369896642,0.135310253107075,0.00159972749774839,,
0.000723880503065477,0.117194314796705,0.00122294529836298,,
0.000727814636234311,0.0945572410616925,0.000784704360131006,,
0.000731748769403145,0.0684174390870742,0.000329937560893612,,
0.000735682902571979,0.0397605898718916,-0.000101694890818571,,
0.000739617035740813,0.0100485252596239,-0.000536515468161358,,
0.000743551168909647,-0.019526359951471,-0.000964970941535803,,
0.000747485302078481,-0.0493364864924125,-0.0013745373279126,,
0.000751419435247315,-0.0776210082800283,-0.00174292747399152,,
0.000755353568416149,-0.10291921311227,-0.00204243106871083,,
0.000759287701584984,-0.124211340904038,-0.00227278243493512,,
0.000763221834753818,-0.140622158618295,-0.00236267420096814,,
0.000767155967922652,-0.151656411528687,-0.00236807506414305,,
0.000771090101091486,-0.156561047469344,-0.00230225587607968,,
0.00077502423426032,-0.155620828577579,-0.00217109311776298,,
0.000778958367429154,-0.148212627745256,-0.00192071564071572,,
0.000782892500597988,-0.135372953027217,-0.00161813167752545,,
0.000786826633766822,-0.117232849122626,-0.00123811490545789,,
0.000790760766935656,-0.0944974102227182,-0.000796678410067031,,
0.000794694900104491,-0.0681641435391511,-0.000364772849690276,,
0.000798629033273325,-0.0393040794042239,0.000132418686595415,,
0.000802563166442159,-0.00945546518908831,0.000571857958762134,,
0.000806497299610993,0.0200435176633233,0.000987226510841488,,
0.000810431432779827,0.0495957068095752,0.00138238502177224,,
0.000814365565948661,0.0777222658519534,0.00174605057374944,,
0.000818299699117495,0.1029229919021,0.00201989867497598,,
0.000822233832286329,0.124075094537391,0.00224569451436674,,
0.000826167965455163,0.140367860058257,0.00237964781155142,,
0.000830102098623998,0.151289775611728,0.00237260643850945,,
0.000834036231792832,0.156272646497384,0.00232343201590357,,
0.000837970364961666,0.155064320134596,0.00215607771487969,,
0.0008419044981305,0.147994134385149,0.00189769462399658,,
0.000845838631299334,0.135159428075961,0.00159652079329708,,
0.000849772764468168,0.117181788808195,0.00122926952892666,,
0.000853706897637002,0.0945377872918272,0.00078402809105782,,
0.000857641030805836,0.0683981719241141,0.00036083785546781,,
0.00086157516397467,0.0397628991323432,-0.000135892926065306,,
0.000865509297143505,0.0100683755691627,-0.000547915432537849,,
0.000869443430312339,-0.0194737834559356,-0.0010086348859244,,
0.000873377563481173,-0.0493553804415623,-0.00138869996292579,,
0.000877311696650007,-0.0776560437264764,-0.00173775698819334,,
0.000881245829818841,-0.102919959539891,-0.00203721227797882,,
0.000885179962987675,-0.124255660044019,-0.00226052412904298,,
0.000889114096156509,-0.140771817356252,-0.00235925384007896,,
0.000893048229325343,-0.151716685559061,-0.00236526780433666,,
0.000896982362494177,-0.156742476032909,-0.00230438872469518,,
0.000900916495663012,-0.155481199960775,-0.00216518691066536,,
0.000904850628831846,-0.148338447451076,-0.00191077411376384,,
0.00090878476200068,-0.135381210382771,-0.00161121292470012,,
0.000912718895169514,-0.117190489355149,-0.00120907063507136,,
0.000916653028338348,-0.0944423145339628,-0.000816685942069295,,
0.000920587161507182,-0.0682146207070032,-0.000324222715649469,,
0.000924521294676016,-0.0393199409911644,0.000112212361211395,,
0.00092845542784485,-0.00944585493347137,0.000552786799322469,,
0.000932389561013684,0.0200587494519588,0.000973585940689858,,
0.000936323694182519,0.0496109152723476,0.00138470365859478,,
0.000940257827351353,0.0776679165908187,0.0017607761470293,,
0.000944191960520187,0.102866543313282,0.00206225838615248,,
0.000948126093689021,0.124090512932932,0.0022432086681583,,
0.000952060226857855,0.140377097100063,0.00234242700217857,,
0.000955994360026689,0.151225629488071,0.00238340816485927,,
0.000959928493195523,0.156181908889738,0.00229448249750241,,
0.000963862626364357,0.155011137166619,0.00214891000585693,,
0.000967796759533191,0.148134182867489,0.00191718009113773,,
0.000971730892702026,0.135227049753226,0.00158888118222889,,
0.00097566502587086,0.117174091273356,0.00120089966973058,,
0.000979599159039694,0.0945508731010531,0.000787650961092456,,
0.000983533292208528,0.0683480912959355,0.000351002227793717,,
0.000987467425377362,0.0397282368997054,-0.000133669041228579,,
0.000991401558546196,0.0100830242112196,-0.00058378741952847,,
0.00099533569171503,-0.0194784019768389,-0.000954752590155206,,
0.000999269824883864,-0.0493316813646041,-0.00137529162803274,,
0.0010032039580527,-0.0775556958632141,-0.0017209728815808,,
0.00100713809122153,-0.103021846910121,-0.00204198517701437,,
0.00101107222439037,-0.124309589439617,-0.00223978087574084,,
0.0010150063575592,-0.140660879551121,-0.00237183355956905,,
0.00101894049072803,-0.151627487458383,-0.00238840400974372,,
0.00102287462389687,-0.156509823873872,-0.00232023645874513,,
0.0010268087570657,-0.155442245769318,-0.00215383339334085,,
0.00103074289023454,-0.148268283254727,-0.00192260510677977,,
0.00103467702340337,-0.135291639068283,-0.00161828402385522,,
0.00103861115657221,-0.117238633936686,-0.00123349435275211,,
0.00104254528974104,-0.0944488457756442,-0.000782348565667501,,
0.00104647942290987,-0.0681152525299931,-0.000332261771362585,,
0.00105041355607871,-0.0392879379069255,0.00013192820572927,,
0.00105434768924754,-0.00943391209153964,0.000553784481993613,,
0.00105828182241638,0.0200495124101523,0.000991458766194775,,
0.00106221595558521,0.049630369042213,0.00139228381743672,,
0.00106615008875404,0.0777619198193048,0.00175436645389082,,
0.00107008422192288,0.102875033927468,0.00203057406534546,,
0.00107401835509171,0.12391081048324,0.00225394722651773,,
0.00107795248826055,0.140378450000126,0.00236654974296391,,
0.00108188662142938,0.151327330251396,0.00240893918025353,,
0.00108582075459821,0.156180765922444,0.00231339945273001,,
0.00108975488776705,0.155092614406594,0.00216265833316864,,
0.00109368902093588,0.148079063852871,0.00193709658691876,,
0.00109762315410472,0.135220308578777,0.00159699641110667,,
0.00110155728727355,0.117092030886802,0.00120746542496297,,
0.00110549142044239,0.0946040560690304,0.000798082968910929,,
0.00110942555361122,0.0683317165400057,0.000338743921901585,,
0.00111335968678005,0.039762712525438,-0.000140219933404406,,
0.00111729381994889,0.0100506479131703,-0.000542884287894729,,
0.00112122795311772,-0.0194944035189584,-0.000973914785816543,,
0.00112516208628656,-0.0493332208715718,-0.0014006219921634,,
0.00112909621945539,-0.0776653274200093,-0.00175445005858421,,
0.00113303035262422,-0.102903398177056,-0.00203982260228619,,
0.00113696448579306,-0.124277772962283,-0.00222818211798348,,
0.00114089861896189,-0.1406241179908,-0.00235132068364363,,
0.00114483275213073,-0.151530405215962,-0.0023725246916988,,
0.00114876688529956,-0.15644082597068,-0.0023200060813684,,
0.00115270101846839,-0.155593070800433,-0.00216656545916027,,
0.00115663515163723,-0.148330283398974,-0.00191629759715539,,
0.00116056928480606,-0.135361336747369,-0.00160926400640982,,
0.0011645034179749,-0.117132128045553,-0.00121417981076144,,
0.00116843755114373,-0.0945312793760089,-0.000803952018367582,,
0.00117237168431257,-0.0681159989576138,-0.000347880985918092,,
0.0011763058174814,-0.0392856053206107,0.000122859883349591,,
0.00118023995065023,-0.00950729525700296,0.000554536924231908,,
0.00118417408381907,0.020042374696029,0.00097574851541804,,
0.0011881082169879,0.049608606011896,0.00138803298326273,,
0.00119204235015674,0.0776609888094638,0.00174902318505987,,
0.00119597648332557,0.102919726281259,0.00203743336594453,,
0.0011999106164944,0.124039289337459,0.00224345390859115,,
0.00120384474966324,0.140318175969752,0.00235427285825107,,
0.00120777888283207,0.151184389362026,0.00238353078507592,,
0.00121171301600091,0.15619637092489,0.00232285235669805,,
0.00121564714916974,0.155221863014297,0.00215480320778028,,
0.00121958128233857,0.148031875631723,0.00193172359197469,,
0.00122351541550741,0.135181774252856,0.0015853214801842,,
0.00122744954867624,0.117093360461001,0.00123362440449659,,
0.00123138368184508,0.0945339151985446,0.000836208566851404,,
0.00123531781501391,0.0683765955007022,0.00034747410974445,,
0.00123925194818275,0.0397162940577737,-9.60785133234943E-05,,
0.00124318608135158,0.0100464026060774,-0.000548038052754496,,
0.00124712021452041,-0.0194643598072239,-0.00096328212673491,,
0.00125105434768925,-0.0493732947044599,-0.00138391220083367,,
0.00125498848085808,-0.0776059864241611,-0.00176799773463276,,
