Time domain (s),Current (AC) (A),Potential (AC) (V),Frequency (Hz),Column 5
0,0.373100284004838,0.0090062455358404,7.9433,0.4
0.000307354153815165,0.373348210052569,0.00904964054783175,,
0.00061470830763033,0.373719174026971,0.00907369519843826,,
0.000922062461445495,0.374215951219625,0.00909374209412483,,
0.00122941661526066,0.374352171781298,0.00913952876533397,,
0.00153677076907582,0.374528865345165,0.00914823050676761,,
0.00184412492289099,0.373978895063913,0.00917840845465934,,
0.00215147907670615,0.374271457051206,0.00919484552853778,,
0.00245883323052132,0.374242316489626,0.00919903600784666,,
0.00276618738433648,0.373904424739874,0.00920537045331393,,
0.00307354153815165,0.37386788340075,0.00923465508197285,,
0.00338089569196681,0.373348903875463,0.00922013458390225,,
0.00368824984578198,0.373004305171062,0.00925745908565423,,
0.00399560399959714,0.372216353636904,0.00924783154065301,,
0.00430295815341231,0.371840764176536,0.00925422689424948,,
0.00461031230722747,0.371351387761427,0.00925601759325634,,
0.00491766646104264,0.370515099898933,0.00925427562075321,,
0.0052250206148578,0.36960711700398,0.00925004047548228,,
0.00553237476867297,0.368398477521295,0.009217210993687,,
0.00583972892248813,0.366967120889388,0.0092062191065847,,
0.0061470830763033,0.366098223350841,0.00921834794543752,,
0.00645443723011846,0.364757294969553,0.00922640406069819,,
0.00676179138393363,0.363339352246945,0.00918782891202063,,
0.00706914553774879,0.361922565895829,0.00920876506639745,,
0.00737649969156396,0.360651019804018,0.00917790494745541,,
0.00768385384537912,0.358798050126391,0.0091664582796529,,
0.00799120799919429,0.357146751636844,0.00912401343448188,,
0.00829856215300945,0.355548414961597,0.00909445268896913,,
0.00860591630682462,0.353815245370467,0.00906221604630053,,
0.00891327046063978,0.352026801222053,0.00903693917256154,,
0.00922062461445495,0.349750137030022,0.00899149764741969,,
0.00952797876827011,0.347397614868162,0.00897622594908531,,
0.00983533292208528,0.345586274564221,0.00894481359643562,,
0.0101426870759004,0.343261505318152,0.00890168658021429,,
0.0104500412297156,0.340949224884189,0.00886074413557036,,
0.0107573953835308,0.338434116890656,0.00879608406530297,,
0.0110647495373459,0.336101946867043,0.00881799068920985,,
0.0113721036911611,0.333541971659648,0.00870577355143576,,
0.0116794578449763,0.330714180814872,0.00866512346581372,,
0.0119868119987914,0.327964791957205,0.00862940693868008,,
0.0122941661526066,0.325056980205233,0.00857101634520818,,
0.0126015203064218,0.322247228755721,0.00852041793176905,,
0.0129088744602369,0.319341498472433,0.00846282726506464,,
0.0132162286140521,0.316377487065985,0.00839196268667308,,
0.0135235827678673,0.313342936998568,0.00835506048128565,,
0.0138309369216824,0.310130305721495,0.00827032509153769,,
0.0141382910754976,0.30683164040547,0.00825375808031614,,
0.0144456452293128,0.303780669862877,0.00817360298190639,,
0.0147529993831279,0.300184585799296,0.00809606693306453,,
0.0150603535369431,0.296691650072736,0.00801192844298582,,
0.0153677076907582,0.293024796073888,0.00796515506007855,,
0.0156750618445734,0.28945461473171,0.00786869282513303,,
0.0159824159983886,0.285868244188655,0.00778187437735678,,
0.0162897701522037,0.282041579649712,0.00769500720307681,,
0.0165971243060189,0.278115698436817,0.00764019394707693,,
0.0169044784598341,0.27433991424349,0.00758406101493803,,
0.0172118326136492,0.270545165557706,0.00748579589935927,,
0.0175191867674644,0.266463174193489,0.00740297708541959,,
0.0178265409212796,0.262275490474968,0.00732191242560942,,
0.0181338950750947,0.258522139888572,0.00720506626999384,,
0.0184412492289099,0.254255360360048,0.00714407692966379,,
0.0187486033827251,0.249836402343271,0.0070229306601064,,
0.0190559575365402,0.245470637415093,0.0069513798501224,,
0.0193633116903554,0.241184893394112,0.00684712137460197,,
0.0196706658441706,0.236873246651726,0.00677601316369225,,
0.0199780199979857,0.232437434520464,0.00665915076590951,,
0.0202853741518009,0.227808421622297,0.00655828284293047,,
0.0205927283056161,0.22313621824893,0.00646521928161015,,
0.0209000824594312,0.218622697953454,0.00635257984747195,,
0.0212074366132464,0.21370603764683,0.00624700575635417,,
0.0215147907670615,0.209193876087857,0.00615973658841984,,
0.0218221449208767,0.204416442908783,0.00604635001455955,,
0.0221294990746919,0.199614465744807,0.00592536616668093,,
0.022436853228507,0.194609950114134,0.00583313907700589,,
0.0227442073823222,0.189700459310756,0.00572704117597445,,
0.0230515615361374,0.184654979220004,0.00558820718561304,,
0.0233589156899525,0.179602792174603,0.00549411630717556,,
0.0236662698437677,0.174469659124812,0.00536762230384902,,
0.0239736239975829,0.169473903008185,0.00528101906479694,,
0.024280978151398,0.164382196967069,0.00512908982659477,,
0.0245883323052132,0.159133629133161,0.00502047845008669,,
0.0248956864590284,0.153861471320831,0.00488675668206051,,
0.0252030406128435,0.148486454264351,0.00478630293436222,,
0.0255103947666587,0.143400732445703,0.00465286946481536,,
0.0258177489204739,0.138073791533973,0.00455036514342444,,
0.026125103074289,0.132656220006614,0.00441730930428053,,
0.0264324572281042,0.127129660466203,0.00430371158223819,,
0.0267398113819193,0.121842498733773,0.00416255090132989,,
0.0270471655357345,0.116285208620981,0.00403045335009011,,
0.0273545196895497,0.110863907795563,0.00391209667286363,,
0.0276618738433648,0.105333676775666,0.00376601461509241,,
0.02796922799718,0.0998360265225365,0.00366156529409967,,
0.0282765821509952,0.0941820637530731,0.00351458179601227,,
0.0285839363048103,0.0888049941371965,0.00337141114683082,,
0.0288912904586255,0.0830746819400213,0.00323736453544754,,
0.0291986446124407,0.0774200253476631,0.00311819574982763,,
0.0295059987662558,0.0718111899756468,0.00298170063163861,,
0.029813352920071,0.0661176503918943,0.00281906374427221,,
0.0301207070738862,0.060462068702343,0.00272213048645842,,
0.0304280612277013,0.0547315541401568,0.00260414737909231,,
0.0307354153815165,0.0490604770726224,0.00243106677778915,,
0.0310427695353317,0.043386624713509,0.00229596442549429,,
0.0313501236891468,0.0376526410368489,0.00217782295699198,,
0.031657477842962,0.0318740214206255,0.00204429203443812,,
0.0319648319967772,0.0261841822256451,0.00187440301912023,,
0.0322721861505923,0.0204698857736241,0.00175122241803782,,
0.0325795403044075,0.0147220256390687,0.00161678599462567,,
0.0328868944582226,0.00897694079609239,0.00148290586546285,,
0.0331942486120378,0.00319528570470435,0.00132855248370678,,
0.033501602765853,-0.00258677411670564,0.00120686210152599,,
0.0338089569196681,-0.00839436083878563,0.00104561391951208,,
0.0341163110734833,-0.0141502577552054,0.000913678789950634,,
0.0344236652272985,-0.0198870167234445,0.00077903121835643,,
0.0347310193811136,-0.0257033340502837,0.00061738916377152,,
0.0350383735349288,-0.0313605346599227,0.000476796958738479,,
0.035345727688744,-0.0372270385094834,0.000346875857992757,,
0.0356530818425591,-0.0429073665489481,0.000223029328027646,,
0.0359604359963743,-0.0485694239188505,6.75268128955686E-05,,
0.0362677901501895,-0.0542752499496978,-6.28815528864735E-05,,
0.0365751443040046,-0.0600114885507659,-0.000233797885321518,,
0.0368824984578198,-0.065701298836459,-0.000375362590155248,,
0.037189852611635,-0.0714190933122411,-0.00050749465600175,,
0.0374972067654501,-0.0770473846345982,-0.000658983325400708,,
0.0378045609192653,-0.0827466193479452,-0.000798438578682781,,
0.0381119150730805,-0.0882803773008902,-0.000925438119484312,,
0.0384192692268956,-0.0937538882991394,-0.0010947302351334,,
0.0387266233807108,-0.0994090652586687,-0.00124471041319163,,
0.0390339775345259,-0.104962654982689,-0.00136503036245861,,
0.0393413316883411,-0.110526652050131,-0.00150500942565479,,
0.0396486858421563,-0.115935232789145,-0.00162045875483363,,
0.0399560399959714,-0.121490672707551,-0.00177293819647195,,
0.0402633941497866,-0.126936662064308,-0.00191427754122664,,
0.0405707483036018,-0.132475045503218,-0.00206455007830675,,
0.0408781024574169,-0.137703694838189,-0.00216736300088716,,
0.0411854566112321,-0.14308220991843,-0.00232936238316528,,
0.0414928107650473,-0.14830629158601,-0.00244706734340605,,
0.0418001649188624,-0.153565873858372,-0.00260260640341592,,
0.0421075190726776,-0.158832914726853,-0.00273643983634653,,
0.0424148732264928,-0.163936039936446,-0.0028734100379455,,
0.0427222273803079,-0.169090565858826,-0.00301656647522996,,
0.0430295815341231,-0.17430672638169,-0.00312034174625664,,
0.0433369356879383,-0.179441767444442,-0.00326205263060109,,
0.0436442898417534,-0.184307489586875,-0.00339494401779517,,
0.0439516439955686,-0.189297290390322,-0.00351128869647743,,
0.0442589981493837,-0.194330744217564,-0.00365902745537072,,
0.0445663523031989,-0.199093838390146,-0.00378933836814532,,
0.0448737064570141,-0.204004485565015,-0.00393134161151121,,
0.0451810606108293,-0.208755380018363,-0.00405229703559629,,
0.0454884147646444,-0.213605606782813,-0.00417577202597119,,
0.0457957689184596,-0.218413279076383,-0.00431785851044753,,
0.0461031230722747,-0.22295348264402,-0.00441375226951779,,
0.0464104772260899,-0.227624760920194,-0.00455336994447908,,
0.0467178313799051,-0.232062163062257,-0.00466568453526017,,
0.0470251855337202,-0.236586408703314,-0.00478404121248666,,
0.0473325396875354,-0.240894586331226,-0.00492149867912195,,
0.0476398938413506,-0.245395415449586,-0.00504089485509196,,
0.0479472479951657,-0.249698447224361,-0.00515348556272688,,
0.0482546021489809,-0.254023103146024,-0.00527281677002511,,
0.0485619563027961,-0.258061152393573,-0.00536785172446974,,
0.0488693104566112,-0.262449813477278,-0.00549827430214878,,
0.0491766646104264,-0.266486937627634,-0.00561463319272804,,
0.0494840187642416,-0.270400561302722,-0.00572579458959099,,
0.0497913729180567,-0.274379635604216,-0.00583216454693369,,
0.0500987270718719,-0.278170452626929,-0.00593861571511578,,
0.0504060812256871,-0.28215785280316,-0.00604131494252158,,
0.0507134353795022,-0.285721153734964,-0.00615707084261885,,
0.0510207895333174,-0.289642814191916,-0.00623997492794004,,
0.0513281436871325,-0.29332354464866,-0.0063848530350179,,
0.0516354978409477,-0.296509116832837,-0.00648108787961332,,
0.0519428519947629,-0.30022505880149,-0.00655940761305462,,
0.052250206148578,-0.303460990964113,-0.00667375044454799,,
0.0525575603023932,-0.306888707338565,-0.00675455725994345,,
0.0528649144562084,-0.310143661812219,-0.00684310955913947,,
0.0531722686100235,-0.313461580713574,-0.00696206719657688,,
0.0534796227638387,-0.316431084884606,-0.00701964771192687,,
0.0537869769176539,-0.319533109228538,-0.00712687444362459,,
0.054094331071469,-0.322768694479714,-0.00720907605518528,,
0.0544016852252842,-0.325766934482304,-0.00731101393097244,,
0.0547090393790994,-0.328185601093465,-0.00738491579475431,,
0.0550163935329145,-0.330846874443496,-0.00749178925930094,,
0.0553237476867297,-0.333847658463367,-0.00755912928726632,,
0.0556311018405449,-0.336330619329443,-0.00763715463141512,,
0.05593845599436,-0.338721937754835,-0.00771344612414415,,
0.0562458101481752,-0.341316257195522,-0.00780220957152222,,
0.0565531643019904,-0.343387781085,-0.00785658834953207,,
0.0568605184558055,-0.346040208193123,-0.00791965871761979,,
0.0571678726096207,-0.347939432730401,-0.00800390684233143,,
0.0574752267634358,-0.350022925064815,-0.00809396763286774,,
0.057782580917251,-0.3522360466434,-0.00814280783163523,,
0.0580899350710662,-0.354154466947434,-0.0082167259375856,,
0.0583972892248813,-0.355958637748128,-0.00827531143707194,,
0.0587046433786965,-0.357707823084413,-0.00835497927044582,,
0.0590119975325117,-0.359421276541617,-0.0083886188303639,,
0.0593193516863268,-0.360865121985629,-0.0084570633257437,,
0.059626705840142,-0.362414428509645,-0.00849989392240147,,
0.0599340599939572,-0.363964660130855,-0.00856083250595718,,
0.0602414141477723,-0.36521585408442,-0.00861386318403401,,
0.0605487683015875,-0.366494800953775,-0.00867655795198985,,
0.0608561224554027,-0.367826709637431,-0.00870999854535137,,
0.0611634766092178,-0.368884269184781,-0.00875289614095154,,
0.061470830763033,-0.369819137716906,-0.00880113537950855,,
0.0617781849168482,-0.370452771475553,-0.00886298352446468,,
0.0620855390706633,-0.371682341282231,-0.00891840586175929,,
0.0623928932244785,-0.372044285559002,-0.00894094796048384,,
0.0627002473782936,-0.372866465689301,-0.00896768459905939,,
0.0630076015321088,-0.373545197936108,-0.00898551646910351,,
0.063314955685924,-0.374033417979727,-0.00901696130608842,,
0.0636223098397391,-0.374390274221935,-0.00903330092695986,,
0.0639296639935543,-0.374931918628451,-0.00905051762489606,,
0.0642370181473695,-0.374779277591602,-0.00905589581273025,,
0.0645443723011846,-0.375076233790563,-0.00911446303977748,,
0.0648517264549998,-0.375146309902934,-0.00912386725497072,,
0.065159080608815,-0.375118094438547,-0.00916364432407057,,
0.0654664347626301,-0.375049637246263,-0.00916570707938913,,
0.0657737889164453,-0.374846809686693,-0.00918043872564178,,
0.0660811430702605,-0.37428758843351,-0.0091874228578237,,
0.0663884972240756,-0.373951315603846,-0.00919255538286867,,
0.0666958513778908,-0.373351158799871,-0.00921802310207998,,
0.067003205531706,-0.372735737892212,-0.00922895408105262,,
0.0673105596855211,-0.372134945083918,-0.00919614490196663,,
0.0676179138393363,-0.371810467243465,-0.00923439520728708,,
0.0679252679931514,-0.370325628430087,-0.00921568422990759,,
0.0682326221469666,-0.369453724325662,-0.00923969015401083,,
0.0685399763007818,-0.368806387564844,-0.00920452586058484,,
0.068847330454597,-0.367415503935132,-0.00920327521365927,,
0.0691546846084121,-0.36639211516535,-0.00920642619422463,,
0.0694620387622273,-0.3650990605638,-0.00918380085439008,,
0.0697693929160425,-0.363691987733211,-0.00918326486285048,,
0.0700767470698576,-0.362244210626129,-0.00915841434601816,,
0.0703841012236728,-0.360865584534225,-0.00912844754630848,,
0.0706914553774879,-0.359138254619126,-0.00912250494314115,,
0.0709988095313031,-0.357576401464429,-0.00909528103952972,,
0.0713061636851183,-0.355487300728283,-0.00908975870245587,,
0.0716135178389334,-0.353574199733109,-0.00905951578589281,,
0.0719208719927486,-0.351808651740223,-0.0090136641460119,,
0.0722282261465638,-0.349893238002068,-0.00898324459587352,,
0.0725355803003789,-0.347386976250442,-0.00895397620938176,,
0.0728429344541941,-0.345335284132039,-0.00891283276791066,,
0.0731502886080093,-0.343318340976949,-0.00886430117033266,,
0.0734576427618244,-0.340878339311774,-0.0088263899202663,,
0.0737649969156396,-0.338276272182096,-0.00878757316934209,,
0.0740723510694548,-0.336049852331361,-0.00874076324155704,,
0.0743797052232699,-0.332986855525259,-0.00869895590147474,,
0.0746870593770851,-0.330547836775851,-0.00866026705762213,,
0.0749944135309003,-0.327773932842569,-0.00861652689956349,,
0.0753017676847154,-0.324929201155446,-0.00856859626219642,,
0.0756091218385306,-0.322035092405646,-0.00850492899443944,,
0.0759164759923457,-0.31925378769482,-0.00846787857927023,,
0.0762238301461609,-0.31586561922537,-0.00837687574299784,,
0.0765311842999761,-0.312835752462493,-0.00831018337147649,,
0.0768385384537912,-0.309533733669144,-0.00827617227196864,,
0.0771458926076064,-0.306359262651282,-0.00819702418796631,,
0.0774532467614216,-0.302978784052249,-0.0081510750950784,,
0.0777606009152367,-0.299469659124812,-0.00804758000144723,,
0.0780679550690519,-0.29614468635736,-0.00798571358405242,,
0.0783753092228671,-0.292355199161862,-0.00792571501596218,,
0.0786826633766822,-0.288845842960126,-0.00785597114715308,,
0.0789900175304974,-0.285263172805843,-0.00778065418449536,,
0.0792973716843126,-0.28136024556705,-0.00769928295376676,,
0.0796047258381277,-0.277700040704277,-0.00763571110874617,,
0.0799120799919429,-0.273636088735323,-0.0075440240711524,,
0.0802194341457581,-0.269692861950059,-0.00744147305352882,,
0.0805267882995732,-0.265768426201528,-0.00736217675974471,,
0.0808341424533884,-0.261555938314519,-0.00725271876023648,,
0.0811414966072035,-0.257426073170562,-0.00718853174310796,,
0.0814488507610187,-0.25314449208695,-0.00709361251410945,,
0.0817562049148339,-0.248814516856427,-0.00699005245180695,,
0.082063559068649,-0.244351905815855,-0.00692078163613719,,
0.0823709132224642,-0.239979896481624,-0.00683322010918097,,
0.0826782673762794,-0.235679350905555,-0.00673069548507987,,
0.0829856215300945,-0.231099425977192,-0.00663720556685332,,
0.0832929756839097,-0.226540084461374,-0.00653397237817943,,
0.0836003298377249,-0.221742819511225,-0.00641568269989534,,
0.08390768399154,-0.217430652401668,-0.0063415189311562,,
0.0842150381453552,-0.212636336198822,-0.00624793359019327,,
0.0845223922991704,-0.207761999088779,-0.00615436043085671,,
0.0848297464529855,-0.202981790618127,-0.00601816985331505,,
0.0851371006068007,-0.19819556901572,-0.00591891396549649,,
0.0854444547606159,-0.193289778601114,-0.00579526234154626,,
0.085751808914431,-0.18846001961206,-0.00568671593370951,,
0.0860591630682462,-0.183317693408914,-0.00558146668594928,,
0.0863665172220613,-0.178317080532023,-0.00547189499126599,,
0.0866738713758765,-0.173133760959511,-0.0053415698665944,,
0.0869812255296917,-0.168101232229461,-0.00524146938604719,,
0.0872885796835068,-0.162963704968003,-0.00514114151514988,,
0.087595933837322,-0.157790503646039,-0.00498778296617575,,
0.0879032879911372,-0.152349371049546,-0.00487252854301135,,
0.0882106421449523,-0.147169751865805,-0.0047665971242008,,
0.0885179962987675,-0.141906180111798,-0.00464010312087382,,
0.0888253504525827,-0.136632894837264,-0.00453116487073757,,
0.0891327046063978,-0.131373081290603,-0.0044017493074664,,
0.089440058760213,-0.125934087981369,-0.00428342511457558,,
0.0897474129140282,-0.120360493030549,-0.00414984952606012,,
0.0900547670678433,-0.114913520758025,-0.00403249783296999,,
0.0903621212216585,-0.109443536692824,-0.00387737091796936,,
0.0906694753754737,-0.103853694722552,-0.00375586326017707,,
0.0909768295292888,-0.0983451456681168,-0.00361223376975373,,
0.091284183683104,-0.0928249172616198,-0.00349687986331082,,
0.0915915378369192,-0.0871785865439988,-0.00337238567690257,,
0.0918988919907343,-0.0816051072303284,-0.00321623347505584,,
0.0922062461445495,-0.0759192286077056,-0.00310151707370165,,
0.0925136002983647,-0.0703254549743633,-0.00296376318750324,,
0.0928209544521798,-0.0645918182091506,-0.00282442365966684,,
0.093128308605995,-0.0589244993489629,-0.00269498982395699,,
0.0934356627598101,-0.0532068783289044,-0.00256627267390375,,
0.0937430169136253,-0.0475485791663487,-0.00241528345116704,,
0.0940503710674405,-0.0418994731571486,-0.00228942289238709,,
0.0943577252212556,-0.0360660415322385,-0.00214202521901896,,
0.0946650793750708,-0.0303329829527715,-0.00201041493281506,,
0.094972433528886,-0.0245604342868773,-0.00185825830426278,,
0.0952797876827011,-0.018820379659888,-0.00173740033318515,,
0.0955871418365163,-0.0130725195253326,-0.00160161784011104,,
0.0958944959903315,-0.00728759768448173,-0.00145657325081272,,
0.0962018501441466,-0.0015513590834137,-0.00129956021406885,,
0.0965092042979618,0.00423006473367608,-0.00116817731821506,,
0.096816558451777,0.00998529673648838,-0.00102935550947958,,
0.0971239126055921,0.015792131817099,-0.00089621642922566,,
0.0974312667594073,0.0215059946298108,-0.000718512900893753,,
0.0977386209132225,0.0272832266002447,-0.000609576681028567,,
0.0980459750670376,0.0330527976095489,-0.000459111268205081,,
0.0983533292208528,0.0387944422473386,-0.000334548052583372,,
0.0986606833746679,0.0444382289476788,-0.000157589633702493,,
0.0989680375284831,0.0500952271923069,-3.42141266060914E-05,,
0.0992753916822983,0.0558067483527488,0.000100543079621485,,
0.0995827458361134,0.0615805112087089,0.000224702271317767,,
0.0998900999899286,0.0672529759220328,0.000387493459279131,,
0.100197454143744,0.0728875116504428,0.000507563685215651,,
0.100504808297559,0.0785793744955329,0.00066592076134997,,
0.100812162451374,0.0841475634096307,0.00080760119162937,,
0.101119516605189,0.0898128586197087,0.000953569554225542,,
