Time domain (s),Current (AC) (A),Potential (AC) (V),Frequency (Hz),Column 5
0,-0.0487181878379509,-0.000700232571045234,1995.3,0.3
1.56618052423195E-05,-0.0993297593134806,-0.00145988817378218,,
3.13236104846389E-05,-0.145870127938627,-0.00213897362008453,,
4.69854157269584E-05,-0.186666316156696,-0.00274185053914833,,
6.26472209692778E-05,-0.220161742468102,-0.00321084677233596,,
7.83090262115972E-05,-0.244947571390437,-0.00358451374469126,,
9.39708314539167E-05,-0.260118619478383,-0.00382584982045486,,
0.000109632636696236,-0.265626602195225,-0.00389168864649303,,
0.000125294441938556,-0.260569181850948,-0.00382209366449171,,
0.000140956247180875,-0.245576296705726,-0.00363598785715347,,
0.000156618052423195,-0.221083254017623,-0.00326254307681006,,
0.000172279857665514,-0.188166309112286,-0.0027817795546663,,
0.000187941662907833,-0.147764701195227,-0.00217762614249395,,
0.000203603468150153,-0.102042044028593,-0.00151097789406363,,
0.000219265273392472,-0.0524930122711768,-0.000758371332907792,,
0.000234927078634792,-0.0017394329408026,-5.78099176844482E-05,,
0.000250588883877111,0.0491219352031781,0.000697866226117227,,
0.000266250689119431,0.0994013930392079,0.00143642914115416,,
0.00028191249436175,0.145962545008419,0.00214181767783783,,
0.00029757429960407,0.186474157696084,0.0027321063084611,,
0.000313236104846389,0.219806023055097,0.00322049768237731,,
0.000328897910088708,0.244538855616359,0.00360755838921634,,
0.000344559715331028,0.260048222023403,0.00382182259023667,,
0.000360221520573347,0.265118378288958,0.00389765672393549,,
0.000375883325815667,0.260092447859931,0.00383599399676271,,
0.000391545131057986,0.245159696789904,0.00361331316232771,,
0.000407206936300306,0.2210014268897,0.00325940128175972,,
0.000422868741542625,0.188115808618571,0.00277965317711093,,
0.000438530546784945,0.148255197445501,0.00219498600439172,,
0.000454192352027264,0.102511197114087,0.00152182641904952,,
0.000469854157269584,0.0531483757221804,0.000800555597347152,,
0.000485515962511903,0.00254594798500464,5.01787330318137E-05,,
0.000501177767754222,-0.0487385746423422,-0.000715007228884179,,
0.000516839572996542,-0.0993389497035609,-0.00143924098106663,,
0.000532501378238861,-0.145882677253001,-0.00215234846824774,,
0.000548163183481181,-0.186640471100329,-0.00272296199620747,,
0.0005638249887235,-0.220001167226192,-0.003221928598935,,
0.00057948679396582,-0.245040315022313,-0.00360231354677332,,
0.000595148599208139,-0.260270190937118,-0.00383818925384194,,
0.000610810404450459,-0.265707542940348,-0.00389231411700708,,
0.000626472209692778,-0.260714175416276,-0.00383727048987215,,
0.000642134014935097,-0.245631345742755,-0.00359534449431687,,
0.000657795820177417,-0.220786502386656,-0.00323566895295757,,
0.000673457625419736,-0.188157538587742,-0.00277518600670978,,
0.000689119430662056,-0.147946969489864,-0.00219634581950556,,
0.000704781235904375,-0.102027442038262,-0.00153584562404774,,
0.000720443041146695,-0.0523789488003835,-0.000789760398444361,,
0.000736104846389014,-0.00168678646767777,-6.74563838858333E-05,,
0.000751766651631334,0.0491056304248377,0.000711232186599631,,
0.000767428456873653,0.0994497242276504,0.00146730049930266,,
0.000783090262115973,0.145839641035493,0.00214509278809505,,
0.000798752067358292,0.186503011788798,0.00274953949372359,,
0.000814413872600611,0.219891628972849,0.0032317228228238,,
0.000830075677842931,0.244601042367512,0.0036239583816231,,
0.00084573748308525,0.259858466126695,0.00382604201654502,,
0.00086139928832757,0.265029016907239,0.0039118703469434,,
0.000877061093569889,0.260146773795203,0.00383053029518754,,
0.000892722898812209,0.244972156850195,0.0036236717539273,,
0.000908384704054528,0.220686691018246,0.00328112721669394,,
0.000924046509296848,0.188167522057169,0.00277567371817566,,
0.000939708314539167,0.148209828641678,0.00218231661586676,,
0.000955370119781486,0.102542127208621,0.00150535754711933,,
0.000971031925023806,0.0532096294388068,0.000795255206900602,,
0.000986693730266125,0.00257893075549578,6.183159310158E-05,,
0.00100235553550844,-0.0487400674975837,-0.000704398671270479,,
0.00101801734075076,-0.0993104454987942,-0.00146162793723637,,
0.00103367914599308,-0.145958719566863,-0.00214991213283566,,
0.0010493409512354,-0.186768996606274,-0.00272205211991805,,
0.00106500275647772,-0.220151619043496,-0.00325855473019443,,
0.00108066456172004,-0.24487638085611,-0.00360648853467893,,
0.00109632636696236,-0.260442942279592,-0.00383437977179568,,
0.00111198817220468,-0.265486087195622,-0.00390534901139139,,
0.001127649977447,-0.260600298552388,-0.00382124600196621,,
0.00114331178268932,-0.245652712233398,-0.00361845357452584,,
0.00115897358793164,-0.221088292404063,-0.00324062050194529,,
0.00117463539317396,-0.1880831290843,-0.00277995980208789,,
0.00119029719841628,-0.147914733146994,-0.00218320316199527,,
0.0012059590036586,-0.102078385723377,-0.00153286602916669,,
0.00122162080890092,-0.0523851068282546,-0.000788386140849973,,
0.00123728261414324,-0.00173828997350835,-4.71924723908224E-05,,
0.00125294441938556,0.0491636884982128,0.000691093813591337,,
0.00126860622462788,0.0993612958804566,0.00145766403174186,,
0.00128426802987019,0.145814729013651,0.00215993965833761,,
0.00129992983511251,0.186517613779129,0.00274404468526646,,
0.00131559164035483,0.219759184721896,0.00322579696186365,,
0.00133125344559715,0.244440117237654,0.00360437215576415,,
0.00134691525083947,0.259674681650952,0.00383992012961487,,
0.00136257705608179,0.265126425711744,0.00390955066233811,,
0.00137823886132411,0.25999447923471,0.00384525495982313,,
0.00139390066656643,0.245332774694462,0.00360457879433529,,
0.00140956247180875,0.221067555711725,0.00326636033557604,,
0.00142522427705107,0.188119377475632,0.00279921051800791,,
0.00144088608229339,0.148196346292779,0.00218142340397876,,
0.00145654788753571,0.102556729198952,0.00151629605987047,,
0.00147220969277803,0.0531984096986326,0.000787608468807655,,
0.00148787149802035,0.0025536221939803,5.12408108490625E-05,,
0.00150353330326267,-0.0487183744448561,-0.000719719921458584,,
0.00151919510850499,-0.0992233467257999,-0.00144483577592869,,
0.00153485691374731,-0.145966417101702,-0.00213878586783434,,
0.00155051871898963,-0.186951264900911,-0.00275964367546999,,
0.00156618052423195,-0.220327915917168,-0.00323092182062101,,
0.00158184232947426,-0.245185868408356,-0.00358117642067102,,
0.00159750413471658,-0.26024359945313,-0.00383655614255352,,
0.0016131659399589,-0.265575471903205,-0.00391281688491496,,
0.00162882774520122,-0.260773936277661,-0.00383330880629806,,
0.00164448955044354,-0.245426777922948,-0.00361747259679257,,
0.00166015135568586,-0.22094740419065,-0.00323759535770174,,
0.00167581316092818,-0.187971304896369,-0.00277363399550579,,
0.0016914749661705,-0.147807947345503,-0.00217311008984966,,
0.00170713677141282,-0.101984895663881,-0.00150590080658919,,
0.00172279857665514,-0.0523995688634063,-0.000775493449352904,,
0.00173846038189746,-0.00174297847200108,-5.24650888356071E-05,,
0.00175412218713978,0.0490887658257817,0.000694145620875997,,
0.0017697839923821,0.0993802131554696,0.0014744195313674,,
0.00178544579762442,0.145815662048177,0.00213782933122264,,
0.00180110760286674,0.186472105020127,0.00272465621029871,,
0.00181676940810906,0.219845910281079,0.00324813836867088,,
0.00183243121335138,0.244527985764132,0.00360828051325557,,
0.0018480930185937,0.259764626179251,0.00384711915080382,,
0.00186375482383601,0.264964380940456,0.00392875916177626,,
0.00187941662907833,0.260428526896166,0.00385050980090718,,
0.00189507843432065,0.245275089834897,0.00361543731796221,,
0.00191074023956297,0.220959463661897,0.003249084906642,,
0.00192640204480529,0.18829453138201,0.00277288965226541,,
0.00194206385004761,0.148331076478321,0.00219686797073315,,
0.00195772565528993,0.102526942071712,0.00151449408265325,,
0.00197338746053225,0.0531236503072436,0.000810494246044513,,
0.00198904926577457,0.00255100969730774,7.04781952487465E-05,,
0.00200471107101689,-0.0487280780039257,-0.000700883593640622,,
0.00202037287625921,-0.0993022347949661,-0.00143568146503403,,
0.00203603468150153,-0.145886036177294,-0.00214651259505194,,
0.00205169648674385,-0.186727196659512,-0.00273747891131215,,
0.00206735829198617,-0.220212686153217,-0.00322770114740667,,
0.00208302009722849,-0.244785176731201,-0.00358933975519227,,
0.00209868190247081,-0.260227131393747,-0.00383515522191757,,
0.00211434370771313,-0.265436822972654,-0.00389143868047981,,
0.00213000551295545,-0.260620685356779,-0.00384389958855014,,
0.00214566731819776,-0.245679490324292,-0.00362266522411314,,
0.00216132912344008,-0.221003432913931,-0.00326451503091629,,
0.0021769909286824,-0.188012125156878,-0.00278379594717526,,
0.00219265273392472,-0.147837384584795,-0.0021885468798839,,
0.00220831453916704,-0.102009621078817,-0.00151556393719154,,
0.00222397634440936,-0.0524126779984954,-0.000790859137943745,,
0.00223963814965168,-0.0017343712284995,-4.05355997110668E-05,,
0.002255299954894,0.0491078697076999,0.000696706383814583,,
0.00227096176013632,0.0993101189367101,0.001450953832979,,
0.00228662356537864,0.145909152107674,0.00213363656795584,,
0.00230228537062096,0.186600980414019,0.00272099670786075,,
0.00231794717586328,0.219895757650627,0.00323306041873606,,
0.0023336089811056,0.244693412785577,0.00358719671323593,,
0.00234927078634792,0.259678623721824,0.00383301217996168,,
0.00236493259159024,0.265014018377235,0.00391207476359456,,
0.00238059439683256,0.259945215011742,0.00384066002901484,,
0.00239625620207488,0.245309355527861,0.00362537596665957,,
0.0024119180073172,0.221051250933384,0.00324369675035108,,
0.00242757981255951,0.188275427500092,0.00278260610895043,,
0.00244324161780183,0.148182304123164,0.00218833135363194,,
0.00245890342304415,0.102606926456446,0.0014912927927595,,
0.00247456522828647,0.0531813584926715,0.000797369363894962,,
0.00249022703352879,0.00253790056221861,5.48992023268191E-05,,
0.00250588883877111,-0.0486859514950805,-0.000695538764791781,,
0.00252155064401343,-0.0993713260016102,-0.00145952266792237,,
0.00253721244925575,-0.145896532815711,-0.00213284334247321,,
0.00255287425449807,-0.186792788986684,-0.00273482927156854,,
0.00256853605974039,-0.220221876543297,-0.00323631997555252,,
0.00258419786498271,-0.244950743707825,-0.00360681960077702,,
0.00259985967022503,-0.26046538175994,-0.00384007233114358,,
0.00261552147546735,-0.265528073749288,-0.00389943314907182,,
0.00263118328070967,-0.26069901360523,-0.00382976595466644,,
0.00264684508595199,-0.245430136847241,-0.00360152809801084,,
0.00266250689119431,-0.22101075723496,-0.00327801541756623,,
0.00267816869643663,-0.188203957055406,-0.00275288792734463,,
0.00269383050167895,-0.147868827848319,-0.00218356866785507,,
0.00270949230692126,-0.10208440379607,-0.00152341731385608,,
0.00272515411216358,-0.0524797165291825,-0.000791447946775214,,
0.0027408159174059,-0.00171375116547675,-5.40448740409261E-05,,
0.00275647772264822,0.0490741638354511,0.000717254701084968,,
0.00277213952789054,0.0993320685739323,0.00147766797858306,,
0.00278780133313286,0.145796744773164,0.00215648679447078,,
0.00280346313837518,0.186430305073366,0.00272774245734553,,
0.0028191249436175,0.219927970667634,0.00323847745998895,,
0.00283478674885982,0.244405664937785,0.00357901560335394,,
0.00285044855410214,0.260103877532874,0.00380617360683111,,
0.00286611035934446,0.265178885577964,0.00390106514939959,,
0.00288177216458678,0.260132521692819,0.00381775425449682,,
0.0028974339698291,0.245204459121285,0.00361815694818945,,
0.00291309577507142,0.220998814393028,0.00325193340823615,,
0.00292875758031374,0.188214733604181,0.00278110853478974,,
0.00294441938555606,0.148304088454659,0.00221178816433953,,
0.00296008119079838,0.102566106195937,0.00150832825432001,,
0.0029757429960407,0.0531590589675021,0.000797940397365693,,
0.00299140480128301,0.00255063648349737,8.00868888082285E-05,,
0.00300706660652533,-0.0487406273182992,-0.000715560486993727,,
0.00302272841176765,-0.0993361039482569,-0.00143136205232075,,
0.00303839021700997,-0.145948222928446,-0.00214288086661574,,
0.00305405202225229,-0.18678919680376,-0.00272173105246099,,
0.00306971382749461,-0.220225235467591,-0.0032298241920814,,
0.00308537563273693,-0.245116917156891,-0.00359611216771816,,
0.00310103743797925,-0.26052458280061,-0.0038152857012439,,
0.00311669924322157,-0.265779853116107,-0.00390178949535924,,
0.00313236104846389,-0.260715668271517,-0.00384067002765587,,
0.00314802285370621,-0.245659849947521,-0.00360734619584546,,
0.00316368465894853,-0.221012996517822,-0.00325963458337286,,
0.00317934646419085,-0.187949751798821,-0.00274699872806661,,
0.00319500826943317,-0.147854785678704,-0.0022019572787686,,
0.00321067007467549,-0.102005702333809,-0.00153459690494007,,
0.00322633187991781,-0.0524649279319467,-0.000809462164149011,,
0.00324199368516013,-0.00172707023333421,-6.58765986805143E-05,,
0.00325765549040245,0.0491243610929454,0.000711464377252113,,
0.00327331729564477,0.0993627887356981,0.00146314328675778,,
0.00328897910088708,0.14572387477669,0.00213094137885017,,
0.0033046409061294,0.186521369243095,0.00276243329618042,,
0.00332030271137172,0.219801707770414,0.00322285291770452,,
0.00333596451661404,0.244511494378887,0.00361092237627814,,
0.00335162632185636,0.259829425427076,0.00381654108611151,,
0.00336728812709868,0.265102260117523,0.00391934710814779,,
0.003382949932341,0.260244952353192,0.00385235843844711,,
0.00339861173758332,0.245243436638605,0.00361225997219083,,
0.00341427354282564,0.220982486288824,0.00326686915528329,,
0.00342993534806796,0.188236449982772,0.00277542486312221,,
0.00344559715331028,0.148149134745767,0.00220171397851532,,
0.0034612589585526,0.102669509747272,0.00152279073238182,,
0.00347692076379492,0.0531654269281415,0.000778248630301626,,
0.00349258256903724,0.00256992697232069,6.75152647686694E-05,,
0.00350824437427956,-0.0487060117373877,-0.000692496956147259,,
0.00352390617952188,-0.0993044740778283,-0.00146042365653143,,
0.0035395679847642,-0.145957040104716,-0.00214362187697592,,
0.00355522979000652,-0.186658665273584,-0.00276107125914704,,
0.00357089159524883,-0.220147700298487,-0.00321246099730299,,
0.00358655340049115,-0.245031684452948,-0.00360266127727238,,
0.00360221520573347,-0.260366106886383,-0.0038293293473628,,
0.00361787701097579,-0.265731708534569,-0.00390224387802363,,
0.00363353881621811,-0.260530041052586,-0.00383458418844684,,
0.00364920062146043,-0.245424165426275,-0.00364252807902687,,
0.00366486242670275,-0.220993682703135,-0.00326863780369946,,
0.00368052423194507,-0.187928012094367,-0.00277142096306626,,
0.00369618603718739,-0.14791025458127,-0.00220784647804706,,
0.00371184784242971,-0.102031547390176,-0.00152082100019557,,
0.00372750964767203,-0.0524495795139954,-0.000806080401726028,,
0.00374317145291435,-0.00172574065913478,-4.25786552615826E-05,,
0.00375883325815667,0.0491646448586019,0.000724775900691643,,
0.00377449506339899,0.0994049385704064,0.00146647838885805,,
0.00379015686864131,0.145808547659917,0.00214503946201239,,
0.00380581867388363,0.186410641370732,0.00272552053722519,,
0.00382148047912595,0.21979515320287,0.00324766732160553,,
0.00383714228436827,0.24459035912219,0.00360397221014264,,
0.00385280408961058,0.260008894618136,0.00382564207092306,,
0.0038684658948529,0.264916982786539,0.0038933817496245,,
0.00388412770009522,0.26007539665397,0.00383766265877306,,
0.00389978950533754,0.245294193716815,0.00360111704278854,,
0.00391545131057986,0.220915820971948,0.00326421173881997,,
0.00393111311582218,0.188113009514993,0.00276225554257081,,
0.0039467749210645,0.148204020501754,0.0021991809895785,,
0.00396243672630682,0.102578095689595,0.00152097097980342,,
0.00397809853154914,0.053209816045712,0.000775688978323252,,
0.00399376033679146,0.00255457855436937,3.98556921537008E-05,,
0.00400942214203378,-0.0487324166144712,-0.000707084972695782,,
0.0040250839472761,-0.0993022347949661,-0.00144335375520877,,
0.00404074575251842,-0.145945423824869,-0.00214134663077292,,
0.00405640755776074,-0.186612759974909,-0.00274157391009311,,
0.00407206936300306,-0.220158756757619,-0.0032261480252429,,
0.00408773116824538,-0.245040315022313,-0.00362872328932085,,
0.0041033929734877,-0.260308771914765,-0.0038321134132735,,
0.00411905477873002,-0.265684310380653,-0.00391730516355748,,
0.00413471658397234,-0.260429973099682,-0.00384154435322293,,
0.00415037838921465,-0.245684388755553,-0.00362482493047001,,
0.00416604019445697,-0.220972502819397,-0.00324249469156657,,
0.00418170199969929,-0.187956329692228,-0.00278221727292971,,
0.00419736380494161,-0.147862856427353,-0.00218355089249389,,
0.00421302561018393,-0.102042790456214,-0.00153417696203739,,
0.00422868741542625,-0.0524497661209006,-0.000782354738683821,,
0.00424434922066857,-0.00170120185110318,-6.74019468429599E-05,,
0.00426001102591089,0.0491147974890548,0.000708377019245088,,
0.00427567283115321,0.0993626021287929,0.00144820531779066,,
0.00429133463639553,0.145759656650759,0.00211824532728411,,
0.00430699644163785,0.186523235312147,0.00272346970495452,,
0.00432265824688017,0.219756385618318,0.00323803085404473,,
0.00433832005212249,0.244553644213595,0.00360023271858045,,
0.00435398185736481,0.259850791917719,0.0038280861830553,,
0.00436964366260713,0.26493366077869,0.00390654218249553,,
0.00438530546784945,0.260250387279306,0.00384034007251755,,
0.00440096727309177,0.245380919275999,0.00359308702347461,,
0.00441662907833408,0.220996738391208,0.00325488634007565,,
0.0044322908835764,0.188229148987606,0.00278638115123453,,
0.00444795268881872,0.148113352871698,0.00219646802511164,,
0.00446361449406104,0.102525822430281,0.00151527842045551,,
0.00447927629930336,0.0531774164217995,0.000772458306468771,,
0.00449493810454568,0.00257855754168542,4.93588445076298E-05,,
0.004510599909788,-0.0487005534854111,-0.00070064251530777,,
0.00452626171503032,-0.0992527373133663,-0.00146995347192647,,
0.00454192352027264,-0.145977286953929,-0.00214131996773137,,
0.00455758532551496,-0.186676439581303,-0.00272882453244438,,
0.00457324713075728,-0.220139629549838,-0.00324079936651467,,
0.0045889089359996,-0.245068959182259,-0.00360354449051981,,
0.00460457074124192,-0.260511846879331,-0.00381789979026514,,
0.00462023254648424,-0.265529006783814,-0.00391484216510474,,
0.00463589435172656,-0.260581171344606,-0.00382422559684681,,
0.00465155615696888,-0.245649353309105,-0.00362904546773812,,
0.0046672179622112,-0.220958087435972,-0.00325768929230774,,
0.00468287976745352,-0.187907252076165,-0.00277218752550779,,
0.00469854157269583,-0.147839437260752,-0.0021940616856222,,
0.00471420337793815,-0.102072227695506,-0.00149206268808122,,
0.00472986518318047,-0.0525243155795213,-0.000810747544938373,,
0.00474552698842279,-0.00173005594381714,-4.5112755158172E-05,,
0.00476118879366511,0.0491095491698465,0.000692075902284373,,
0.00477685059890743,0.0994028858944494,0.00145682636785649,,
0.00479251240414975,0.145816595082703,0.00216096618543293,,
0.00480817420939207,0.186485027548311,0.00274014521545585,,
0.00482383601463439,0.220102774686064,0.00325008477069622,,
0.00483949781987671,0.244754106681488,0.003606809602136,,
0.00485515962511903,0.259743259688607,0.00382665082265765,,
0.00487082143036135,0.265134659741436,0.00391229917752689,,
0.00488648323560367,0.260201099730474,0.00384851229471916,,
0.00490214504084599,0.245180480133969,0.00361195779105428,,
0.00491780684608831,0.22080772892212,0.0032754702080684,,
0.00493346865133063,0.188331992718225,0.00278630116211032,,
0.00494913045657295,0.148215076960886,0.00220075855286339,,
0.00496479226181527,0.102608629244456,0.00152121983485687,,
0.00498045406705758,0.0531414479408255,0.000794050926195666,,
0.0049961158722999,0.00251336175418702,5.73444254192701E-05,,
0.00501177767754222,-0.0487020463406526,-0.000714918352079152,,
0.00502743948278454,-0.0993347976999206,-0.00145101049194274,,
0.00504310128802686,-0.145940712000513,-0.00213595736352179,,
0.00505876309326918,-0.186811682935834,-0.00274541116614069,,
