Time domain (s),Current (AC) (A),Potential (AC) (V),Frequency (Hz),Column 5
0,-0.0423783115378023,0.00187160921130536,0.012589,0.3
0.193931706251489,-0.0466980747858896,0.00167361144368705,,
0.387863412502979,-0.0510032826953725,0.00154349474522242,,
0.581795118754468,-0.0553008863734693,0.00135695831837168,,
0.775726825005958,-0.0596584841715824,0.00117674339734331,,
0.969658531257447,-0.063850235082714,0.000990935041547125,,
1.16359023750894,-0.0680748288091578,0.000816729595889854,,
1.35752194376043,-0.0723018484253689,0.000654103947005158,,
1.55145365001192,-0.0765150591305966,0.000487121428476733,,
1.7453853562634,-0.0806877761373994,0.00029680596615167,,
1.93931706251489,-0.084936628761517,0.000116830846304428,,
2.13324876876638,-0.0891169966514324,-8.97188670343496E-05,,
2.32718047501787,-0.0931803620117978,-0.00026226015028108,,
2.52111218126936,-0.0973030683680116,-0.00042742826951514,,
2.71504388752085,-0.101493699637712,-0.000606938232855292,,
2.90897559377234,-0.105489933163938,-0.000764317147473825,,
3.10290730002383,-0.1094496850402,-0.000974372869640749,,
3.29683900627532,-0.113520841238857,-0.00114122682006634,,
3.49077071252681,-0.117505178574877,-0.00132123516537863,,
3.6847024187783,-0.121422197469853,-0.0015293233621958,,
3.87863412502979,-0.125427341475801,-0.00165830750568663,,
4.07256583128128,-0.129241213403937,-0.0018438385010815,,
4.26649753753277,-0.133177872675683,-0.00204395403093383,,
4.46042924378426,-0.137030185626286,-0.00220423367308742,,
4.65436095003575,-0.14087857983188,-0.00237765181968763,,
4.84829265628724,-0.144484758274547,-0.00255396202630997,,
5.04222436253872,-0.148334831942288,-0.00274022109275895,,
5.23615606879021,-0.151968628206921,-0.00290514652164164,,
5.4300877750417,-0.155721526328788,-0.003082634065386,,
5.62401948129319,-0.159356955403842,-0.00327747974760539,,
5.81795118754468,-0.162785857286584,-0.00342431896695805,,
6.01188289379617,-0.166472696564016,-0.00356342532052656,,
6.20581460004766,-0.16997526152258,-0.00375645804803693,,
6.39974630629915,-0.173493361506,-0.00392304763933016,,
6.59367801255064,-0.176848507009469,-0.00410077787342589,,
6.78760971880213,-0.180206778178599,-0.00427373519727503,,
6.98154142505362,-0.183490826451193,-0.00443885853436088,,
7.17547313130511,-0.186876388880206,-0.0045957954058391,,
7.3694048375566,-0.190186142253989,-0.00477163323302721,,
7.56333654380809,-0.193339985558492,-0.00495110708173208,,
7.75726825005958,-0.196656130218777,-0.00507587159119405,,
7.95119995631106,-0.199919091911085,-0.00525352237309162,,
8.14513166256256,-0.202631329974471,-0.00538514144039892,,
8.33906336881404,-0.205826180146388,-0.00558066896693976,,
8.53299507506553,-0.208778301386387,-0.00572422608820489,,
8.72692678131702,-0.211811363371509,-0.0058744181903303,,
8.92085848756851,-0.214563675267783,-0.00601479577907371,,
9.11479019382,-0.217371409414897,-0.00617520254474435,,
9.30872190007149,-0.220187447569291,-0.00635026318497367,,
9.50265360632298,-0.222850141499351,-0.00647796453660643,,
9.69658531257447,-0.22574572084708,-0.00665005510920036,,
9.89051701882596,-0.228520985392691,-0.00680357409156107,,
10.0844487250774,-0.230807806363986,-0.00690104315940454,,
10.2783804313289,-0.233303673720812,-0.00706154382312807,,
10.4723121375804,-0.235780133959499,-0.0072100688736727,,
10.6662438438319,-0.238241292431961,-0.0073649154300397,,
10.8601755500834,-0.240625382252582,-0.00748173327507518,,
11.0541072563349,-0.242672460002443,-0.00761780022090797,,
11.2480389625864,-0.245132872047284,-0.00775700047252936,,
11.4419706688379,-0.247385030785941,-0.00790723735680343,,
11.6359023750894,-0.249516268250039,-0.00800734134846337,,
11.8298340813409,-0.251373193563517,-0.00815737021243557,,
12.0237657875923,-0.253614155887863,-0.00827766373000527,,
12.2176974938438,-0.255546656997941,-0.00839529776580639,,
12.4116292000953,-0.257478784894208,-0.00850697144214063,,
12.6055609063468,-0.258921256271275,-0.00864220919593928,,
12.7994926125983,-0.260884734127613,-0.0087670661588688,,
12.9934243188498,-0.262670328951586,-0.0089031706639231,,
13.1873560251013,-0.264145689795691,-0.00902549671318642,,
13.3812877313528,-0.265979149290842,-0.00911580063731865,,
13.5752194376043,-0.267501814985412,-0.00921935863273138,,
13.7691511438557,-0.268806570466453,-0.00934426471156513,,
13.9630828501072,-0.270220490987026,-0.00944124839870586,,
14.1570145563587,-0.271747122078331,-0.00954595195036134,,
14.3509462626102,-0.272877773316836,-0.00965241356247981,,
14.5448779688617,-0.274221343034156,-0.0097297494432449,,
14.7388096751132,-0.275321204133306,-0.00983645230112984,,
14.9327413813647,-0.276229046727022,-0.0099644656832143,,
15.1266730876162,-0.276894346995727,-0.0100182259298323,,
15.3206047938677,-0.27817666299642,-0.010121682804265,,
15.5145365001192,-0.278741708705315,-0.0102033192158428,,
15.7084682063706,-0.279828507321102,-0.0102936924800749,,
15.9023999126221,-0.280561126030852,-0.0103749706344671,,
16.0963316188736,-0.281106951228513,-0.0104888617494301,,
16.2902633251251,-0.281781348583845,-0.0105478355048492,,
16.4841950313766,-0.282300115780254,-0.0106023137104239,,
16.6781267376281,-0.283122305804492,-0.0106930452318417,,
16.8720584438796,-0.283060119053339,-0.0107231041653799,,
17.0659901501311,-0.28357911950838,-0.010823046363472,,
17.2599218563826,-0.283933672628229,-0.0109285935530163,,
17.453853562634,-0.284193056226433,-0.0109703131801107,,
17.6477852688855,-0.284250717760135,-0.0110440563769223,,
17.841716975137,-0.284242880270117,-0.0110746700312641,,
18.0356486813885,-0.28415368216944,-0.0111590237080272,,
18.22958038764,-0.284329979043112,-0.0112014352915408,,
18.4235120938915,-0.284467928197768,-0.0112412726238253,,
18.617443800143,-0.283870786101182,-0.0112552215406962,,
18.8113755063945,-0.283724672894423,-0.0113104263727397,,
19.005307212646,-0.283205672439382,-0.0113697237152941,,
19.1992389188975,-0.282846080933094,-0.0114188150618162,,
19.3931706251489,-0.282467502174204,-0.0114621309558061,,
19.5871023314004,-0.282011808111746,-0.0114591262181203,,
19.7810340376519,-0.281693083517693,-0.0114939927319555,,
19.9749657439034,-0.280867721176068,-0.0115634614004922,,
20.1688974501549,-0.27978470135011,-0.011557508263953,,
20.3628291564064,-0.279156535855537,-0.0115906528319605,,
20.5567608626579,-0.278447849481377,-0.0116097444729468,,
20.7506925689094,-0.277412134505884,-0.0116556245060671,,
20.9446242751609,-0.276562000097595,-0.0116476850645673,,
21.1385559814123,-0.275574476355366,-0.0116491180933096,,
21.3324876876638,-0.274307928638161,-0.0116623736091759,,
21.5264193939153,-0.273261810327703,-0.0116826324751864,,
21.7203511001668,-0.271861652066387,-0.0116709847828989,,
21.9142828064183,-0.270615677760478,-0.0116936459944719,,
22.1082145126698,-0.269183889628733,-0.0116833836596077,,
22.3021462189213,-0.267749069134779,-0.0116542492607419,,
22.4960779251728,-0.266294841522686,-0.0116696774330887,,
22.6900096314243,-0.264829650754914,-0.0116679453751631,,
22.8839413376757,-0.263127795779642,-0.0116429121543211,,
23.0778730439272,-0.261122844538627,-0.0116533593961194,,
23.2718047501787,-0.259672349064638,-0.0116240400903194,,
23.4657364564302,-0.257776796121786,-0.0115957839993928,,
23.6596681626817,-0.255976039486768,-0.0115756407002166,,
23.8535998689332,-0.253916878939797,-0.0115534980948113,,
24.0475315751847,-0.252108051556129,-0.0115233914899542,,
24.2414632814362,-0.250192671629602,-0.011482077791364,,
24.4353949876877,-0.247926890586867,-0.0114538794838541,,
24.6293266939392,-0.245867730039896,-0.0114194174539386,,
24.8232584001906,-0.243324091315343,-0.0113838228690493,,
25.0171901064421,-0.24105551116903,-0.01131368535746,,
25.2111218126936,-0.238913683763063,-0.0112932184711485,,
25.4050535189451,-0.236387679391049,-0.01123826788614,,
25.5989852251966,-0.233987214814498,-0.011182216527037,,
25.7929169314481,-0.231644178513017,-0.0111615994038412,,
25.9868486376996,-0.228874558826287,-0.011126812342205,,
26.1807803439511,-0.226298823714043,-0.0110346492366302,,
26.3747120502026,-0.223652924405449,-0.0109771431800034,,
26.568643756454,-0.221062074133885,-0.0108900635705416,,
26.7625754627055,-0.218088166537706,-0.0108456165661632,,
26.956507168957,-0.215300026115636,-0.0107667176439676,,
27.1504388752085,-0.212522942152699,-0.0106900289374727,,
27.34437058146,-0.209591907492986,-0.0106310205120033,,
27.5383022877115,-0.206485648949305,-0.0105620964521718,,
27.732233993963,-0.203519392236238,-0.0104845063243717,,
27.9261657002145,-0.200311572884412,-0.0103850812878616,,
28.120097406466,-0.197414127467631,-0.0103240981141153,,
28.3140291127175,-0.194196837815367,-0.0101997019739368,,
28.5079608189689,-0.191014443654372,-0.0101227460191384,,
28.7018925252204,-0.187759972576249,-0.0100618654109574,,
28.8958242314719,-0.184602070571559,-0.00994341951814715,,
29.0897559377234,-0.181159033215749,-0.00986164587095395,,
29.2836876439749,-0.1778064069055,-0.00975179959518302,,
29.4776193502264,-0.174387021974922,-0.00967833520335848,,
29.6715510564779,-0.170897472847996,-0.00956799054561586,,
29.8654827627294,-0.167441512964002,-0.00945597161336442,,
30.0594144689809,-0.163812755085808,-0.00934083237659378,,
30.2533461752323,-0.160255654259205,-0.00925850111942639,,
30.4472778814838,-0.156655307282325,-0.00912970188287021,,
30.6412095877353,-0.153072641309712,-0.00901012632425724,,
30.8351412939868,-0.149233717404555,-0.00890737585209722,,
31.0290730002383,-0.145554948875773,-0.00880206990831933,,
31.2230047064898,-0.141686027910608,-0.00868279482347489,,
31.4169364127413,-0.13804775308025,-0.00855441162752113,,
31.6108681189928,-0.134131480612895,-0.00844769721295302,,
31.8047998252443,-0.130197387186096,-0.00832976125879803,,
31.9987315314958,-0.126222286891882,-0.00816522875715142,,
32.1926632377472,-0.122539972831901,-0.00806513632217509,,
32.3865949439987,-0.118487244065131,-0.00792457238191169,,
32.5805266502502,-0.114447204567913,-0.00781101641076765,,
32.7744583565017,-0.110473970342751,-0.00766302007848907,,
32.9683900627532,-0.106523875373832,-0.00749640881841485,,
33.1623217690047,-0.10247898409708,-0.00741109738151424,,
33.3562534752562,-0.0983987774635214,-0.0072479747952432,,
33.5501851815077,-0.0943175444919846,-0.00710274195488392,,
33.7441168877592,-0.0901763640521577,-0.00695391354140007,,
33.9380485940106,-0.0860454469921159,-0.00683688045313646,,
34.1319803002621,-0.0818495907290704,-0.0066557756674861,,
34.3259120065136,-0.0776074559535394,-0.00653070779508447,,
34.5198437127651,-0.0734438826850905,-0.0063617505282787,,
34.7137754190166,-0.0692504989635386,-0.00623539119650651,,
34.9077071252681,-0.0650120030226587,-0.00604614906115319,,
35.1016388315196,-0.0606603766455114,-0.0059326393167427,,
35.2955705377711,-0.0564126436628248,-0.00576070909313131,,
35.4895022440226,-0.0521190053814632,-0.00557071866252734,,
35.6834339502741,-0.0478328780280353,-0.00543395542651925,,
35.8773656565255,-0.0435093826418443,-0.0052976327890657,,
36.071297362777,-0.0392282003714037,-0.00513925133216198,,
36.2652290690285,-0.0348563737967703,-0.00496064134554164,,
36.45916077528,-0.0305532185632444,-0.00479535910405904,,
36.6530924815315,-0.0262314026392001,-0.00464254363480032,,
36.847024187783,-0.0218498725054972,-0.00449631691966834,,
37.0409558940345,-0.0175082762495035,-0.00427089225315758,,
37.234887600286,-0.0131325309298613,-0.00414922349026225,,
37.4288193065375,-0.00875552601360905,-0.00399609743513718,,
37.6227510127889,-0.00436849097620323,-0.0037900186566473,,
37.8166827190404,-4.92175712420856E-06,-0.00364339901427924,,
38.0106144252919,0.00437754141110462,-0.00344722431346822,,
38.2045461315434,0.0086982376937178,-0.00326793537169801,,
38.3984778377949,0.0130500973294966,-0.00314825291376319,,
38.5924095440464,0.0174551399332526,-0.00294587227396326,,
38.7863412502979,0.0218094487846619,-0.00277823102448016,,
38.9802729565494,0.0261637109843449,-0.00259802766013584,,
39.1742046628009,0.0305239679308569,-0.0024419416494732,,
39.3681363690523,0.0348157634690298,-0.00225581115112705,,
39.5620680753038,0.0391047132518987,-0.00207407219247457,,
39.7559997815553,0.0434050460559837,-0.00190652195187369,,
39.9499314878068,0.0477787620255321,-0.00173254908446996,,
40.1438631940583,0.0520711173844206,-0.00155638911473188,,
40.3377949003098,0.0563518331375982,-0.00136712675518247,,
40.5317266065613,0.0606468009931593,-0.00117865747303192,,
40.7256583128128,0.0649350510001337,-0.00100046641618556,,
40.9195900190643,0.0691456258828256,-0.000826733349962527,,
41.1135217253157,0.0733526785601822,-0.000678358536302603,,
41.3074534315672,0.0775463188662287,-0.000473285189268591,,
41.5013851378187,0.0816887822285287,-0.000301968914462769,,
41.6953168440702,0.0859187875552228,-0.000145628656765595,,
41.8892485503217,0.0899748752462861,2.21151582824319E-05,,
42.0831802565732,0.0941205342518374,0.000182880181138767,,
42.2771119628247,0.0983460610128071,0.000394601510301573,,
42.4710436690762,0.1024068138765,0.000587676130789472,,
42.6649753753277,0.106437709635364,0.000765753065387287,,
42.8589070815792,0.110506113382169,0.000950186175858736,,
43.0528387878306,0.114451193290511,0.00111479957428884,,
43.2467704940821,0.118504995046986,0.00131522713459376,,
43.4407022003336,0.122396332166636,0.00148264880709181,,
43.6346339065851,0.126312464678812,0.00166174272982955,,
43.8285656128366,0.13020097936902,0.00181826356070491,,
44.0224973190881,0.134095465480195,0.00199834557987399,,
44.2164290253396,0.137888250828045,0.00218231353383791,,
44.4103607315911,0.141670212975394,0.00232318950455301,,
44.6042924378426,0.145553129458447,0.00252257696335123,,
44.7982241440941,0.149254080883084,0.00271164430386817,,
44.9921558503455,0.152860819146466,0.00287328763466332,,
45.186087556597,0.156531586904189,0.00303749654917462,,
45.3800192628485,0.160156612644279,0.00321793104718715,,
45.5739509691,0.163740771472133,0.00337617382389022,,
45.7678826753515,0.167512283632792,0.00356491179893004,,
45.961814381603,0.170733492030066,0.00372591662296706,,
46.1557460878545,0.174212801103071,0.00390138174711563,,
46.349677794106,0.177739275071361,0.00403365954537671,,
46.5436095003575,0.181017795114389,0.00421359710600333,,
46.7375412066089,0.184398715696636,0.00437851386737309,,
46.9314729128604,0.187632986577272,0.00454709987572421,,
47.1254046191119,0.190857927112649,0.0047242060489161,,
47.3193363253634,0.194227114785733,0.0048879844769707,,
47.5132680316149,0.197283176071919,0.00501840453837454,,
47.7071997378664,0.200281949038214,0.00519258687066504,,
47.9011314441179,0.203442323584398,0.00536326752788341,,
48.0950631503694,0.206365893967904,0.00551538815155217,,
48.2889948566209,0.209438376661746,0.00567485593669614,,
48.4829265628724,0.212334329223285,0.0058012918314958,,
48.6768582691238,0.215176352389226,0.0059632674169392,,
48.8707899753753,0.217850989161218,0.00614840548509799,,
49.0647216816268,0.220743769405369,0.00628182739501648,,
49.2586533878783,0.223481665918217,0.00643141710501949,,
49.4525850941298,0.226103492936042,0.00657708909934795,,
49.6465168003813,0.228838217131503,0.00672272642362648,,
49.8404485066328,0.231419363843998,0.00685805518630689,,
50.0343802128843,0.233550228094285,0.00700441769246885,,
50.2283119191358,0.236178213139981,0.00713983024110387,,
50.4222436253872,0.238472731646115,0.00729024047562898,,
50.6161753316387,0.241138224679752,0.00742423155220528,,
50.8101070378902,0.2430660606172,0.00753706811980726,,
51.0040387441417,0.245329415770168,0.00767297182748727,,
51.1979704503932,0.247412135438919,0.00783075811519574,,
51.3919021566447,0.249438126608493,0.00795613657346372,,
51.5858338628962,0.251786574510225,0.00809404536571456,,
51.7797655691477,0.253510449100307,0.00821062629874048,,
51.9736972753992,0.255656428509915,0.00832212518023834,,
52.1676289816506,0.257433859281785,0.00848018593917743,,
52.3615606879021,0.259264846235444,0.00857582905104293,,
52.5554923941536,0.26105366002853,0.00871254461573212,,
52.7494241004051,0.26270289185654,0.00880727763877953,,
52.9433558066566,0.264341860304765,0.00893339283561456,,
53.1372875129081,0.26582389234573,0.00903883601500777,,
53.3312192191596,0.267577624040642,0.00913011070054592,,
53.5251509254111,0.268650800352351,0.00924677253035533,,
53.7190826316626,0.270203743017286,0.00935989223670086,,
53.913014337914,0.271606840337359,0.00947270858010718,,
54.1069460441655,0.272779478129531,0.00957493033400114,,
54.300877750417,0.273969283756979,0.00966160257037307,,
54.4948094566685,0.274865929936385,0.0097444062069747,,
54.68874116292,0.276213418398713,0.00988646095939716,,
54.8826728691715,0.27705072358227,0.0099556508229468,,
55.076604575423,0.27804365892475,0.0100635642434184,,
55.2705362816745,0.278880590894497,0.0101395292126147,,
55.464467987926,0.279830606648785,0.0102130383865875,,
55.6583996941775,0.280286487318148,0.0103062343707414,,
55.8523314004289,0.28119955490521,0.0103532700722027,,
56.0462631066804,0.281562505335791,0.0104863135007398,,
56.2401948129319,0.282154795652843,0.0105436317612608,,
56.4341265191834,0.28260041294242,0.0105987455844225,,
56.6280582254349,0.2829560857037,0.0106737022329919,,
56.8219899316864,0.283499671618499,0.0107318207938389,,
57.0159216379379,0.283669857116026,0.0108231879328442,,
57.2098533441894,0.283937638024964,0.0108706512315915,,
57.4037850504409,0.283952193363568,0.0109260395259838,,
57.5977167566924,0.28382194174375,0.0110211308062165,,
57.7916484629438,0.283940063914731,0.011058692916456,,
57.9855801691953,0.283889493443426,0.0110791944728175,,
58.1795118754468,0.283599506312772,0.0111458880927517,,
58.3734435816983,0.283358783405085,0.0112096232017342,,
58.5673752879498,0.283126831021942,0.0112488552527252,,
58.7613069942013,0.282938544654613,0.0113151097186903,,
58.9552387004528,0.282556000498987,0.0113252564867206,,
59.1491704067043,0.281976026237677,0.0113637171290946,,
59.3431021129558,0.281579299957258,0.0114176521705489,,
59.5370338192072,0.28096051145967,0.01144765332067,,
59.7309655254587,0.280330526547771,0.0114454691075063,,
59.9248972317102,0.279359610820103,0.0114945850119805,,
60.1188289379617,0.278765081220189,0.011499045891775,,
60.3127606442132,0.27793673316808,0.0115332536746555,,
60.5066923504647,0.276713711511509,0.0115435737929368,,
60.7006240567162,0.27584897511289,0.0115544804129009,,
60.8945557629677,0.274931615567009,0.0115972083606226,,
61.0884874692192,0.273433162118388,0.011583883504656,,
61.2824191754707,0.272580555168605,0.0116276602213965,,
61.4763508817221,0.271328422834826,0.0116023857547884,,
61.6702825879736,0.270112492240652,0.0115985489358978,,
61.8642142942251,0.268508419283696,0.0115702581749209,,
62.0581460004766,0.267206276299328,0.011584992946263,,
62.2520777067281,0.265744397804122,0.0116065317149601,,
62.4460094129796,0.264095352583017,0.0115613017452811,,
62.6399411192311,0.262651574957615,0.0115778509159181,,
62.8338728254826,0.260879555785994,0.0115531629509928,,
63.0278045317341,0.259111082145573,0.0115305609674223,,
63.2217362379855,0.257309952296744,0.0115173285649228,,
63.415667944237,0.255505276916716,0.0114787061289809,,
63.6095996504885,0.25350839642435,0.0114628590268611,,
63.80353135674,0.251416906231056,0.0114322944884235,,
63.9974630629915,0.249397259696258,0.0114129254870359,,
64.191394769243,0.247104234045366,0.0113721650646639,,
64.3853264754945,0.245064060750998,0.0113309192615891,,
64.579258181746,0.242964733067686,0.011295301563333,,
64.7731898879975,0.240726383240013,0.0112413318518283,,
64.967121594249,0.238280713140681,0.0111838026818347,,
65.1610533005004,0.235792310060062,0.01117506582918,,
65.3549850067519,0.233299241806814,0.0111038882160845,,
65.5489167130034,0.23086178241131,0.0110709401116953,,
65.7428484192549,0.228597680830722,0.0110015422278442,,
65.9367801255064,0.225814625446819,0.0109514642294766,,
66.1307118317579,0.223193358249709,0.010905249052537,,
66.3246435380094,0.220473375999758,0.0108365474588612,,
66.5185752442609,0.217729508065944,0.0107478152436724,,
66.7125069505123,0.21461522542534,0.0107003750582919,,
