Time domain (s),Current (AC) (A),Potential (AC) (V),Frequency (Hz),Column 5
0,0.425768665376297,0.00632426655912566,1995.3,0.5
1.56618052423195E-05,0.428509245258715,0.00638860739463309,,
3.13236104846389E-05,0.414836631047294,0.00616723892561444,,
4.69854157269584E-05,0.385769442211222,0.00575791402237158,,
6.26472209692778E-05,0.34171001391344,0.00510220970876807,,
7.83090262115972E-05,0.284317570401198,0.00422407562693206,,
9.39708314539167E-05,0.216015637814847,0.00321327227412205,,
0.000109632636696236,0.139645450836219,0.00208520737937778,,
0.000125294441938556,0.0580895356927244,0.000887036630581317,,
0.000140956247180875,-0.0245405277052424,-0.000343160281707444,,
0.000156618052423195,-0.108044317367316,-0.00160828046391703,,
0.000172279857665514,-0.188017910660575,-0.00278361267186567,,
0.000187941662907833,-0.260332721096522,-0.00387792722122438,,
0.000203603468150153,-0.3227083760273,-0.00478851336008779,,
0.000219265273392472,-0.372513577924141,-0.00554539658271791,,
0.000234927078634792,-0.40705475464869,-0.0060369309595254,,
0.000250588883877111,-0.426460928966754,-0.00633036301901013,,
0.000266250689119431,-0.429375906159477,-0.00636327188120056,,
0.00028191249436175,-0.415351195423974,-0.00616099305952877,,
0.00029757429960407,-0.38598434997166,-0.00575106881417353,,
0.000313236104846389,-0.341509414401383,-0.00508194541957252,,
0.000328897910088708,-0.28401830433268,-0.00424512129337984,,
0.000344559715331028,-0.2155492528254,-0.00321622433455637,,
0.000360221520573347,-0.138833821660004,-0.00209941298956595,,
0.000375883325815667,-0.0569682021724963,-0.000881395258546469,,
0.000391545131057986,0.0255398328143309,0.000335976762919188,,
0.000407206936300306,0.108484429146335,0.00159105410078908,,
0.000422868741542625,0.188059379727846,0.00278972115293952,,
0.000438530546784945,0.260204266400128,0.00384995563288459,,
0.000454192352027264,0.322136543152754,0.00480621026688111,,
0.000469854157269584,0.371431050645803,0.00550265267101757,,
0.000485515962511903,0.406648585017198,0.00605262891440139,,
0.000501177767754222,0.425750984215765,0.00629978798470265,,
0.000516839572996542,0.428597331522328,0.00638886842615483,,
0.000532501378238861,0.415274328531301,0.00617914333686009,,
0.000548163183481181,0.385631720882501,0.00572614717308939,,
0.0005638249887235,0.341733091733411,0.00508259799837729,,
0.00057948679396582,0.284414213210369,0.00424068204019612,,
0.000595148599208139,0.216185881117557,0.0032132860126235,,
0.000610810404450459,0.139596667875234,0.00206949740331375,,
0.000626472209692778,0.0580758310180954,0.000864845516599821,,
0.000642134014935097,-0.0245183019893933,-0.000340443493104914,,
0.000657795820177417,-0.108109574341327,-0.00159346692505302,,
0.000673457625419736,-0.187979707992438,-0.00277212385027958,,
0.000689119430662056,-0.260450240456682,-0.0038675821298586,,
0.000704781235904375,-0.322501385734328,-0.00475785246014793,,
0.000720443041146695,-0.372056779106066,-0.00552539847698252,,
0.000736104846389014,-0.407375003781212,-0.00603691722102395,,
0.000751766651631334,-0.426385588760633,-0.00631747973955754,,
0.000767428456873653,-0.429131849337198,-0.0063632169271961,,
0.000783090262115973,-0.415431293211443,-0.00616972387700931,,
0.000798752067358292,-0.38624523585035,-0.00574289097136438,,
0.000814413872600611,-0.341571262958906,-0.00506427770709461,,
0.000830075677842931,-0.284083064245953,-0.00425594894959813,,
0.00084573748308525,-0.215493084962024,-0.0032322365576456,,
0.00086139928832757,-0.138857751584097,-0.00207443639447646,,
0.000877061093569889,-0.0570072569447551,-0.000896179603095515,,
0.000892722898812209,0.0255817279336631,0.000339450886397419,,
0.000908384704054528,0.108466463951096,0.00160542457299107,,
0.000924046509296848,0.188076208784256,0.00279808103088897,,
0.000939708314539167,0.260189709621377,0.00385272737549158,,
0.000955370119781486,0.322125110755784,0.00479815263595684,,
0.000971031925023806,0.371669710808643,0.00552804829039211,,
0.000986693730266125,0.406424197598401,0.00603720744686109,,
0.00100235553550844,0.425707633418558,0.00633070991616469,,
0.00101801734075076,0.428809185909663,0.00639004306800306,,
0.00103367914599308,0.415230409664679,0.00616617762640059,,
0.0010493409512354,0.385713238843507,0.00575159431184291,,
0.00106500275647772,0.341831438750827,0.00508055439633148,,
0.00108066456172004,0.284397100119252,0.00423226720824221,,
0.00109632636696236,0.216101771339847,0.00322353493448091,,
0.00111198817220468,0.139727004301564,0.00209131757776415,,
0.001127649977447,0.0580330837946412,0.000876169476172084,,
0.00114331178268932,-0.024447293312559,-0.000360896686690815,,
0.00115897358793164,-0.108075916228508,-0.00159572862580459,,
0.00117463539317396,-0.187996253014141,-0.00279457599578281,,
0.00119029719841628,-0.260546315196439,-0.00387727979435759,,
0.0012059590036586,-0.32258837136345,-0.00477081645329491,,
0.00122162080890092,-0.372346210472843,-0.00552672252503061,,
0.00123728261414324,-0.40699148591763,-0.00605109535421011,,
0.00125294441938556,-0.426349658370155,-0.00634514736355962,,
0.00126860622462788,-0.429204278187569,-0.00636010000474796,,
0.00128426802987019,-0.415656248699654,-0.00615971022698414,,
0.00129992983511251,-0.386110603399072,-0.00572809117100137,,
0.00131559164035483,-0.341389338728857,-0.00508637265156775,,
0.00133125344559715,-0.283994658443294,-0.0042511078452554,,
0.00134691525083947,-0.215362784040033,-0.00323062228376081,,
0.00136257705608179,-0.13879845933894,-0.00210322027169685,,
0.00137823886132411,-0.0570169141248046,-0.000877381898897855,,
0.00139390066656643,0.0255092990832922,0.000363132627753338,,
0.00140956247180875,0.108544289460906,0.00157650502807183,,
0.00142522427705107,0.188045142488141,0.00277232821048479,,
0.00144088608229339,0.260279251562865,0.00387167963782709,,
0.00145654788753571,0.322219516791635,0.00479334072592952,,
0.00147220969277803,0.371388551952717,0.00553482137145878,,
0.00148787149802035,0.406428174084304,0.00602760766918342,,
0.00150353330326267,0.425912635468578,0.00634665344674845,,
0.00151919510850499,0.428820618306633,0.00635803236032517,,
0.00153485691374731,0.415226433178776,0.00617770766349013,,
0.00155051871898963,0.385727795622258,0.00574248912020625,,
0.00156618052423195,0.341701137828836,0.00509342393728307,,
0.00158184232947426,0.284374874403403,0.00424294202363518,,
0.00159750413471658,0.216105463791043,0.00322378222750119,,
0.0016131659399589,0.139533363639837,0.0020940893203707,,
0.00162882774520122,0.0579905851015559,0.000863962817900799,,
0.00164448955044354,-0.0245795824775013,-0.000324431270015246,,
0.00166015135568586,-0.108066259048458,-0.00160706632387786,,
0.00167581316092818,-0.188071522211585,-0.00278630198346574,,
0.0016914749661705,-0.260419422690936,-0.00385654839612304,,
0.00170713677141282,-0.322518782860153,-0.00479085920915878,,
0.00172279857665514,-0.372030292869607,-0.00551451586675977,,
0.00173846038189746,-0.40727118909568,-0.00604029517499427,,
0.00175412218713978,-0.426936261049483,-0.00631559069564958,,
0.0017697839923821,-0.429235948057437,-0.00637238909402571,,
0.00178544579762442,-0.415787188699736,-0.0061671444734186,,
0.00180110760286674,-0.386023972813334,-0.00573051945107972,,
0.00181676940810906,-0.341429529639945,-0.00506287122803917,,
0.00183243121335138,-0.283987841610318,-0.00422930140930644,,
0.0018480930185937,-0.215435212890404,-0.00323045742174699,,
0.00186375482383601,-0.138734835564497,-0.00208181568690602,,
0.00187941662907833,-0.0570260742441162,-0.000880057471996931,,
0.00189507843432065,0.0255224356885065,0.000332224434792749,,
0.00191074023956297,0.108454179450004,0.00159053203774517,,
0.00192640204480529,0.188126979988193,0.00278028623727522,,
0.00194206385004761,0.260145542224387,0.00385362381269161,,
0.00195772565528993,0.322337000647457,0.00477154802848112,,
0.00197338746053225,0.371544522511384,0.00551501045280123,,
0.00198904926577457,0.40645899185005,0.00603147162263129,,
0.00200471107101689,0.425639216558428,0.00633215589341063,,
0.00202037287625921,0.428428792427862,0.00637978040764464,,
0.00203603468150153,0.415093824474788,0.00617544768005107,,
0.00205169648674385,0.386056565796001,0.00573180056631228,,
0.00206735829198617,0.341793804152105,0.00507025052046961,,
0.00208302009722849,0.284358045346993,0.00422655886101486,,
0.00209868190247081,0.216102907478676,0.00321982210454497,,
0.00211434370771313,0.1396117927234,0.00207749664560763,,
0.00213000551295545,0.0580607416742681,0.00088501020166154,,
0.00214566731819776,-0.0245116981824477,-0.000329754939210947,,
0.00216132912344008,-0.108145220697098,-0.00161565803903452,,
0.0021769909286824,-0.1880963042398,-0.00279348721956696,,
0.00219265273392472,-0.260534598764761,-0.00386675438516448,,
0.00220831453916704,-0.322739193793046,-0.00478287198805338,,
0.00222397634440936,-0.372146889116969,-0.00550131660178055,,
0.00223963814965168,-0.407133716297329,-0.00602106985994855,,
0.002255299954894,-0.426557287741218,-0.00633574164221029,,
0.00227096176013632,-0.429397563805912,-0.00639473133152002,,
0.00228662356537864,-0.415570470218038,-0.0061795297322047,,
0.00230228537062096,-0.386215554223433,-0.00573486253475552,,
0.00231794717586328,-0.341565014195345,-0.00508709048825295,,
0.0023336089811056,-0.283925638009411,-0.00425088631192461,,
0.00234927078634792,-0.215475971870907,-0.00319756229805757,,
0.00236493259159024,-0.138857183514682,-0.00209224149196574,,
0.00238059439683256,-0.0570115174653652,-0.000883890513817764,,
0.00239625620207488,0.0255703310410312,0.000355492303801608,,
0.0024119180073172,0.108475872600777,0.00156273904992021,,
0.00242757981255951,0.188154921902527,0.00277911503005246,,
0.00244324161780183,0.2603502602397,0.00387993991164315,,
0.00245890342304415,0.322061842024724,0.00477222464966287,,
0.00247456522828647,0.371181810190114,0.00551574202798744,,
0.00249022703352879,0.406328371389013,0.00604458502197858,,
0.00250588883877111,0.425867864497834,0.0063325577445692,,
0.00252155064401343,0.428508073615547,0.00639015297601242,,
0.00253721244925575,0.415138595445532,0.00616313111377043,,
0.00255287425449807,0.385764294082151,0.00574279480185691,,
0.00256853605974039,0.341531782134586,0.0050820038082029,,
0.00258419786498271,0.284267367266676,0.0042352209859895,,
0.00259985967022503,0.216272831242341,0.00320782495841643,,
0.00261552147546735,0.139532511535715,0.00208814398399859,,
0.00263118328070967,0.0579994256818218,0.000873933535110005,,
0.00264684508595199,-0.0244866321195252,-0.000364813876831072,,
0.00266250689119431,-0.108115255035474,-0.00160070711515869,,
0.00267816869643663,-0.188111713122673,-0.00279125299581739,,
0.00269383050167895,-0.260530054209444,-0.00385009301789552,,
0.00270949230692126,-0.322773704009988,-0.00479710679255652,,
0.00272515411216358,-0.37194813583051,-0.00552502582013892,,
0.0027408159174059,-0.407032812967548,-0.00605041873302881,,
0.00275647772264822,-0.426300094313725,-0.00632847225778965,,
0.00277213952789054,-0.429524740346122,-0.00638790501376141,,
0.00278780133313286,-0.415863310001302,-0.00619453561008498,,
0.00280346313837518,-0.385974337748227,-0.00575664149370247,,
0.0028191249436175,-0.341444086418696,-0.00509124123291249,,
0.00283478674885982,-0.283963272608133,-0.0042349977353453,,
0.00285044855410214,-0.215672736914415,-0.00322831936750578,,
0.00286611035934446,-0.138789015184921,-0.00209388324285342,,
0.00288177216458678,-0.0570534125846974,-0.000890565708063562,,
0.0028974339698291,0.0255520818110848,0.000315494375018321,,
0.00291309577507142,0.108516631581279,0.00160343935957519,,
0.00292875758031374,0.188047698800507,0.00278703184133944,,
0.00294441938555606,0.260342555798263,0.00385369250519707,,
0.00296008119079838,0.321991401417305,0.00477516125428368,,
0.0029757429960407,0.37156816840077,0.00551578324349089,,
0.00299140480128301,0.406417025722041,0.00604186823337605,,
0.00300706660652533,0.42570848552268,0.00633474903550235,,
0.00302272841176765,0.428823174618999,0.00636190661764946,,
0.00303839021700997,0.41525863561372,0.0061872937026668,,
0.00305405202225229,0.385981012563849,0.0057395799925879,,
0.00306971382749461,0.341622744249611,0.00509062471767407,,
0.00308537563273693,0.284510039419757,0.00424859885148354,,
0.00310103743797925,0.216057000369103,0.00321797427614046,,
0.00311669924322157,0.139573590055263,0.00207177455987928,,
0.00313236104846389,0.0579891649280192,0.000889616034172036,,
0.00314802285370621,-0.024535131045803,-0.000351255693509245,,
0.00316368465894853,-0.108078756575581,-0.00162981041253074,,
0.00317934646419085,-0.188005058090068,-0.00279668657302201,,
0.00319500826943317,-0.260355301855755,-0.00386384354023361,,
0.00321067007467549,-0.322645675365656,-0.00479141046651765,,
0.00322633187991781,-0.37193535426868,-0.0055297844934743,,
0.00324199368516013,-0.407384376926554,-0.0060351793006288,,
0.00325765549040245,-0.426602875311746,-0.00632550817616639,,
0.00327331729564477,-0.429550161452429,-0.00636796186203048,,
0.00328897910088708,-0.415842220424283,-0.00615296634023244,,
0.0033046409061294,-0.386076448225515,-0.0057518965588681,,
0.00332030271137172,-0.341625726614038,-0.00507200046205325,,
0.00333596451661404,-0.283904832467099,-0.00422788119174999,,
0.00335162632185636,-0.215468871003223,-0.00323637356380457,,
0.00336728812709868,-0.138800731616599,-0.00209818682833829,,
0.003382949932341,-0.0570163460553899,-0.0008851733463624,,
0.00339861173758332,0.0255489574293041,0.000344844965411095,,
0.00341427354282564,0.108476156635484,0.00158635209877067,,
0.00342993534806796,0.188034881734339,0.00279583135132588,,
0.00344559715331028,0.26035338462148,0.00384402403501349,,
0.0034612589585526,0.322053818044242,0.0047946767951661,,
0.00347692076379492,0.371672835190423,0.00552084588116442,,
0.00349258256903724,0.406503727316456,0.00605581281204293,,
0.00350824437427956,0.425699360907707,0.00635141040277132,,
0.00352390617952188,0.428799209190568,0.00639376620181453,,
0.0035395679847642,0.415152584154868,0.00615499448646473,,
0.00355522979000652,0.385761737769785,0.00573700058899718,,
0.00357089159524883,0.341794372221519,0.00510426361468985,,
0.00358655340049115,0.284335216057391,0.00424171586240751,,
0.00360221520573347,0.216061544924421,0.00321983584304641,,
0.00361787701097579,0.139703606942547,0.00208802033748823,,
0.00363353881621811,0.0580495933120052,0.000864459121254768,,
0.00364920062146043,-0.0244803833559638,-0.000339492101900429,,
0.00366486242670275,-0.108085360382527,-0.00162236071028232,,
0.00368052423194507,-0.188014786278795,-0.00278827345838062,,
0.00369618603718739,-0.26041374199679,-0.00385130715793469,,
0.00371184784242971,-0.322726909291954,-0.00478535522213619,,
0.00372750964767203,-0.372176286709178,-0.00552291524289972,,
0.00374317145291435,-0.407383240787725,-0.00604715068706785,,
0.00375883325815667,-0.426582921873555,-0.00634270706229279,,
0.00377449506339899,-0.429433210161683,-0.00637005870076823,,
0.00379015686864131,-0.415498325402374,-0.00617438466352427,,
0.00380581867388363,-0.386106626913169,-0.00573936017656917,,
0.00382148047912595,-0.341675645713852,-0.00508135294671064,,
0.00383714228436827,-0.284042021230742,-0.00425229279097961,,
0.00385280408961058,-0.215440609549843,-0.00321310741210823,,
0.0038684658948529,-0.138872876432263,-0.00208479350703028,,
0.00388412770009522,-0.0571096514567501,-0.000875959964029338,,
0.00389978950533754,0.0255355367893824,0.000335810183592855,,
0.00391545131057986,0.108382638208093,0.00159872361905533,,
0.00393111311582218,0.188115015026146,0.00276631761623181,,
0.0039467749210645,0.26032917066268,0.00385436912637882,,
0.00396243672630682,0.322336148543335,0.00479111852336844,,
0.00397809853154914,0.371490626925667,0.00552548262530239,,
0.00399376033679146,0.406275860472495,0.00601836852716042,,
0.00400942214203378,0.425669111211375,0.00633303859210921,,
0.0040250839472761,0.428791220714424,0.00639295219562142,,
0.00404074575251842,0.415058178119017,0.00618239936163256,,
0.00405640755776074,0.385995001273186,0.00575777663736021,,
0.00407206936300306,0.341407161906742,0.00509128416572935,,
0.00408773116824538,0.284198666371839,0.00423791029758913,,
0.0041033929734877,0.216213254962477,0.00322595977993378,,
0.00411905477873002,0.139627201606273,0.00207811831278493,,
0.00413471658397234,0.0580615937783902,0.000867189648358302,,
0.00415037838921465,-0.0245108460783257,-0.000354635364792077,,
0.00416604019445697,-0.108111562584278,-0.00160414174044599,,
0.00418170199969929,-0.187910119489141,-0.00280347339258968,,
0.00419736380494161,-0.260431707192029,-0.00385286476050251,,
0.00421302561018393,-0.322718672285441,-0.00478604558181894,,
0.00422868741542625,-0.372259295852397,-0.00552728752089049,,
0.00424434922066857,-0.407117242284304,-0.00602981441593009,,
0.00426001102591089,-0.426484290821433,-0.00631687352819421,,
0.00427567283115321,-0.429129861094247,-0.00638029216681213,,
0.00429133463639553,-0.415682237875375,-0.00618755645150104,,
0.00430699644163785,-0.385905885383759,-0.00572158083876939,,
0.00432265824688017,-0.341680758338584,-0.00508875799883013,,
0.00433832005212249,-0.284051394376084,-0.00424117662623713,,
0.00435398185736481,-0.215495357239683,-0.00322131273191939,,
0.00436964366260713,-0.13891960014162,-0.00210571724428066,,
0.00438530546784945,-0.0570100972918285,-0.000866622935185468,,
0.00440096727309177,0.0255070268056335,0.000362801186413186,,
0.00441662907833408,0.108489825805775,0.0015949455312394,,
0.0044322908835764,0.188086185503351,0.0027900233999647,,
0.00444795268881872,0.260144654615926,0.00384950226234659,,
0.00446361449406104,0.322177586167964,0.00479678908971781,,
0.00447927629930336,0.371460377229335,0.00550341172320623,,
0.00449493810454568,0.406350916643908,0.00602709934464052,,
0.004510599909788,0.425626648022628,0.00634683204726327,,
0.00452626171503032,0.428954043610405,0.00640126742344194,,
0.00454192352027264,0.41489482265796,0.00616857842947649,,
0.00455758532551496,0.386088803735284,0.00575287886170051,,
0.00457324713075728,0.341491591223498,0.00507778265372449,,
0.0045889089359996,0.284157871886997,0.00425550931756158,,
0.00460457074124192,0.216120588639208,0.00321593410871968,,
0.00462023254648424,0.139615485174595,0.00209324783717557,,
0.00463589435172656,0.058051617059295,0.000878278336098326,,
0.00465155615696888,-0.0244692349937008,-0.000345174689438288,,
0.0046672179622112,-0.108111846618986,-0.00158779807601617,,
0.00468287976745352,-0.18799021727661,-0.00277202596345871,,
0.00469854157269583,-0.260467921617214,-0.00387009112363135,,
0.00471420337793815,-0.322538736298343,-0.00477850142737513,,
0.00472986518318047,-0.37207105185011,-0.00551869580573428,,
0.00474552698842279,-0.407084436275606,-0.00604549519767916,,
0.00476118879366511,-0.426721246776029,-0.00630824059753454,,
0.00477685059890743,-0.429411268480541,-0.00635679074328355,,
0.00479251240414975,-0.415588435413277,-0.00617816446865271,,
0.00480817420939207,-0.386123740004286,-0.00574144155949341,,
0.00482383601463439,-0.341688995345097,-0.00506502302078182,,
0.00483949781987671,-0.283932525851064,-0.00423400512863736,,
0.00485515962511903,-0.215587171458829,-0.00322280335929426,,
0.00487082143036135,-0.138784186594897,-0.00207799466627412,,
0.00488648323560367,-0.0570383587452085,-0.000889241660015028,,
0.00490214504084599,0.0255517977763775,0.00034087282126638,,
0.00491780684608831,0.10846302003027,0.00157676605959356,,
0.00493346865133063,0.1881272640229,0.00277628833344101,,
0.00494913045657295,0.260291820098665,0.00384737622929388,,
0.00496479226181527,0.322063830267676,0.00477940988576409,,
0.00498045406705758,0.371518852874708,0.00553162030069076,,
0.0049961158722999,0.406524816893475,0.00604637789637863,,
0.00501177767754222,0.425853343223422,0.00631108103264744,,
0.00502743948278454,0.428472462764115,0.00637329926972763,,
0.00504310128802686,0.415100108742688,0.00616892189200513,,
0.00505876309326918,0.385807076809944,0.00575071504776936,,
0.0050744248985115,0.341692048718201,0.00510153308758632,,
0.00509008670375382,0.284499459126908,0.00424152352339169,,
