Time domain (s),Current (AC) (A),Potential (AC) (V),Frequency (Hz),Column 5
0,-0.361144023632824,-0.0064404879798583,63.096,0.5
0.000236030463500063,-0.385705711923763,-0.0070024359795422,,
0.000472060927000127,-0.406564084691765,-0.00751292627609601,,
0.00070809139050019,-0.42436177046218,-0.00799588878878588,,
0.000944121854000254,-0.438046775687708,-0.00838267571179685,,
0.00118015231750032,-0.448324074511961,-0.00870368213482564,,
0.00141618278100038,-0.454410299212102,-0.00894704059762264,,
0.00165221324450044,-0.456684281079042,-0.00912245984167903,,
0.00188824370800051,-0.454791473789348,-0.00919088243764854,,
0.00212427417150057,-0.449303710217566,-0.00919187116379749,,
0.00236030463500063,-0.439031239983339,-0.00914065514928142,,
0.0025963350985007,-0.425674010810077,-0.0089746809864093,,
0.00283236556200076,-0.408095315799019,-0.00872240201657926,,
0.00306839602550082,-0.387041527152369,-0.00846790390583729,,
0.00330442648900089,-0.363108691703474,-0.00804664339776551,,
0.00354045695250095,-0.335760267890175,-0.00760024178089491,,
0.00377648741600101,-0.305538904020838,-0.00709238808740542,,
0.00401251787950108,-0.272389213327533,-0.00653338704093764,,
0.00424854834300114,-0.236905325409333,-0.00584591476372021,,
0.0044845788065012,-0.199320645786991,-0.00516668187107738,,
0.00472060927000127,-0.160219930914238,-0.00443757049068116,,
0.00495663973350133,-0.119616033361581,-0.003648567023812,,
0.0051926701970014,-0.0778066925109847,-0.00285070896498629,,
0.00542870066050146,-0.0353923577337609,-0.00201255482266749,,
0.00566473112400152,0.00734861695690043,-0.00117675165141407,,
0.00590076158750159,0.0498899152483039,-0.000300388736361068,,
0.00613679205100165,0.0922037017391303,0.000556155712328366,,
0.00637282251450171,0.133755707144879,0.00143042582369901,,
0.00660885297800178,0.173942641747166,0.00225243626517457,,
0.00684488344150184,0.212587267888612,0.00308386706968022,,
0.0070809139050019,0.249503258801206,0.00389572109643677,,
0.00731694436850197,0.284210879864254,0.00465358518253689,,
0.00755297483200203,0.316009701489464,0.00537349317036329,,
0.00778900529550209,0.345243973742127,0.00603552222801396,,
0.00802503575900216,0.3717222572295,0.00666758189750549,,
0.00826106622250222,0.394548990519348,0.00725773605705005,,
0.00849709668600228,0.414066151399304,0.00770102593301258,,
0.00873312714950235,0.430287657570029,0.00818228838601875,,
0.00896915761300241,0.442314823217508,0.00852706818000648,,
0.00920518807650247,0.450673964654437,0.00882104942163053,,
0.00944121854000254,0.455043270557402,0.00903934367655168,,
0.0096772490035026,0.455730066479743,0.00916671357622967,,
0.00991327946700266,0.452201787345203,0.00921882493720272,,
0.0101493099305027,0.445059734629213,0.00917831462971064,,
0.0103853403940028,0.433370570283465,0.00909890893410337,,
0.0106213708575029,0.418620931966161,0.00888439381024053,,
0.0108574013210029,0.399739440761224,0.00861176905343397,,
0.011093431784503,0.377422833805754,0.00827105402250305,,
0.011329462248003,0.351888113616155,0.00786938951741112,,
0.0115654927115031,0.32317021646143,0.00739510856960157,,
0.0118015231750032,0.292018425899534,0.00684148784126126,,
0.0120375536385032,0.257881146528819,0.00623878784547083,,
0.0122735841020033,0.221670413794543,0.00558009299211149,,
0.0125096145655034,0.183443602707589,0.00487563659682433,,
0.0127456450290034,0.143448675567462,0.00411383408489741,,
0.0129816754925035,0.102315372824667,0.00330007401384247,,
0.0132177059560036,0.060199523020516,0.00249759640673197,,
0.0134537364195036,0.0176414666813797,0.0016480169844697,,
0.0136897668830037,-0.0250270791589107,0.00077189575803116,,
0.0139257973465037,-0.0675347903461716,-8.36599645093195E-05,,
0.0141618278100038,-0.109727151999611,-0.000935941904911974,,
0.0143978582735039,-0.150758450778134,-0.00179516690004977,,
0.0146338887370039,-0.190405151367066,-0.0026202039421257,,
0.014869919200504,-0.228465802150228,-0.00344306304021247,,
0.0151059496640041,-0.264370629504702,-0.00422391775573727,,
0.0153419801275041,-0.297916051554004,-0.00495726692626652,,
0.0155780105910042,-0.328958133710191,-0.00568758125681068,,
0.0158140410545042,-0.357225835853786,-0.00631283244818137,,
0.0160500715180043,-0.382270241129845,-0.00694570232382263,,
0.0162861019815044,-0.403995558833316,-0.0074876148866827,,
0.0165221324450044,-0.422213544961913,-0.00792333276822133,,
0.0167581629085045,-0.436276387356877,-0.00834163259076925,,
0.0169941933720046,-0.446866408393907,-0.0086804388309405,,
0.0172302238355046,-0.453676921597758,-0.00892118266236608,,
0.0174662542990047,-0.456234938172035,-0.00909158961413903,,
0.0177022847625048,-0.455202116967481,-0.00922232118272381,,
0.0179383152260048,-0.450064000120431,-0.00921410376984122,,
0.0181743456895049,-0.44084671882396,-0.00914291823357782,,
0.0184103761530049,-0.427729498978398,-0.00899566395245932,,
0.018646406616505,-0.411223390030921,-0.0087692703825013,,
0.0188824370800051,-0.390720912751213,-0.00847537428118494,,
0.0191184675435051,-0.366979871738447,-0.00811857597156385,,
0.0193544980070052,-0.34010848421612,-0.00765407242678284,,
0.0195905284705053,-0.310158728535675,-0.00715926991845928,,
0.0198265589340053,-0.277536774328602,-0.00659090893111491,,
0.0200625893975054,-0.242383218775035,-0.00597227396555722,,
0.0202986198610055,-0.205043448079095,-0.00527115452102267,,
0.0205346503245055,-0.16595913621069,-0.00453127975791023,,
0.0207706807880056,-0.125642610773181,-0.0037791447905513,,
0.0210067112515056,-0.0840918125149384,-0.00298544212801266,,
0.0212427417150057,-0.0416456658504929,-0.00214638165339087,,
0.0214787721785058,0.00108142664384732,-0.00130456098493648,,
0.0217148026420058,0.0436064639482557,-0.000449686384853987,,
0.0219508331055059,0.0860338998263554,0.000432389170170744,,
0.022186863569006,0.127670263540183,0.00129620624897786,,
0.022422894032506,0.168158594471293,0.00213130632608083,,
0.0226589244960061,0.207205981827743,0.00296622513672329,,
0.0228949549595062,0.244277020186205,0.00376896640414026,,
0.0231309854230062,0.27914171244241,0.00452255150318459,,
0.0233670158865063,0.311626477885839,0.00524627707253078,,
0.0236030463500063,0.34155862341443,0.00593405695343874,,
0.0238390768135064,0.36796248980848,0.00655220854176797,,
0.0240751072770065,0.391519192296183,0.00716464749012546,,
0.0243111377405065,0.411618056256766,0.00766116379044046,,
0.0245471682040066,0.427887564293031,0.00813254447487965,,
0.0247831986675067,0.440734170071178,0.00846561335692586,,
0.0250192291310067,0.449862761530282,0.00877541421693318,,
0.0252552595945068,0.454574329255589,0.00901207680653249,,
0.0254912900580068,0.456064943399694,0.00914190204281384,,
0.0257273205215069,0.452757359232754,0.00923410075620446,,
0.025963350985007,0.445899909293516,0.00920035223698656,,
0.026199381448507,0.435371878831362,0.00908982913230183,,
0.0264354119120071,0.420847480036976,0.00892433834665862,,
0.0266714423755072,0.402554508745642,0.00867056530175914,,
0.0269074728390072,0.380807959447797,0.00833696909909998,,
0.0271435033025073,0.35560896828227,0.00794385158227406,,
0.0273795337660074,0.327657680802648,0.00744930724133397,,
0.0276155642295074,0.296709543125913,0.00691975100887454,,
0.0278515946930075,0.263094319547283,0.00632931121733105,,
0.0280876251565075,0.227198297268736,0.00565905925387478,,
0.0283236556200076,0.189039086442129,0.00496110647947878,,
0.0285596860835077,0.14944748858642,0.00420778504074049,,
0.0287957165470077,0.108405893549756,0.00341095965144822,,
0.0290317470105078,0.0664497422598057,0.00260947626340968,,
0.0292677774740079,0.0239427766636516,0.00178566963609716,,
0.0295038079375079,-0.0187670252178795,0.00091840300161472,,
0.029739838401008,-0.0611875377499878,6.71317590530407E-05,,
0.0299758688645081,-0.103537680683353,-0.000799827271738884,,
0.0302118993280081,-0.144980332726777,-0.00165806354072728,,
0.0304479297915082,-0.18477167799042,-0.00252036731923466,,
0.0306839602550082,-0.223025685400602,-0.00333445971213386,,
0.0309199907185083,-0.259078565846275,-0.00414211714568014,,
0.0311560211820084,-0.293157476084633,-0.00487864946511651,,
0.0313920516455084,-0.324603597612007,-0.00556737687525066,,
0.0316280821090085,-0.353322701914238,-0.00623252591319368,,
0.0318641125725086,-0.378768448231763,-0.00685346790643226,,
0.0321001430360086,-0.400835104644777,-0.00738964311116685,,
0.0323361734995087,-0.419604331131638,-0.00786119682268227,,
0.0325722039630088,-0.4345236091779,-0.00827760707970082,,
0.0328082344265088,-0.445910560595041,-0.00860305178455389,,
0.0330442648900089,-0.452715464113422,-0.00888699196284248,,
0.0332802953535089,-0.456568394918449,-0.00908357269294813,,
0.033516325817009,-0.455523928290894,-0.00920920682894222,,
0.0337523562805091,-0.451418845674428,-0.00924708602629343,,
0.0339883867440091,-0.442605887783852,-0.00916376936947483,,
0.0342244172075092,-0.429762335378809,-0.00904764897620236,,
0.0344604476710093,-0.413874569989205,-0.00884513863566516,,
0.0346964781345093,-0.393962316831343,-0.00853618917873034,,
0.0349325085980094,-0.370503322282963,-0.00819503746041672,,
0.0351685390615094,-0.343869671810677,-0.00774426622326008,,
0.0354045695250095,-0.314608984330231,-0.00725219095123064,,
0.0356405999885096,-0.282313670036596,-0.00668705430971661,,
0.0358766304520096,-0.247556058865057,-0.00606696921247352,,
0.0361126609155097,-0.21070766821281,-0.00536802771192857,,
0.0363486913790098,-0.171934090314232,-0.00467117352214208,,
0.0365847218425098,-0.13163467796784,-0.0039015490877925,,
0.0368207523060099,-0.0902161688745395,-0.00309885725668302,,
0.03705678276951,-0.0479338392275506,-0.00226384506634858,,
0.03729281323301,-0.00521622639156769,-0.00144588290916081,,
0.0375288436965101,0.037395228472548,-0.000595007157058625,,
0.0377648741600101,0.0797837160914041,0.00029324244347384,,
0.0380009046235102,0.121619223639413,0.00113717514084088,,
0.0382369350870103,0.162234163041319,0.00200242037964093,,
0.0384729655505103,0.201508210094224,0.0028324889392306,,
0.0387089960140104,0.238800262959332,0.00364199199492177,,
0.0389450264775105,0.274214278339527,0.00443877344082955,,
0.0391810569410105,0.306851570420796,0.00518361380637877,,
0.0394170874045106,0.337208631871563,0.00587025115929274,,
0.0396531178680107,0.364197609762727,0.0065157135610252,,
0.0398891483315107,0.388203939192146,0.00708894951757655,,
0.0401251787950108,0.408927963543577,0.00761375437159773,,
0.0403612092585108,0.425940790408943,0.00808906249601771,,
0.0405972397220109,0.439181068291459,0.00843029935463901,,
0.040833270185511,0.44872065797208,0.00876480188960072,,
0.041069300649011,0.454080676934237,0.00898933610510655,,
0.0413053311125111,0.455669283052373,0.00912672509642753,,
0.0415413615760112,0.453533058018491,0.00920805880802522,,
0.0417773920395112,0.44734053332913,0.00921370553292045,,
0.0420134225030113,0.437202482520149,0.00910429199869212,,
0.0422494529665114,0.423177416741261,0.0089525060560578,,
0.0424854834300114,0.405474669571774,0.00871310249785662,,
0.0427215138935115,0.384345895762387,0.0083932825462063,,
0.0429575443570115,0.359732300128682,0.00800730582934506,,
0.0431935748205116,0.331998015165465,0.0075359635953669,,
0.0434296052840117,0.301268584213379,0.00700730270936489,,
0.0436656357475117,0.268250401589572,0.00640471806495846,,
0.0439016662110118,0.232544434034572,0.00578240833388044,,
0.0441376966745119,0.19485838952605,0.00507296436446403,,
0.0443737271380119,0.155254294143219,0.00431864870665422,,
0.044609757601512,0.114599554377948,0.00354250417264446,,
0.044845788065012,0.0726467760001466,0.00272829917482253,,
0.0450818185285121,0.0302586079203362,0.00191506093145755,,
0.0453178489920122,-0.0124854556477674,0.00106108717075548,,
0.0455538794555122,-0.0548936126701066,0.000189121340604004,,
0.0457899099190123,-0.0973871931306774,-0.000663580808412334,,
0.0460259403825124,-0.138775878579707,-0.00153097927304779,,
0.0462619708460124,-0.17888328346394,-0.0023752195741058,,
0.0464980013095125,-0.217449516026161,-0.00321860297916787,,
0.0467340317730126,-0.254154966211941,-0.00399007303566234,,
0.0469700622365126,-0.288330377242117,-0.00476701404351454,,
0.0472060927000127,-0.320256730450921,-0.00548135770029123,,
0.0474421231635127,-0.349009492865971,-0.00616311733753694,,
0.0476781536270128,-0.375047309530941,-0.00672763877166993,,
0.0479141840905129,-0.3980370787428,-0.00730368985128393,,
0.0481502145540129,-0.416984750034546,-0.00779695434115357,,
0.048386245017513,-0.432217886432415,-0.00822485304673082,,
0.0486222754810131,-0.444382737904275,-0.00857301373485608,,
0.0488583059445131,-0.452318099557857,-0.00884388624920973,,
0.0490943364080132,-0.456184877054867,-0.00905709680384792,,
0.0493303668715133,-0.455873361989595,-0.00917930335585959,,
0.0495663973350133,-0.452002252963299,-0.00920786655571826,,
0.0498024277985134,-0.44420095569158,-0.00919050891888107,,
0.0500384582620134,-0.431945994208816,-0.00906674237672345,,
0.0502744887255135,-0.416449060576508,-0.008833051458494,,
0.0505105191890136,-0.397158275358299,-0.00857521365053771,,
0.0507465496525136,-0.374181571742978,-0.00825137287921507,,
0.0509825801160137,-0.348196088472835,-0.00780455654665468,,
0.0512186105795138,-0.319302373834268,-0.00732924567577298,,
0.0514546410430138,-0.287293366525629,-0.00676468029825594,,
0.0516906715065139,-0.252703051796711,-0.00615863511232817,,
0.051926701970014,-0.216290370385519,-0.00548770751933692,,
0.052162732433514,-0.177807644027254,-0.00476081802631434,,
0.0523987628970141,-0.137691150032387,-0.00401153937894083,,
0.0526347933605141,-0.0964720333036375,-0.00318340432826503,,
0.0528708238240142,-0.0542179651100287,-0.00239785316353247,,
0.0531068542875143,-0.0115638340311356,-0.00156701284825456,,
0.0533428847510143,0.0311041437397401,-0.000707568136194769,,
0.0535789152145144,0.0735423374323802,0.00016262073335005,,
0.0538149456780145,0.115482050213644,0.00101846208788903,,
0.0540509761415145,0.156399522083201,0.00187358386950853,,
0.0542870066050146,0.195786650453966,0.00273645067262818,,
0.0545230370685146,0.23361464130748,0.00351218323740943,,
0.0547590675320147,0.269126613157368,0.00430380133565045,,
0.0549950979955148,0.302208739094665,0.0050505752101131,,
0.0552311284590148,0.33265129499234,0.00574002493962844,,
0.0554671589225149,0.360622180866769,0.0064159455996724,,
0.055703189386015,0.384938392161892,0.00701407548348509,,
0.055939219849515,0.405841358378946,0.00757833051084988,,
0.0561752503130151,0.423770481210181,0.00801152439424735,,
0.0564112807765152,0.437446184299044,0.00838554301762917,,
0.0566473112400152,0.447796409034406,0.00872443989103111,,
0.0568833417035153,0.453783008560948,0.00897073706765994,,
0.0571193721670153,0.45594479671849,0.00913265745332126,,
0.0573554026305154,0.454295691207691,0.00919896252745511,,
0.0575914330940155,0.448541148037043,0.00920639445234128,,
0.0578274635575155,0.438854428378021,0.00910692310883299,,
0.0580634940210156,0.425282397957336,0.00899130806448145,,
0.0582995244845157,0.408050296297906,0.00874913607306294,,
0.0585355549480157,0.387584459495444,0.00844869515393265,,
0.0587715854115158,0.363404584859842,0.00807946086652667,,
0.0590076158750159,0.336168780808002,0.00761144734391683,,
0.0592436463385159,0.306196302350969,0.00708332476437334,,
0.059479676802016,0.272991792959149,0.00651323075980681,,
0.059715707265516,0.237803265632241,0.00587591985587999,,
0.0599517377290161,0.200577996427695,0.00517148543228485,,
0.0601877681925162,0.161277534147008,0.00444329411649935,,
0.0604237986560162,0.120678465184375,0.00366148088590235,,
0.0606598291195163,0.0789245111017096,0.00285270289605366,,
0.0608958595830164,0.0365172416878308,0.0020257817813718,,
0.0611318900465164,-0.00615410899519456,0.0011834035812277,,
0.0613679205100165,-0.0487035732844339,0.000310775853848533,,
0.0616039509735166,-0.0911933192764557,-0.000551173631121671,,
0.0618399814370166,-0.132730767903453,-0.00142397438557662,,
0.0620760119005167,-0.173121071356193,-0.00224965135318822,,
0.0623120423640167,-0.211990937020558,-0.00309407017424501,,
0.0625480728275168,-0.248580856089129,-0.00388669622386573,,
0.0627841032910169,-0.283461170254238,-0.00467121746552657,,
0.0630201337545169,-0.31556589725925,-0.00538237522693441,,
0.063256164218017,-0.345125105217107,-0.00603062803357624,,
0.0634921946815171,-0.371550274214207,-0.00668980077124148,,
0.0637282251450171,-0.394450572493255,-0.00721143071573982,,
0.0639642556085172,-0.414585792896377,-0.00776874268836991,,
0.0642002860720172,-0.430310238329262,-0.00820600133482419,,
0.0644363165355173,-0.442735336601721,-0.00852188835357026,,
0.0646723469990174,-0.451503488017215,-0.00880095081619103,,
0.0649083774625174,-0.455738729538317,-0.0090587007373788,,
0.0651444079260175,-0.456140354614492,-0.00918785034412473,,
0.0653804383895176,-0.452588500599242,-0.00922742136177535,,
0.0656164688530176,-0.445371249694485,-0.00921390602461125,,
0.0658524993165177,-0.434075686444429,-0.00908653887139499,,
0.0660885297800178,-0.419020142747323,-0.00889020257636508,,
0.0663245602435178,-0.399890689242881,-0.00864690728218331,,
0.0665605907070179,-0.377871182591286,-0.00828949376518073,,
0.0667966211705179,-0.352447022911518,-0.00786827170757043,,
0.067032651634018,-0.323460357914975,-0.00739819284589371,,
0.0672686820975181,-0.29213672635514,-0.00685612648118861,,
0.0675047125610181,-0.258123002082116,-0.00624726891865945,,
0.0677407430245182,-0.221792974770759,-0.00560602508182884,,
0.0679767734880183,-0.183563962414823,-0.00488054177710717,,
0.0682128039515183,-0.143659500328983,-0.0041291950442055,,
0.0684488344150184,-0.102588436691433,-0.00333085635461305,,
0.0686848648785185,-0.0604899485087681,-0.00252043048784945,,
0.0689208953420185,-0.0178685524298956,-0.00168748363658189,,
0.0691569258055186,0.0248482438063037,-0.000821908822398854,,
0.0693929562690186,0.0673367471464808,3.22626835331796E-05,,
0.0696289867325187,0.109461366522221,0.000902256554309755,,
0.0698650171960188,0.150328599752918,0.00176433512297169,,
0.0701010476595188,0.189920481643334,0.00261949535505268,,
0.0703370781230189,0.228012908809379,0.00341067401944972,,
0.070573108586519,0.263985336424199,0.00419235541989371,,
0.070809139050019,0.297575564948583,0.00494598995524553,,
0.0710451695135191,0.328581361670908,0.00563787304967178,,
0.0712811999770192,0.356686027892492,0.0062935358095082,,
0.0715172304405192,0.381493903266016,0.00692082762179203,,
0.0717532609040193,0.403162058984636,0.00744317713921028,,
0.0719892913675193,0.421361582857256,0.00790696660399481,,
0.0722253218310194,0.435648528636308,0.00832684014899643,,
0.0724613522945195,0.446074022569114,0.00864949444894014,,
0.0726973827580195,0.453196476890297,0.00891559361316308,,
0.0729334132215196,0.455889978019974,0.00910127638393776,,
0.0731694436850197,0.454459579233825,0.00920135744190453,,
0.0734054741485197,0.449303781226243,0.00921981915627468,,
0.0736415046120198,0.440703778357493,0.00916062741749046,,
0.0738775350755198,0.427860865030542,0.00903336188335047,,
0.0741135655390199,0.411279202850913,0.00879576000390925,,
0.07434959600252,0.391089447783983,0.0084841300005265,,
0.07458562646602,0.367442706294053,0.00811490120604397,,
0.0748216569295201,0.340559957383432,0.00767436877745231,,
0.0750576873930202,0.310826920184685,0.00719694587765796,,
0.0752937178565202,0.278287584573109,0.00660726960241886,,
0.0755297483200203,0.243218742371005,0.00595807201301213,,
0.0757657787835204,0.206424318313152,0.00525715306016927,,
0.0760018092470204,0.167295626021726,0.00455041160889325,,
0.0762378397105205,0.126719031305311,0.00376698895184235,,
0.0764738701740205,0.0851465754006345,0.00297284410899845,,
0.0767099006375206,0.0428106342026358,0.00213824938081597,,
0.0769459311010207,7.07956508037549E-05,0.00128957079793368,,
0.0771819615645207,-0.0424847043759665,0.000419931220693837,,
0.0774179920280208,-0.0849246022768506,-0.000418838129006449,,
0.0776540224915209,-0.126583972801973,-0.00128357801888601,,
0.0778900529550209,-0.167271944628002,-0.00214047401465089,,
