Time domain (s),Current (AC) (A),Potential (AC) (V),Frequency (Hz),Column 5
0,-0.305829649048136,-0.00814695254241427,15.849,0.5
0.000231062488169601,-0.297795727351108,-0.00797209202378202,,
0.000462124976339201,-0.289471806217889,-0.00782928856022114,,
0.000693187464508802,-0.281435257199818,-0.00765351006626691,,
0.000924249952678403,-0.27307789097981,-0.00748151583547685,,
0.001155312440848,-0.264154940648818,-0.0073324349471382,,
0.0013863749290176,-0.255675368495978,-0.00712267016591195,,
0.0016174374171872,-0.246660958989223,-0.00697472561654022,,
0.00184849990535681,-0.237659970122389,-0.00677593413847166,,
0.00207956239352641,-0.228542882068932,-0.00658275651410545,,
0.00231062488169601,-0.219256509329901,-0.00636754748200818,,
0.00254168736986561,-0.210022469985697,-0.00618325704597966,,
0.00277274985803521,-0.200495093797491,-0.00600576768346928,,
0.00300381234620481,-0.190841251155844,-0.00580682356285323,,
0.00323487483437441,-0.181340716247481,-0.0055785211922128,,
0.00346593732254401,-0.171305130959172,-0.00539641863270246,,
0.00369699981071361,-0.16151793402243,-0.00516916779961329,,
0.00392806229888321,-0.15157522808342,-0.00496664505926603,,
0.00415912478705281,-0.141530695701831,-0.004733085000868,,
0.00439018727522241,-0.131395414231247,-0.00453265049537555,,
0.00462124976339201,-0.121173857218309,-0.00428891002705489,,
0.00485231225156161,-0.11091935217932,-0.0040729568625375,,
0.00508337473973121,-0.10057246485177,-0.00384589047252693,,
0.00531443722790081,-0.0902112337714995,-0.0036225256643001,,
0.00554549971607042,-0.07974455480613,-0.00336620490599904,,
0.00577656220424002,-0.0692608337583203,-0.00315418440712278,,
0.00600762469240962,-0.0587722841204858,-0.00289118129728516,,
0.00623868718057922,-0.0483053921290858,-0.00266335381457106,,
0.00646974966874882,-0.0376545876646851,-0.00241987199056704,,
0.00670081215691842,-0.0270625783847031,-0.00217657460964205,,
0.00693187464508802,-0.0164940019680765,-0.00195042831498871,,
0.00716293713325762,-0.00587252408720831,-0.00171201761562845,,
0.00739399962142722,0.0047123488207518,-0.00147498069919783,,
0.00762506210959682,0.0153324065280833,-0.00121928747137101,,
0.00785612459776642,0.0259620859111258,-0.000991305226073713,,
0.00808718708593602,0.0365508998006502,-0.000754847079303289,,
0.00831824957410562,0.0470973925187814,-0.000497625305963201,,
0.00854931206227522,0.0576867744777205,-0.00026472881864148,,
0.00878037455044482,0.068102043161062,-9.86664468616283E-06,,
0.00901143703861442,0.0786377425603144,0.000237651726692878,,
0.00924249952678403,0.0891274283369782,0.000483762394575038,,
0.00947356201495363,0.0995367322914656,0.000728261835563959,,
0.00970462450312323,0.109841546977991,0.000975491882130086,,
0.00993568699129283,0.120083234950812,0.00123750705547776,,
0.0101667494794624,0.130274648780433,0.00146062381956469,,
0.010397811967632,0.140446251189218,0.0016902702926398,,
0.0106288744558016,0.150453894563192,0.00196463255207524,,
0.0108599369439712,0.160541671228974,0.00216958061290429,,
0.0110909994321408,0.17042299016686,0.00243330877484382,,
0.0113220619203104,0.18013129646364,0.00266124225932707,,
0.01155312440848,0.189845247950228,0.00289697323395988,,
0.0117841868966496,0.199574892354396,0.00310909549453475,,
0.0120152493848192,0.208976725201959,0.00334396149473015,,
0.0122463118729888,0.218425139741526,0.00359534257058192,,
0.0124773743611584,0.227520250609503,0.00380338164300387,,
0.012708436849328,0.236860696455943,0.004040689923964,,
0.0129394993374976,0.245605237486389,0.00426895837403807,,
0.0131705618256672,0.254669069032221,0.004518478058821,,
0.0134016243138368,0.263451422183082,0.00470071630059632,,
0.0136326868020064,0.272116788538859,0.00495992030702208,,
0.013863749290176,0.280576762296892,0.00514426586397043,,
0.0140948117783456,0.288857794189303,0.0053676115918786,,
0.0143258742665152,0.296900236927551,0.00560563220472865,,
0.0145569367546848,0.304925353548652,0.00578096337121581,,
0.0147879992428544,0.312956150863899,0.00598754385929245,,
0.015019061731024,0.320459779762328,0.00618312984385705,,
0.0152501242191936,0.328001469311541,0.00640027234822593,,
0.0154811867073632,0.33522788033561,0.00657693065686527,,
0.0157122491955328,0.342367944808648,0.00675229998398974,,
0.0159433116837024,0.34916631552876,0.00696569850586704,,
0.016174374171872,0.355984568678385,0.00715014158444349,,
0.0164054366600416,0.362600873151094,0.007314058480413,,
0.0166364991482112,0.369087941831964,0.00752468823607666,,
0.0168675616363808,0.375176793853148,0.00770614206475884,,
0.0170986241245504,0.381130729388347,0.00784440653255869,,
0.01732968661272,0.387184077071114,0.00802123020395795,,
0.0175607491008896,0.392495242063609,0.00817245656810739,,
0.0177918115890593,0.398120549442419,0.00833917191078637,,
0.0180228740772289,0.403414104283059,0.00847985745899704,,
0.0182539365653985,0.408071989448679,0.00861869433635132,,
0.0184849990535681,0.412831275004818,0.00876997582142058,,
0.0187160615417377,0.417392872404651,0.00887493029323672,,
0.0189471240299073,0.421502286550403,0.00903952560052979,,
0.0191781865180769,0.425717077572577,0.00916962793209386,,
0.0194092490062465,0.42956830416936,0.00928598395421565,,
0.0196403114944161,0.433492811720635,0.00938979360692338,,
0.0198713739825857,0.436979621787905,0.00952493314256442,,
0.0201024364707553,0.440425814892025,0.00962208164408951,,
0.0203334989589249,0.442754331422774,0.00971729667334253,,
0.0205645614470945,0.445473679710819,0.00982584248510232,,
0.0207956239352641,0.447853606523596,0.00991361195008,,
0.0210266864234337,0.450236941752861,0.00998771142688915,,
0.0212577489116033,0.45247371507314,0.0100744463145985,,
0.0214888113997729,0.45420689485731,0.0101595826956267,,
0.0217198738879425,0.455647802927631,0.0102076990187459,,
0.0219509363761121,0.457137280932906,0.010282621069285,,
0.0221819988642817,0.458028865879237,0.0103247461724036,,
0.0224130613524513,0.458674760803722,0.0103852604624595,,
0.0226441238406209,0.459327756595889,0.0104487088814897,,
0.0228751863287905,0.459376894600259,0.0104896510048631,,
0.0231062488169601,0.459859753602732,0.010551132031055,,
0.0233373113051297,0.459437393992922,0.0105592560066539,,
0.0235683737932993,0.459139725619632,0.0105725528685947,,
0.0237994362814689,0.458282224838182,0.0106223821803058,,
0.0240304987696385,0.457693420889872,0.0106439217398266,,
0.0242615612578081,0.456505303709081,0.0106384435683893,,
0.0244926237459777,0.455178861625818,0.0106393933442424,,
0.0247236862341473,0.453312469563906,0.0106267579333421,,
0.0249547487223169,0.451787203185506,0.010619532852747,,
0.0251858112104865,0.449807765310074,0.0106150426177996,,
0.0254168736986561,0.447385233291197,0.0106012835881448,,
0.0256479361868257,0.444885443831924,0.0105398534428018,,
0.0258789986749953,0.442011864697795,0.0105458573830148,,
0.0261100611631649,0.439115278752372,0.0105070013744615,,
0.0263411236513345,0.435806274411896,0.0104689424992133,,
0.0265721861395041,0.432115243390051,0.0104057824049955,,
0.0268032486276737,0.428619060177439,0.0103681475368242,,
0.0270343111158433,0.424460508027318,0.0103179111783192,,
0.0272653736040129,0.420507597005308,0.0102568541592043,,
0.0274964360921825,0.415952248369037,0.0101751522355014,,
0.0277274985803521,0.411429847758817,0.0101318738331329,,
0.0279585610685217,0.406676242896825,0.0100191218711672,,
0.0281896235566913,0.401711032177866,0.00993306539478134,,
0.0284206860448609,0.396376008269955,0.0098712282026443,,
0.0286517485330305,0.39078421698661,0.00975708549746557,,
0.0288828110212001,0.385034502405987,0.00966814577295505,,
0.0291138735093697,0.379289048345974,0.00955868410590854,,
0.0293449359975393,0.373123222919101,0.00943558637125941,,
0.0295759984857089,0.367034938967332,0.00933864139313156,,
0.0298070609738785,0.360424599223478,0.00920931923458923,,
0.0300381234620481,0.353733309588032,0.00909716088253187,,
0.0302691859502177,0.346875291579379,0.00896843233389788,,
0.0305002484383873,0.339920701770232,0.00883301719365681,,
0.0307313109265569,0.332930607622668,0.00869257332948026,,
0.0309623734147265,0.325499691609317,0.00853789554772222,,
0.0311934359028961,0.31782081329646,0.008380605882369,,
0.0314244983910657,0.310421141100916,0.00826330856453605,,
0.0316555608792353,0.302361940314935,0.00807897148772918,,
0.0318866233674049,0.294119253108014,0.00792428946590062,,
0.0321176858555745,0.285985635228711,0.00773155280889437,,
0.0323487483437441,0.277568550711486,0.00757687502713678,,
0.0325798108319137,0.269350006454689,0.00740581361191639,,
0.0328108733200833,0.260541522110753,0.00723152974290953,,
0.0330419358082529,0.251690432560716,0.00705875957916824,,
0.0332729982964225,0.24279783843907,0.00685416344421297,,
0.0335040607845921,0.233761025694774,0.00668587927534814,,
0.0337351232727617,0.224743775840945,0.00650138531592281,,
0.0339661857609313,0.215457793649637,0.00629910425960922,,
0.0341972482491009,0.205827028827961,0.00609770089794548,,
0.0344283107372705,0.196418982721175,0.00590388302289258,,
0.0346593732254401,0.186646449076198,0.00570260686335189,,
0.0348904357136097,0.177008902925884,0.00547508890580417,,
0.0351214982017793,0.167252310728857,0.00528472668843039,,
0.0353525606899489,0.157133574279976,0.00504543405434887,,
0.0355836231781185,0.147121634881053,0.00484572672099404,,
0.0358146856662881,0.137135826675205,0.00460372044161872,,
0.0360457481544577,0.126986414477931,0.00439492239652894,,
0.0362768106426273,0.116755768354358,0.00414738706486695,,
0.0365078731307969,0.106493061813195,0.00391396268873434,,
0.0367389356189665,0.0961191911884481,0.00369271579585817,,
0.0369699981071361,0.0857167395712752,0.0034683482108937,,
0.0372010605953057,0.0753293062892527,0.00324245420045166,,
0.0374321230834753,0.0646822652847242,0.0030235478266416,,
0.0376631855716449,0.0543473784235591,0.00276282163480879,,
0.0378942480598145,0.0437190837097148,0.00254991920121173,,
0.0381253105479841,0.0332134919894402,0.00228165416354598,,
0.0383563730361537,0.0226110444339636,0.00204570270523297,,
0.0385874355243233,0.0120185380932438,0.00182294634716218,,
0.0388184980124929,0.00141264661694071,0.00156255512092018,,
0.0390495605006625,-0.00919629823246622,0.00130765902639851,,
0.0392806229888321,-0.0199069630114382,0.00107528618781716,,
0.0395116854770017,-0.0305307841786419,0.000832669338250547,,
0.0397427479651713,-0.0410417015496792,0.000599635048628588,,
0.0399738104533409,-0.0516711324023528,0.000381661490388652,,
0.0402048729415105,-0.0621755169751213,0.000119061187274117,,
0.0404359354296801,-0.0726752859838955,-0.00016250919247307,,
0.0406669979178497,-0.0830992887344876,-0.000390862443963247,,
0.0408980604060193,-0.0934992195436329,-0.000623608408772292,,
0.0411291228941889,-0.104004030168462,-0.000867514239853318,,
0.0413601853823585,-0.114241990185749,-0.00112571758957714,,
0.0415912478705281,-0.124467523684589,-0.00136080407345274,,
0.0418223103586977,-0.134777344482832,-0.00161517439919878,,
0.0420533728468673,-0.144902400703952,-0.00185077181160231,,
0.0422844353350369,-0.154849509180925,-0.0020783427700346,,
0.0425154978232065,-0.164820050521253,-0.00230444242390915,,
0.0427465603113761,-0.174672930484068,-0.00256318638265629,,
0.0429776227995457,-0.184352833310113,-0.00279128522989991,,
0.0432086852877153,-0.194086134661139,-0.00303052698313167,,
0.0434397477758849,-0.203681395144398,-0.00324010520124363,,
0.0436708102640545,-0.213034658057007,-0.00349820678926882,,
0.0439018727522241,-0.222506647477282,-0.00371697748081434,,
0.0441329352403937,-0.231639996517734,-0.00394328065808613,,
0.0443639977285633,-0.240835123107033,-0.00418692996488534,,
0.0445950602167329,-0.249754665021538,-0.00442873272086342,,
0.0448261227049025,-0.258484187716834,-0.00464875847335744,,
0.0450571851930721,-0.267249214750547,-0.0048570816305209,,
0.0452882476812417,-0.275691578356726,-0.00506444017158358,,
0.0455193101694113,-0.28408984557459,-0.00527274424842883,,
0.0457503726575809,-0.292456726957294,-0.00549309224630123,,
0.0459814351457505,-0.300300629435113,-0.00567478987905279,,
0.0462124976339201,-0.308539340156131,-0.00588321267787917,,
0.0464435601220897,-0.316308257471213,-0.00609214428519866,,
0.0466746226102593,-0.323930044807895,-0.00631222303857681,,
0.0469056850984289,-0.331316651406902,-0.00648004503972777,,
0.0471367475865985,-0.338409211075138,-0.00670760115791236,,
0.0473678100747681,-0.34551959392126,-0.0068741002569821,,
0.0475988725629377,-0.352708441355283,-0.00706045984754722,,
0.0478299350511073,-0.35943693953739,-0.00723869758254869,,
0.0480609975392769,-0.365896172816941,-0.00741426831303516,,
0.0482920600274465,-0.372319049653953,-0.00758005508021498,,
0.0485231225156161,-0.37844305097017,-0.00776559845715674,,
0.0487541850037857,-0.384218115648424,-0.0078995698533002,,
0.0489852474919553,-0.389921887615135,-0.00811301501595585,,
0.0492163099801249,-0.395320180254106,-0.00823738477183644,,
0.0494473724682945,-0.40112102108205,-0.00840256308886067,,
0.0496784349564641,-0.405971481779245,-0.00853941349305831,,
0.0499094974446337,-0.410669983908014,-0.0086743664655855,,
0.0501405599328033,-0.415279299138679,-0.00880898023245047,,
0.0503716224209729,-0.419966155844447,-0.0089534479237896,,
0.0506026849091425,-0.424200900304812,-0.00908505972054874,,
0.0508337473973121,-0.428169149201017,-0.00923413848885213,,
0.0510648098854817,-0.432133847663381,-0.00930725638927754,,
0.0512958723736513,-0.435565341971397,-0.0094501806948557,,
0.0515269348618209,-0.438886062743551,-0.0095623390469135,,
0.0517579973499905,-0.442071440977659,-0.00965321224369609,,
0.0519890598381601,-0.444630309656058,-0.00975499090250409,,
0.0522201223263297,-0.447398511913765,-0.00986964241617549,,
0.0524511848144993,-0.449696920765536,-0.00994111092907035,,
0.0526822473026689,-0.451784575864463,-0.0100404176266187,,
0.0529133097908385,-0.454004307102302,-0.0101115638941351,,
0.0531443722790081,-0.455469358122746,-0.0101870901547589,,
0.0533754347671778,-0.456633616388121,-0.0102466864694932,,
0.0536064972553474,-0.457810088145911,-0.0103071329184168,,
0.053837559743517,-0.459106209524167,-0.0103713615104692,,
0.0540686222316865,-0.459717736249063,-0.0104197152775516,,
0.0542996847198561,-0.459887802030081,-0.010486352229802,,
0.0545307472080258,-0.460153729524826,-0.0104926105742615,,
0.0547618096961954,-0.460184050229834,-0.010538910027055,,
0.054992872184365,-0.460122201672311,-0.0105721733822604,,
0.0552239346725346,-0.459587293309719,-0.0106011394257384,,
0.0554549971607042,-0.458885798591273,-0.0106001048484701,,
0.0556860596488738,-0.457829189479979,-0.0106454566454457,,
0.0559171221370434,-0.456503173448776,-0.0106639942348603,,
0.056148184625213,-0.454963208274272,-0.0106538689458571,,
0.0563792471133826,-0.453274053869739,-0.0106197618165682,,
0.0566103096015522,-0.45132862915051,-0.010627429984559,,
0.0568413720897218,-0.449095903324811,-0.0105846031497281,,
0.0570724345778914,-0.446758865752842,-0.0105668478533709,,
0.057303497066061,-0.444096892475679,-0.0105485455878838,,
0.0575345595542306,-0.440920035282791,-0.0105166432953965,,
0.0577656220424002,-0.437892367319932,-0.0104897103658534,,
0.0579966845305698,-0.434368987784093,-0.0104496332169179,,
0.0582277470187394,-0.430980453725563,-0.0103959030400969,,
0.058458809506909,-0.427270392378326,-0.010350636044536,,
0.0586898719950786,-0.423075270759635,-0.0102904270395756,,
0.0589209344832482,-0.418778890767778,-0.0102094247275497,,
0.0591519969714178,-0.414084649159619,-0.0101705856792793,,
0.0593830594595874,-0.409495784427882,-0.0100670770715965,,
0.059614121947757,-0.404492015997403,-0.0100015573779944,,
0.0598451844359266,-0.399556557914038,-0.00990668367443837,,
0.0600762469240962,-0.393835814873563,-0.0098212547285268,,
0.0603073094122658,-0.388503418286694,-0.00971394701743211,,
0.0605383719004354,-0.382500060712419,-0.00963070594803872,,
0.060769434388605,-0.37672130358297,-0.00950380910997861,,
0.0610004968767746,-0.370608876681077,-0.00940006305833219,,
0.0612315593649442,-0.364297057414634,-0.0092757611435843,,
0.0614626218531138,-0.357532131781311,-0.00916012593349391,,
0.0616936843412834,-0.350544735963466,-0.00902001915494344,,
0.061924746829453,-0.343873186740181,-0.00888730281974848,,
0.0621558093176226,-0.336733122267142,-0.00873742479810469,,
0.0623868718057922,-0.329335793357934,-0.00861181694155855,,
0.0626179342939618,-0.32178245838572,-0.00846662207808224,,
0.0628489967821314,-0.314133119682426,-0.00833105429529324,,
0.063080059270301,-0.306427826141788,-0.00815760360019313,,
0.0633111217584706,-0.298430260887299,-0.00802275238936456,,
0.0635421842466402,-0.29032682169565,-0.00785091292115769,,
0.0637732467348098,-0.281991184130754,-0.00770876666856601,,
0.0640043092229794,-0.2734917295484,-0.00752425574885729,,
0.064235371711149,-0.264920130150384,-0.00734474811265962,,
0.0644664341993186,-0.256125918550491,-0.00715804931643271,,
0.0646974966874882,-0.247306285844292,-0.00696878951745949,,
0.0649285591756578,-0.238291024233415,-0.00682276148007643,,
0.0651596216638274,-0.229240826353535,-0.00660994384789459,,
0.065390684151997,-0.219858591900779,-0.00641564684484441,,
0.0656217466401666,-0.210589119226835,-0.00621609215403707,,
0.0658528091283362,-0.201055494275067,-0.00602467627907632,,
0.0660838716165058,-0.191567527902505,-0.00580182239937788,,
0.0663149341046754,-0.181774437245585,-0.00559254734632608,,
0.066545996592845,-0.172037656469395,-0.00538459731539032,,
0.0667770590810146,-0.162249039359115,-0.00517897084323815,,
0.0670081215691842,-0.152388419450526,-0.00494111771318373,,
0.0672391840573538,-0.14211637526836,-0.00470806858331407,,
0.0674702465455234,-0.13209896820132,-0.00451864130154567,,
0.067701309033693,-0.121848439648234,-0.00430276869837254,,
0.0679323715218626,-0.111689086236204,-0.00405533724844487,,
0.0681634340100322,-0.101288303322936,-0.00385126900230093,,
0.0683944964982018,-0.0909250839997143,-0.00360721052867197,,
0.0686255589863714,-0.0805057678217932,-0.00337567086399737,,
0.068856621474541,-0.070035964474643,-0.00314916204329352,,
0.0690876839627106,-0.0596070621253493,-0.00292610252016212,,
0.0693187464508802,-0.0489486597325274,-0.00269305127025721,,
0.0695498089390498,-0.0384229015480318,-0.00244290405500003,,
0.0697808714272194,-0.0278206670185857,-0.00220783453140738,,
0.070011933915389,-0.0171873306886862,-0.00197581785877077,,
0.0702429964035586,-0.00661385467335796,-0.00170730477696512,,
0.0704740588917282,0.00398891242116439,-0.00150834157603086,,
0.0707051213798978,0.0146038575037638,-0.00126726811222522,,
0.0709361838680674,0.0253034094248113,-0.000990001404311158,,
0.071167246356237,0.0358609794965286,-0.000762954094619239,,
0.0713983088444066,0.046446384969565,-0.00052579633617178,,
0.0716293713325762,0.056932094260326,-0.000259233686921156,,
0.0718604338207458,0.0674862559155553,-2.49952172000079E-05,,
0.0720914963089154,0.0780069014753189,0.000190213814896811,,
0.072322558797085,0.0884071518235099,0.000473976311233582,,
0.0725536212852546,0.098794549601194,0.000721036754968818,,
0.0727846837734242,0.109125744011164,0.0009477448589994,,
0.0730157462615938,0.119398143236715,0.00120911554158942,,
0.0732468087497634,0.129556644544624,0.00144174702448829,,
0.073477871237933,0.139762579648658,0.00168614894384955,,
0.0737089337261026,0.149875351368685,0.00193744521828565,,
0.0739399962142722,0.159881042004047,0.00216149055787129,,
0.0741710587024418,0.169819984483184,0.00239170520042986,,
0.0744021211906114,0.179525130893844,0.00265276211778342,,
0.074633183678781,0.189140557841325,0.00288903582147482,,
0.0748642461669506,0.198872190488445,0.003109299017932,,
0.0750953086551202,0.208346168151671,0.00334039983528189,,
0.0753263711432898,0.217688921780108,0.00356517446704041,,
0.0755574336314594,0.227015769464934,0.00380223258382451,,
0.075788496119629,0.236163355745092,0.004038603809144,,
0.0760195586077986,0.245189730213894,0.00426699098120009,,
0.0762506210959682,0.254170623625183,0.00446705448050011,,
0.0764816835841378,0.262973995344387,0.00471131647752587,,
