Time domain (s),Current (AC) (A),Potential (AC) (V),Frequency (Hz),Column 5
0,0.445760002109744,0.00679754895566642,1258.9,0.5
2.48232584001906E-05,0.433730843400108,0.00668239528611814,,
4.96465168003813E-05,0.40458489431499,0.00631941978281425,,
7.44697752005719E-05,0.360456215217751,0.00569460562961277,,
9.92930336007626E-05,0.302097749506698,0.00487572687328042,,
0.000124116292000953,0.232188043165258,0.00384696130391227,,
0.000148939550401144,0.153530270224516,0.00269897884144665,,
0.000173762808801334,0.0690250102545205,0.00144826729878744,,
0.000198586067201525,-0.0170044975270761,0.000103814491623666,,
0.000223409325601716,-0.104230874096323,-0.00124717906137173,,
0.000248232584001906,-0.187727412513308,-0.00255061680255508,,
0.000273055842402097,-0.264000486602343,-0.00372157996994682,,
0.000297879100802288,-0.329231430598128,-0.0047731326538254,,
0.000322702359202478,-0.382223659280813,-0.00559611378682545,,
0.000347525617602669,-0.419876287876328,-0.00625916530982229,,
0.00037234887600286,-0.441702076014035,-0.00664259179161286,,
0.00039717213440305,-0.446777656048423,-0.00678650560129723,,
0.000421995392803241,-0.434249488904488,-0.00667485396061096,,
0.000446818651203432,-0.404998974193487,-0.00630058495801933,,
0.000471641909603622,-0.360306562311826,-0.00569569321621577,,
0.000496465168003813,-0.301854802794901,-0.0048661713373841,,
0.000521288426404003,-0.231830428724737,-0.00383804091859252,,
0.000546111684804194,-0.152859845055719,-0.0026900932588978,,
0.000570934943204385,-0.0681741650736064,-0.00141366464341885,,
0.000595758201604575,0.0179754336708688,-0.000105363214946141,,
0.000620581460004766,0.104553078007942,0.00124199127327485,,
0.000645404718404957,0.187991095120408,0.00251955315399455,,
0.000670227976805147,0.263793517555044,0.00370758925588355,,
0.000695051235205338,0.328926205308474,0.00477819645705013,,
0.000719874493605529,0.381768958315108,0.00561438524175983,,
0.000744697752005719,0.419385006664552,0.00629415732119476,,
0.00076952101040591,0.441181729102861,0.00665739819562949,,
0.000794344268806101,0.445868041441165,0.00681610753346362,,
0.000819167527206291,0.433415693237489,0.00671410931146754,,
0.000843990785606482,0.404575394793724,0.00631365557381702,,
0.000868814044006672,0.360330878250591,0.00569711577949317,,
0.000893637302406863,0.30196064447588,0.00487013667813985,,
0.000918460560807054,0.232346203105152,0.00384190620138058,,
0.000943283819207244,0.153607755125594,0.00267000553433672,,
0.000968107077607435,0.069014908151681,0.00139916058847867,,
0.000992930336007626,-0.0170114449381517,0.00010255941668369,,
0.00101775359440782,-0.104276953863661,-0.00121922808566932,,
0.00104257685280801,-0.188036217846424,-0.00253645642498102,,
0.0010674001112082,-0.263865437438067,-0.00372140378091723,,
0.00109222336960839,-0.329575043878572,-0.00478013453637693,,
0.00111704662800858,-0.382074219050737,-0.00560300691071669,,
0.00114186988640877,-0.420022325292816,-0.00626860556153819,,
0.00116669314480896,-0.441745887238981,-0.00663870475709327,,
0.00119151640320915,-0.446745116643487,-0.00677192106494795,,
0.00121633966160934,-0.433880141846284,-0.00666878957771111,,
0.00124116292000953,-0.404914825449132,-0.00629085975861354,,
0.00126598617840972,-0.360188385431591,-0.00568840856114727,,
0.00129080943680991,-0.301744707596937,-0.00486562319373585,,
0.0013156326952101,-0.231540055298556,-0.00383425829238648,,
0.00134045595361029,-0.152852897644643,-0.00266771290177692,,
0.00136527921201049,-0.0681237608973333,-0.00139393582243663,,
0.00139010247041068,0.017967387434572,-0.00011805752577887,,
0.00141492572881087,0.104603801197989,0.00122576013080833,,
0.00143974898721106,0.188096546895663,0.00255175441814259,,
0.00146457224561125,0.263883089533555,0.00371316204963845,,
0.00148939550401144,0.329132749004074,0.00475162889150704,,
0.00151421876241163,0.381775303144611,0.0056180612844785,,
0.00153904202081182,0.419047986335435,0.00625618749770318,,
0.00156386527921201,0.44106940080848,0.00665226913720884,,
0.0015886885376122,0.445881581803568,0.00679947180878093,,
0.00161351179601239,0.433740626489174,0.00667361193671034,,
0.00163833505441258,0.404504219276173,0.00631111062116574,,
0.00166315831281277,0.360317337888188,0.00567105720448025,,
0.00168798157121296,0.301997224721951,0.00484815002736916,,
0.00171280482961315,0.232331493025579,0.00382871595105705,,
0.00173762808801334,0.153506344191475,0.00267573059021631,,
0.00176245134641354,0.0690414217408879,0.0014013879658421,,
0.00178727460481373,-0.0169869163235378,0.000104645407788428,,
0.00181209786321392,-0.104325089497542,-0.00125440716193692,,
0.00183692112161411,-0.187859271539845,-0.00255134331040585,,
0.0018617443800143,-0.263768386358858,-0.00371228327966255,,
0.00188656763841449,-0.329440278282095,-0.00475617935385442,,
0.00191139089681468,-0.382130081907141,-0.00561248196520392,,
0.00193621415521487,-0.420022608860615,-0.00626529929826436,,
0.00196103741361506,-0.441714198537442,-0.00665245620210442,,
0.00198586067201525,-0.446537970366314,-0.00679467120151411,,
0.00201068393041544,-0.434274868222499,-0.00669555508401665,,
0.00203550718881563,-0.405046826259569,-0.0063058684537376,,
0.00206033044721582,-0.360173710797992,-0.0056738936303411,,
0.00208515370561601,-0.301822263389965,-0.00485550863832618,,
0.0021099769640162,-0.231762159777127,-0.00385250147006877,,
0.0021348002224164,-0.152744574745423,-0.00269527234630251,,
0.00215962348081659,-0.0681027768802069,-0.00141695350530702,,
0.00218444673921678,0.0179742993996728,-9.00565210923965E-05,,
0.00220926999761697,0.104572963199847,0.0012586443993432,,
0.00223409325601716,0.187963447260005,0.00253712420315599,,
0.00225891651441735,0.263864090491022,0.00369579981710455,,
0.00228373977281754,0.329187194021483,0.00477261061225631,,
0.00230856303121773,0.381847896501156,0.00562667062002964,,
0.00233338628961792,0.419133836486584,0.00625906742702842,,
0.00235820954801811,0.441021300620574,0.00668228652745784,,
0.0023830328064183,0.446002594361793,0.00680382215519382,,
0.00240785606481849,0.433525433975704,0.00668345242029611,,
0.00243267932321868,0.404650256692661,0.00630179652949581,,
0.00245750258161887,0.360302096118992,0.00570505081135009,,
0.00248232584001906,0.3020830748731,0.00483204504494861,,
0.00250714909841925,0.232165853984985,0.00382394362104188,,
0.00253197235681945,0.153495993966812,0.00267507368790776,,
0.00255679561521964,0.0690102647289723,0.00138611389958676,,
0.00258161887361983,-0.0170186050250766,0.000100669191167135,,
0.00260644213202002,-0.104219389600463,-0.00124576302361445,,
0.00263126539042021,-0.187830205840447,-0.00254522454817652,,
0.0026560886488204,-0.263816734668588,-0.00374359054762285,,
0.00268091190722059,-0.329403343576275,-0.00476121923017381,,
0.00270573516562078,-0.382230535799938,-0.00562326647396105,,
0.00273055842402097,-0.420238403955657,-0.00626856858359393,,
0.00275538168242116,-0.44156100103403,-0.00664522592636585,,
0.00278020494082135,-0.446646222373584,-0.00674632580182788,,
0.00280502819922154,-0.433863765805892,-0.0066908327829851,,
0.00282985145762173,-0.4046676961123,-0.00630031958688804,,
0.00285467471602192,-0.359851365102474,-0.00567180981440929,,
0.00287949797442211,-0.301803477023281,-0.00486624094292676,,
0.0029043212328223,-0.231837659703612,-0.00382071566400333,,
0.0029291444912225,-0.152675171526617,-0.00267430802693891,,
0.00295396774962269,-0.0681364505563388,-0.00143319769881289,,
0.00297879100802288,0.0179351315974352,-0.00012712582287655,,
0.00300361426642307,0.1044580473493,0.0012275307217986,,
0.00302843752482326,0.188025371378113,0.00252370338447205,,
0.00305326078322345,0.263782600194783,0.00371151326834784,,
0.00307808404162364,0.32915408748095,0.00476863439563457,,
0.00310290730002383,0.38174854143358,0.00563588030338558,,
0.00312773055842402,0.419444343226494,0.00627843951960516,,
0.00315255381682421,0.441201330726967,0.00664304205246724,,
0.0031773770752244,0.445913270505107,0.00679154982796293,,
0.00320220033362459,0.433504981648201,0.00668477927595212,,
0.00322702359202478,0.404586631167759,0.00632244327357112,,
0.00325184685042497,0.360236698295346,0.00571055399956233,,
0.00327667010882516,0.302041886650294,0.00484233361421493,,
0.00330149336722536,0.232100775175114,0.00381925829795549,,
0.00332631662562555,0.153643484668269,0.00267245912971381,,
0.00335113988402574,0.0690748118492208,0.00141436504919179,,
0.00337596314242593,-0.0170120120737497,0.000105724293698817,,
0.00340078640082612,-0.104210173646995,-0.00123741905919461,,
0.00342560965922631,-0.187901594033847,-0.0025409481576526,,
0.0034504329176265,-0.263815316829593,-0.00371048006107433,,
0.00347525617602669,-0.329277793933265,-0.00474903826021755,,
0.00350007943442688,-0.382339496726706,-0.0055995266335862,,
0.00352490269282707,-0.420307240038866,-0.00623312631136841,,
0.00354972595122726,-0.441985289353291,-0.00664633961504757,,
0.00357454920962745,-0.446524430003912,-0.00679576748881017,,
0.00359937246802764,-0.433948977929493,-0.00666322113430295,,
0.00362419572642783,-0.404966151220752,-0.0063012027072098,,
0.00364901898482802,-0.360205470391481,-0.00570136606793836,,
0.00367384224322822,-0.301695721259659,-0.00485712044167208,,
0.00369866550162841,-0.231660784288983,-0.0038423020829037,,
0.0037234887600286,-0.152703670090417,-0.00266094158758534,,
0.00374831201842879,-0.0680946951979353,-0.00140217537854248,,
0.00377313527682898,0.0179590221845014,-0.000113530990336397,,
0.00379795853522917,0.104546768624414,0.00121676361442669,,
0.00382278179362936,0.187960292568241,0.00255027095001559,,
0.00384760505202955,0.263768492696782,0.00372607822813809,,
0.00387242831042974,0.329351096209308,0.00474551230445019,,
0.00389725156882993,0.381925097834435,0.00563614567451687,,
0.00392207482723012,0.419332298499912,0.00626419648544951,,
0.00394689808563031,0.441164466913097,0.00665202116746322,,
0.0039717213440305,0.445794030245625,0.00681278386880413,,
0.00399654460243069,0.433429836181465,0.00668117283877612,,
0.00402136786083088,0.404761486161821,0.00631500418120501,,
0.00404619111923107,0.360190866649832,0.00568714478551469,,
0.00407101437763127,0.301985456658292,0.00484374747679928,,
0.00409583763603146,0.232144834521884,0.00382498770418094,,
0.00412066089443165,0.153499148658575,0.00265522305722588,,
0.00414548415283184,0.0690460297176218,0.00141828906165609,,
0.00417030741123203,-0.0170543345677512,9.96098818153435E-05,,
0.00419513066963222,-0.104253346844394,-0.00126618137450318,,
0.00421995392803241,-0.187928958326451,-0.0025308183760302,,
0.0042447771864326,-0.263886137887394,-0.00371898281313854,,
0.00426960044483279,-0.329589151376573,-0.00478370399560868,,
0.00429442370323298,-0.382263429664623,-0.00561368701116027,,
0.00431924696163317,-0.420070460926697,-0.00624548129518088,,
0.00434407022003336,-0.441769494258248,-0.00664759468998799,,
0.00436889347843355,-0.446575968451381,-0.00676649400779805,,
0.00439371673683374,-0.434040641220521,-0.00668413542468249,,
0.00441853999523393,-0.40511502431523,-0.00627896373634718,,
0.00444336325363412,-0.360085875672251,-0.00572063592737404,,
0.00446818651203432,-0.301778381273069,-0.00486212116487339,,
0.00449300977043451,-0.231780591684062,-0.00382471363235659,,
0.0045178330288347,-0.152769599603686,-0.00268995187263954,,
0.00454265628723489,-0.0681301411728109,-0.00141541348267671,,
0.00456747954563508,0.0179748665352708,-0.000109341606740809,,
0.00459230280403527,0.104504410684438,0.00123570067236178,,
0.00461712606243546,0.188004351915011,0.00254050007197248,,
0.00464194932083565,0.263809361905814,0.00372597381982409,,
0.00466677257923584,0.329218032019625,0.00476150852821045,,
0.00469159583763603,0.381605056127283,0.00562607027222484,,
0.00471641909603622,0.419329710943746,0.00627669068034686,,
0.00474124235443641,0.441071988364646,0.00665409193235567,,
0.0047660656128366,0.44581820440049,0.0068230724380709,,
0.00479088887123679,0.433518522010603,0.00668310004223693,,
0.00481571212963698,0.404817632586023,0.00631026230361531,,
0.00484053538803718,0.360210751841737,0.00568569612015946,,
0.00486535864643737,0.302202031564782,0.00485277879595225,,
0.00489018190483756,0.232305865585744,0.00385259935286353,,
0.00491500516323775,0.15348071675164,0.00265430513413278,,
0.00493982842163794,0.0690368137641541,0.00138883721644101,,
0.00496465168003813,-0.0170393763663537,0.000108765185841353,,
0.00498947493843832,-0.104212442189387,-0.00124685713573713,,
0.00501429819683851,-0.187888408131193,-0.00253592568271888,,
0.0050391214552387,-0.26381042528506,-0.00371228327966255,,
0.00506394471363889,-0.329445736962226,-0.00476141282058906,,
0.00508876797203908,-0.381886922519494,-0.00559052794203119,,
0.00511359123043927,-0.420122282941965,-0.00626498172297651,,
0.00513841448883946,-0.442030234849433,-0.00664807322809313,,
0.00516323774723965,-0.446873218396688,-0.00680315655219221,,
0.00518806100563984,-0.433994277885384,-0.00667847779917263,,
0.00521288426404003,-0.405091133728164,-0.0063091768921848,,
0.00523770752244023,-0.360220428592878,-0.00566878632365242,,
0.00526253078084042,-0.301774694891682,-0.00485791655506551,,
0.00528735403924061,-0.23173564618792,-0.00384408790010626,,
0.0053121772976408,-0.15272841138088,-0.00266032383839487,,
0.00533700055604099,-0.0680745618842059,-0.00139437738259751,,
0.00536182381444118,0.0179365494364303,-0.00013147181894313,,
0.00538664707284137,0.104561159690214,0.00125061365986534,,
0.00541147033124156,0.188053586374114,0.00252172397685424,,
0.00543629358964175,0.263923462498938,0.00372413797363791,,
0.00546111684804194,0.329182302476951,0.00475178985432434,,
0.00548594010644213,0.38167017038313,0.00560993048703295,,
0.00551076336484232,0.41936281748428,0.00626283482702217,,
0.00553558662324251,0.441062488843379,0.00666436310023677,,
0.0055604098816427,0.445747064328915,0.00679490829539375,,
0.00558523314004289,0.433484848334472,0.00667707481245516,,
0.00561005639844309,0.404614279028162,0.00632573213545928,,
0.00563487965684328,0.360459972491088,0.00569078602546247,,
0.00565970291524347,0.302310354464002,0.00485700733266548,,
0.00568452617364366,0.23228140786308,0.00383501090231642,,
0.00570934943204385,0.153471217230373,0.00266353656922114,,
0.00573417269044404,0.0690840278026884,0.00140146192173107,,
0.00575899594884423,-0.0170483087520224,0.00011518194680038,,
0.00578381920724442,-0.104249873138856,-0.0012236306362392,,
0.00580864246564461,-0.187876285607786,-0.00253866640095879,,
0.0058334657240448,-0.263976596015277,-0.00373339116045779,,
0.00585828898244499,-0.329461900326769,-0.00473935003875603,,
0.00588311224084518,-0.381862181229031,-0.00563044237036925,,
0.00590793549924537,-0.42004401822944,-0.00626650216904778,,
0.00593275875764556,-0.441647985456375,-0.00663202044982958,,
0.00595758201604575,-0.446382646104409,-0.00679057317519316,,
0.00598240527444594,-0.434001508864258,-0.00665434642762053,,
0.00600722853284614,-0.404987773265426,-0.00628614180792875,,
0.00603205179124633,-0.360223902298416,-0.00568593321403865,,
0.00605687504964652,-0.301525864148055,-0.00487136782617403,,
0.00608169830804671,-0.231654120445706,-0.00385379134778008,,
0.0061065215664469,-0.152678007204607,-0.00267628743455672,,
0.00613134482484709,-0.0681597740078069,-0.00137956445306164,,
0.00615616808324728,0.0179411574131641,-0.000128857260748738,,
0.00618099134164747,0.104557402416877,0.00122706958507868,,
0.00620581460004766,0.18809739759906,0.00252174137823991,,
0.00623063785844785,0.263707950971695,0.00370624499884187,,
0.00625546111684804,0.32911258024437,0.00474425505433729,,
0.00628028437524823,0.381448065904559,0.00561765235191602,,
0.00630510763364842,0.419518957003607,0.00624982294090115,,
0.00632993089204861,0.441209979544837,0.00667283322470258,,
0.0063547541504488,0.445942938786077,0.00680345237574853,,
0.00637957740884899,0.433602954322757,0.00668267805863465,,
0.00640440066724919,0.40456213799912,0.00627812194431687,,
0.00642922392564938,0.360179098586173,0.00567790029938742,,
0.00645404718404957,0.302109872030106,0.00486525993981068,,
0.00647887044244976,0.232219731866796,0.00385065474801705,,
0.00650369370084995,0.153497695373606,0.00267491707543721,,
0.00652851695925014,0.0689930025392079,0.0014001350660755,,
0.00655334021765033,-0.0170629833856209,0.000112671796919983,,
0.00657816347605052,-0.104269722884786,-0.00124687888746955,,
0.00660298673445071,-0.187972840443347,-0.00252798847568858,,
0.0066278099928509,-0.263864870302469,-0.00371774513958378,,
0.00665263325125109,-0.329342589175338,-0.00474925142719185,,
0.00667745650965128,-0.382200335829344,-0.00561242976104692,,
0.00670227976805147,-0.419967596707608,-0.00625881075658974,,
0.00672710302645166,-0.441772684395987,-0.00667036440311275,,
0.00675192628485185,-0.446580576428115,-0.00678963350036765,,
0.00677674954325205,-0.43392685964117,-0.00665662818431434,,
0.00680157280165224,-0.404880301069604,-0.00630123750998113,,
0.00682639606005243,-0.360113239964855,-0.00570294089333956,,
0.00685121931845262,-0.301709261622062,-0.00485038393025183,,
0.00687604257685281,-0.231766696861911,-0.00383130658234521,,
0.006900865835253,-0.152699062113683,-0.00266672319796779,,
0.00692568909365319,-0.0680909379245985,-0.00141058894850499,,
0.00695051235205338,0.0179469351070688,-9.21947163545767E-05,,
0.00697533561045357,0.104500688857076,0.00123755391993363,,
0.00700015886885376,0.188012398151308,0.00252844091171589,,
0.00702498212725395,0.263932678452406,0.00372385085077465,,
0.00704980538565414,0.329150046639814,0.00475212483099785,,
0.00707462864405433,0.381750809975972,0.00562530896160229,,
0.00709945190245452,0.41951091076731,0.00627817414847387,,
0.00712427516085471,0.441173966434363,0.00665635411249044,,
0.0071490984192549,0.445913837640705,0.00679989814272952,,
0.0071739216776551,0.433759341963908,0.00667691384963787,,
0.00719874493605529,0.404764357285785,0.00631938498004292,,
0.00722356819445548,0.36027845365375,0.00569014652453959,,
0.00724839145285567,0.302101506780035,0.00484526574769717,,
0.00727321471125586,0.232259785818406,0.00383695115681659,,
0.00729803796965605,0.153372960988018,0.0026922575562387,,
0.00732286122805624,0.0689754213356696,0.00140729138592466,,
0.00734768448645643,-0.0169947144380104,9.84592151893615E-05,,
0.00737250774485662,-0.104200957693528,-0.00123144385839646,,
0.00739733100325681,-0.188001906142745,-0.00253928632532263,,
0.007422154261657,-0.263892163703123,-0.00373356734948738,,
0.00744697752005719,-0.329425603648497,-0.00474346981680895,,
0.00747180077845738,-0.382312132434102,-0.00559443455310982,,
0.00749662403685757,-0.419992054430272,-0.00625951768788191,,
0.00752144729525776,-0.441696617333904,-0.00666774766974543,,
0.00754627055365796,-0.446505430961379,-0.00679847122910582,,
0.00757109381205815,-0.433934303295894,-0.00666741269307147,,
0.00759591707045834,-0.40494977518036,-0.00629884916980039,,
0.00762074032885853,-0.360214686344949,-0.00568260954937916,,
0.00764556358725872,-0.301614266409395,-0.00486587116348147,,
0.00767038684565891,-0.231747414251579,-0.00385858325435384,,
0.0076952101040591,-0.152729545652076,-0.00267135414172426,,
0.00772003336245929,-0.06815318105648,-0.00140625600347777,,
0.00774485662085948,0.0179336783124653,-0.00011985856919372,,
0.00776967987925967,0.104564030814178,0.00120361251722079,,
0.00779450313765986,0.187906981822028,0.00253664566505041,,
0.00781932639606005,0.263966954710111,0.00371241379005527,,
0.00784414965446024,0.329330360314006,0.00473450157767941,,
0.00786897291286043,0.38140081642005,0.00560765090551252,,
0.00789379617126062,0.419334602488279,0.00628127159511971,,
0.00791861942966081,0.440840667932608,0.00667023171754755,,
0.00794344268806101,0.44578970583669,0.00678098283652639,,
0.0079682659464612,0.433598913481621,0.0067049474819223,,
0.00799308920486139,0.404698108758743,0.00628903261312042,,
0.00801791246326158,0.360408930287267,0.0056852001806682,,
0.00804273572166177,0.302076162907999,0.00487524833517483,,
0.00806755898006196,0.232221468719565,0.0038432330570366,,
