Time domain (s),Current (AC) (A),Potential (AC) (V),Frequency (Hz),Column 5
0,-0.0537286910214644,-0.00126771863730824,5011.9,0.3
6.23516031844211E-06,-0.0917712406487363,-0.00177227833982263,,
1.24703206368842E-05,-0.126551813825543,-0.00221564720240996,,
1.87054809553263E-05,-0.156018797307365,-0.0025616024123658,,
2.49406412737684E-05,-0.179776804016911,-0.00281668428086679,,
3.11758015922105E-05,-0.196060853196733,-0.00293648292710946,,
3.74109619106526E-05,-0.204937202710268,-0.00296769344776671,,
4.36461222290948E-05,-0.205766329719936,-0.00287169491603567,,
4.98812825475369E-05,-0.198548851398116,-0.0026524387699185,,
5.6116442865979E-05,-0.183703563288823,-0.00236561887351927,,
6.23516031844211E-05,-0.161849401122372,-0.00198787307959369,,
6.85867635028632E-05,-0.133640038617358,-0.00149598717650568,,
7.48219238213053E-05,-0.100280108093334,-0.000966687189748239,,
8.10570841397474E-05,-0.0632368487178244,-0.000373572452508242,,
8.72922444581895E-05,-0.0240362632857376,0.000184551619935469,,
9.35274047766316E-05,0.0149139705785109,0.000687306897312556,,
9.97625650950737E-05,0.0541355839552815,0.00127345503523602,,
0.000105997725413516,0.0919585965500064,0.00179159561604791,,
0.000112232885731958,0.126407329362858,0.00219358338479392,,
0.0001184680460504,0.155837436794936,0.00255025224734418,,
0.000124703206368842,0.179258864138317,0.00280078898888148,,
0.000130938366687284,0.195726566185125,0.00296539071320634,,
0.000137173527005726,0.204312536093563,0.00297394372728688,,
0.000143408687324168,0.205428163339079,0.00288617119407775,,
0.000149643847642611,0.198403793846791,0.00267913141490839,,
0.000155879007961053,0.183649208035584,0.00238384415136084,,
0.000162114168279495,0.161892206435345,0.00196436105021691,,
0.000168349328597937,0.13376023293849,0.00150896463323624,,
0.000174584488916379,0.100685788724261,0.000980468559727221,,
0.000180819649234821,0.0637210645341891,0.000445171341203476,,
0.000187054809553263,0.0247612424561697,-0.000178285768245523,,
0.000193289969871705,-0.0141783451845125,-0.000691707981708589,,
0.000199525130190147,-0.053683769688901,-0.00126650790113203,,
0.00020576029050859,-0.0918653594367861,-0.00177560299800383,,
0.000211995450827032,-0.126536737185958,-0.00221990619075951,,
0.000218230611145474,-0.15610440793331,-0.0025917228811605,,
0.000224465771463916,-0.1795738865549,-0.00283108075154059,,
0.000230700931782358,-0.196241023448142,-0.00295077623216056,,
0.0002369360921008,-0.205051952689329,-0.0029669440371114,,
0.000243171252419242,-0.205868780335125,-0.00288626073405229,,
0.000249406412737684,-0.198660383264048,-0.00265569335333726,,
0.000255641573056126,-0.18395356218673,-0.00238445925205522,,
0.000261876733374569,-0.161930206620496,-0.00194417562554339,,
0.000268111893693011,-0.133718331342218,-0.00149632781771247,,
0.000274347054011453,-0.100261372503207,-0.000957982347014941,,
0.000280582214329895,-0.0633147887727527,-0.000393111632149168,,
0.000286817374648337,-0.0240852403225167,0.000165812460501069,,
0.000293052534966779,0.0149795451439555,0.000683168593276218,,
0.000299287695285221,0.0542021504049092,0.00125081699387097,,
0.000305522855603663,0.0919361799674662,0.00174921206379697,,
0.000311758015922105,0.126312417067461,0.00221002370271028,,
0.000317993176240548,0.155730357386892,0.00257655753461883,,
0.00032422833655899,0.17921680824895,0.00281879430982945,,
0.000330463496877432,0.195650742149788,0.00297060738997823,,
0.000336698657195874,0.204396647872298,0.00296312496254858,,
0.000342933817514316,0.205537931855352,0.00287400932972259,,
0.000349168977832758,0.198272424297195,0.00268688635530356,,
0.0003554041381512,0.183428128072086,0.00238674057488186,,
0.000361639298469642,0.161782063207269,0.00196374984256531,,
0.000367874458788084,0.133699066747193,0.00149133304435534,,
0.000374109619106526,0.100660131986722,0.00098690765180276,,
0.000380344779424969,0.0637388082401329,0.000418850481759048,,
0.000386579939743411,0.0247882437478234,-0.000120446837796884,,
0.000392815100061853,-0.0141795354455323,-0.00070049652485249,,
0.000399050260380295,-0.0537154218152803,-0.00127272703631354,,
0.000405285420698737,-0.0918071248142972,-0.00175653876953197,,
0.000411520581017179,-0.126537530693305,-0.00221651729737893,,
0.000417755741335621,-0.15605600398517,-0.00257531565410396,,
0.000423990901654063,-0.179552461856543,-0.00280581685309889,,
0.000430226061972505,-0.196141482359891,-0.00295394711516872,,
0.000436461222290948,-0.204863671029488,-0.0029889903360365,,
0.00044269638260939,-0.205821081726848,-0.00287893597483846,,
0.000448931542927832,-0.198521828064591,-0.00266543763838234,,
0.000455166703246274,-0.183698008737398,-0.00234181875900807,,
0.000461401863564716,-0.161899700671395,-0.00197376858709752,,
0.000467637023883158,-0.133660493473402,-0.00148196638442011,,
0.0004738721842016,-0.100353375271666,-0.000966210292058012,,
0.000480107344520042,-0.0632405076683668,-0.00040897188675304,,
0.000486342504838484,-0.0241155258529102,0.000155077396173819,,
0.000492577665156927,0.0149087466551461,0.000684326773380484,,
0.000498812825475369,0.0541400143712997,0.00126643977289032,,
0.000505047985793811,0.0920025480402573,0.00177951939862497,,
0.000511283146112253,0.12635121075996,0.00220140061386731,,
0.000517518306430695,0.155886435873585,0.0025663344053628,,
0.000523753466749137,0.179311147455707,0.00280618863864479,,
0.000529988627067579,0.195651315238427,0.00294455515045744,,
0.000536223787386021,0.204350139525042,0.0029532794584024,,
0.000542458947704463,0.205259565069807,0.00288019537404383,,
0.000548694108022906,0.198418848444505,0.00269042902385763,,
0.000554929268341348,0.183802751707143,0.00239423857448129,,
0.00056116442865979,0.161910919983601,0.00197204202280732,,
0.000567399588978232,0.133738213109623,0.00149593072739096,,
0.000573634749296674,0.100662049629476,0.000985288146178043,,
0.000579869909615116,0.0637522978650244,0.000409003031091704,,
0.000586105069933558,0.0247872739055109,-0.000141624988274192,,
0.000592340230252,-0.0141773753422,-0.000702711665959477,,
0.000598575390570442,-0.0536991989984174,-0.00125357716090946,,
0.000604810550888885,-0.0918528396542071,-0.0017758930296603,,
0.000611045711207327,-0.126492212607068,-0.00221205392430512,,
0.000617280871525769,-0.15620302326299,-0.00257885832265803,,
0.000623516031844211,-0.179552285521577,-0.0028270436666058,,
0.000629751192162653,-0.196219598749785,-0.0029593117275506,,
0.000635986352481095,-0.205038639399403,-0.00299151108096929,,
0.000642221512799537,-0.205977358590378,-0.00287455824869687,,
0.000648456673117979,-0.19872884531456,-0.00267445003146216,,
0.000654691833436421,-0.183703783707531,-0.00238748998553806,,
0.000660926993754863,-0.161963049007895,-0.0019791331994794,,
0.000667162154073306,-0.133614381879819,-0.00148377080955742,,
0.000673397314391748,-0.100348922813777,-0.00098341753932063,,
0.00067963247471019,-0.0633047376796964,-0.000395089297671625,,
0.000685867635028632,-0.024047063802399,0.00017173961750494,,
0.000692102795347074,0.0149336539690797,0.000690049545660099,,
0.000698337955665516,0.0541153274760735,0.00125921428625686,,
0.000704573115983958,0.0919350337901878,0.00178430394769435,,
0.0007108082763024,0.126321476276335,0.00221411139719585,,
0.000717043436620842,0.15600488888693,0.00256597624546506,,
0.000723278596939285,0.179248438333458,0.00280831813281957,,
0.000729513757257727,0.195878743260698,0.00295788103448036,,
0.000735748917576169,0.204513954708364,0.00299714625979508,,
0.000741984077894611,0.205245656649371,0.00285288568183839,,
0.000748219238213053,0.198166909861974,0.002692180892923,,
0.000754454398531495,0.183578762216707,0.00235975400519317,,
0.000760689558849937,0.161738067633276,0.00197122448391029,,
0.000766924719168379,0.133851287906507,0.00150285255671978,,
0.000773159879486821,0.100700446568301,0.000970535462127664,,
0.000779395039805264,0.0637420924788729,0.000414505846477287,,
0.000785630200123706,0.0248154434163136,-0.000142952515721717,,
0.000791865360442148,-0.0141663984905727,-0.00071538741190702,,
0.00079810052076059,-0.0537404613804383,-0.00127172263138275,,
0.000804335681079032,-0.0917972941399482,-0.00173745896889077,,
0.000810570841397474,-0.126476386543879,-0.0022068567127449,,
0.000816806001715916,-0.156164405905458,-0.00255833225677771,,
0.000823041162034358,-0.17962828589188,-0.00280302359520057,,
0.0008292763223528,-0.196169828205659,-0.00295151007064653,,
0.000835511482671243,-0.204985606658408,-0.00296975676022138,,
0.000841746642989685,-0.205767299562248,-0.00287498453683588,,
0.000847981803308127,-0.198573714628308,-0.00269184414475854,,
0.000854216963626569,-0.183823955986792,-0.00235919535361351,,
0.000860452123945011,-0.161791342834849,-0.00195734578787166,,
0.000866687284263453,-0.133599349323976,-0.00151414627262714,,
0.000872922444581895,-0.100273539615854,-0.00099629766999243,,
0.000879157604900337,-0.0632971993599041,-0.000412755923933528,,
0.000885392765218779,-0.024017748114318,0.000162232808044394,,
0.000891627925537222,0.014941941712477,0.000669504014567224,,
0.000897863085855664,0.0541180386261743,0.00125703418253131,,
0.000904098246174106,0.091986942395775,0.00177099752888354,,
0.000910333406492548,0.126411958155713,0.00221319263919728,,
0.00091656856681099,0.155862498401964,0.00258190657483137,,
0.000922803727129432,0.17924400791744,0.00280019335339921,,
0.000929038887447874,0.19560211778294,0.00297402937421909,,
0.000935274047766316,0.204406698965355,0.00295276946985235,,
0.000941509208084758,0.20519839887851,0.00287571448227952,,
0.0009477443684032,0.198297706322931,0.00267649193218356,,
0.000953979528721643,0.183659215044899,0.00237481229306891,,
0.000960214689040085,0.161739037475589,0.00198076633075184,,
0.000966449849358527,0.133804779559251,0.00150821716910166,,
0.000972685009676969,0.100609766312086,0.000981659830691761,,
0.000978920169995411,0.0637866611415044,0.000422733791520358,,
0.000985155330313853,0.0247772448543253,-0.000137262834301932,,
0.000991390490632295,-0.0141486768264996,-0.000693954267154684,,
0.000997625650950737,-0.0537595496404971,-0.00126952306244554,,
0.00100386081126918,-0.0918891205734413,-0.00177831060897038,,
0.00101009597158762,-0.126434506989477,-0.00221939425568829,,
0.00101633113190606,-0.15615550098968,-0.00255071551938624,,
0.00102256629222451,-0.179610123390392,-0.00283775926572138,,
0.00102880145254295,-0.195976917752964,-0.00295311011105959,,
0.00103503661286139,-0.204743675085192,-0.00297800222395495,,
0.00104127177317983,-0.205730445554375,-0.00289285360130087,,
0.00104750693349827,-0.198738852323874,-0.00266673402149031,,
0.00105374209381672,-0.183767043876548,-0.00238468115546997,,
0.00105997725413516,-0.161728038582091,-0.0019583326741115,,
0.0010662124144536,-0.133591017496837,-0.00150223745602585,,
0.00107244757477204,-0.100349143232484,-0.000968954886926721,,
0.00107868273509048,-0.0633217099201644,-0.000388718333837801,,
0.00108491789540893,-0.0240748365595285,0.000174671078407407,,
0.00109115305572737,0.0149571726451567,0.000721719445316626,,
0.00109738821604581,0.0541837895265847,0.00125868483249514,,
0.00110362337636425,0.0919462531023933,0.00178467767976143,,
0.0011098585366827,0.12630758989777,0.00222673653359262,,
0.00111609369700114,0.155909006749221,0.00256146420936165,,
0.00112232885731958,0.179134239401166,0.00281971306782802,,
0.00112856401763802,0.19570280504847,0.00293038058319883,,
0.00113479917795646,0.204290163594765,0.00299230720813304,,
0.00114103433827491,0.205242967541141,0.00289475924553928,,
0.00114726949859335,0.198338197239476,0.00267298430101048,,
0.00115350465891179,0.183641096627153,0.00236138908298722,,
0.00115973981923023,0.161682720495854,0.00199957361842751,,
0.00116597497954867,0.133684607279989,0.00150247493160993,,
0.00117221013986712,0.100706067245339,0.000968659015706752,,
0.00117844530018556,0.063753840795976,0.000420553687794811,,
0.001184680460504,0.0247984711758456,-0.000168728349234204,,
0.00119091562082244,-0.0142043986757244,-0.000691996066843892,,
0.00119715078114088,-0.0537196538544619,-0.0012497970167713,,
0.00120338594145933,-0.0917880365542384,-0.00177853251238513,,
0.00120962110177777,-0.126442442062943,-0.00222019816893715,,
0.00121585626209621,-0.15612292310473,-0.00256599765719834,,
0.00122209142241465,-0.179581777544624,-0.00282567915525611,,
0.0012283265827331,-0.196200113736053,-0.00297558075160254,,
0.00123456174305154,-0.2049990962833,-0.00299057285775861,,
0.00124079690336998,-0.205829986642626,-0.00289552812140714,,
0.00124703206368842,-0.198602060474077,-0.00266649265286389,,
0.00125326722400686,-0.183751438232066,-0.00238432299557223,,
0.00125950238432531,-0.161904946636631,-0.00196993394036582,,
0.00126573754464375,-0.133613412037506,-0.0014957321822302,,
0.00127197270496219,-0.100345263863235,-0.000992328713299351,,
0.00127820786528063,-0.063316111284997,-0.000392379740183912,,
0.00128444302559907,-0.024078319175105,0.000182830895209207,,
0.00129067818591752,0.014950427832711,0.000691073415802546,,
0.00129691334623596,0.0541903580040645,0.00126667724847485,,
0.0013031485065544,0.0919855757997893,0.00176486598715497,,
0.00130938366687284,0.12634076291323,0.00222036362323763,,
0.00131561882719128,0.155898779321199,0.00254212746792382,,
0.00132185398750973,0.179199064543006,0.00282118074480042,,
0.00132808914782817,0.195606349822122,0.00294157697304653,,
0.00133432430814661,0.20433453388056,0.00296571383572308,,
0.00134055946846505,0.205245083560732,0.00284096129306777,,
0.0013467946287835,0.198198517904612,0.00266928591076177,,
0.00135302978910194,0.183619098840157,0.0023987506105847,,
0.00135926494942038,0.161742696426131,0.00198233522682578,,
0.00136550010973882,0.133763891889032,0.00153343240451331,,
0.00137173527005726,0.100747131250523,0.000985918819041309,,
0.00137797043037571,0.0636940632425355,0.0003987818483564,,
0.00138420559069415,0.0247967298680574,-0.000150125446282789,,
0.00139044075101259,-0.014164106136016,-0.000682082434455999,,
0.00139667591133103,-0.0537215935390869,-0.0012480587733541,,
0.00140291107164947,-0.0917847743573693,-0.00176071211094975,,
0.00140914623196792,-0.12648449795231,-0.0021931084336253,,
0.00141538139228636,-0.156086113180598,-0.00254804099927997,,
0.0014216165526048,-0.179625376364943,-0.0028088981961325,,
0.00142785171292324,-0.19604943550769,-0.00293210520096787,,
0.00143408687324168,-0.204913838327286,-0.00299425372931683,,
0.00144032203356013,-0.205842726843913,-0.00287701086538794,,
0.00144655719387857,-0.198508911528339,-0.00269337800345104,,
0.00145279235419701,-0.183697391565017,-0.002357661494921,,
0.00145902751451545,-0.161791122416142,-0.00197538614620107,,
0.0014652626748339,-0.13367477660564,-0.00148966682222262,,
0.00147149783515234,-0.100326969110522,-0.00096219072581416,,
0.00147773299547078,-0.0632592432584938,-0.000406844339098988,,
0.00148396815578922,-0.0240374094630159,0.000165726813568856,,
0.00149020331610766,0.0149427131779528,0.000690150764761643,,
0.00149643847642611,0.0541737825172698,0.00126151507429606,,
0.00150267363674455,0.0919423516912727,0.00174323235072116,,
0.00150890879706299,0.126234653347499,0.00223932663260795,,
0.00151514395738143,0.155761414382762,0.0025601522540839,,
0.00152137911769987,0.179320405041417,0.00279102523862473,,
0.00152761427801832,0.195460520805322,0.00296961855721722,,
0.00153384943833676,0.204460128460023,0.00296919421559894,,
0.0015400845986552,0.205512275117814,0.0028951874801999,,
0.00154631975897364,0.198452616590475,0.0026686902752795,,
0.00155255491929209,0.183635101238312,0.00237751017142962,,
0.00155879007961053,0.161764892589964,0.00197933758420321,,
0.00156502523992897,0.133788204072456,0.00152385552029033,,
0.00157126040024741,0.100641616815302,0.000963804391874934,,
0.00157749556056585,0.0637922597766718,0.000407486691089698,,
0.0015837307208843,0.0248194770786586,-0.00015792710318685,,
0.00158996588120274,-0.0141801085341715,-0.000715064289390277,,
0.00159620104152118,-0.0537420043113899,-0.00125773493015791,,
0.00160243620183962,-0.0917855237809743,-0.00176994640744477,,
0.00160867136215806,-0.126447467609471,-0.00224811906879419,,
0.00161490652247651,-0.156031890178583,-0.00255640714732674,,
0.00162114168279495,-0.179550169501986,-0.00282096273442844,,
0.00162737684311339,-0.195979650944935,-0.00293692673393942,,
0.00163361200343183,-0.204909782623071,-0.00299260113283184,,
0.00163984716375027,-0.205789253265503,-0.00288564757987952,,
0.00164608232406872,-0.198627364541683,-0.00268933897199508,,
0.00165231748438716,-0.183866408629833,-0.00234810407590969,,
0.0016585526447056,-0.161968250889389,-0.00196705503553529,,
0.00166478780502404,-0.13361111968295,-0.00150954664307035,,
0.00167102296534249,-0.100289145260337,-0.000977235388041731,,
0.00167725812566093,-0.0632771412575328,-0.000414663514693547,,
0.00168349328597937,-0.0240780987563977,0.00015914951848961,,
0.00168972844629781,0.0150055986351674,0.00069774998346217,,
0.00169596360661625,0.054116297318386,0.00126933230336901,,
0.0017021987669347,0.0919865456421017,0.00176905490074208,,
0.00170843392725314,0.126270361178094,0.00217613866194677,,
0.00171466908757158,0.155865584263868,0.00257175352033778,,
0.00172090424789002,0.179229548450236,0.00278615504262358,,
0.00172713940820846,0.195731768066619,0.00296377120758162,,
0.00173337456852691,0.204415736132357,0.00298312352118879,,
0.00173960972884535,0.205358334692582,0.00287866151535132,,
0.00174584488916379,0.19817365467442,0.00267419114414436,,
0.00175208004948223,0.183517618067281,0.00238730117298269,,
0.00175831520980067,0.161816580776844,0.00197850058009452,,
0.00176455037011912,0.133799004589118,0.00154489352124232,,
0.00177078553043756,0.100630441586838,0.000974523884032852,,
0.001777020690756,0.0637835752796011,0.000390331999898574,,
0.00178325585107444,0.024745592727946,-0.0001621685728459,,
0.00178949101139289,-0.0141773753422,-0.000695641901020672,,
0.00179572617171133,-0.0536957163828408,-0.00124185715686354,,
0.00180196133202977,-0.0919086055871734,-0.00175916268008747,,
0.00180819649234821,-0.126372789751412,-0.0022065335902286,,
0.00181443165266665,-0.156168461609674,-0.00256627017016431,,
0.0018206668129851,-0.179676733923762,-0.00278455500221098,,
0.00182690197330354,-0.196305870631852,-0.00296941417249341,,
0.00183313713362198,-0.204930590149047,-0.00297292569670837,,
0.00183937229394042,-0.205779995679793,-0.00287733398790424,,
0.00184560745425886,-0.198759880268558,-0.00266361374803337,,
0.00185184261457731,-0.183693953033182,-0.00237970779384611,,
0.00185807777489575,-0.16169427043612,-0.001953629878932,,
0.00186431293521419,-0.133722783800107,-0.00150866097593161,,
0.00187054809553263,-0.100376739654648,-0.000976400330454208,,
0.00187678325585107,-0.0632333661022478,-0.000422177086462305,,
0.00188301841616952,-0.024102432981692,0.000138603987397179,,
0.00188925357648796,0.0148788358365551,0.000701158342054864,,
0.0018954887368064,0.0541668172861167,0.00122330097042012,,
0.00190172389712484,0.0919062911907459,0.00175651930431986,,
0.00190795905744329,0.126320330099056,0.00221457077619514,,
0.00191419421776173,0.155843410141906,0.0025660463202275,,
0.00192042937808017,0.179199262919843,0.00281387350427753,,
0.00192666453839861,0.195594976216821,0.00295324831406329,,
0.00193289969871705,0.204370021292447,0.0029708799029442,,
0.0019391348590355,0.20521365185306,0.00288218471869373,,
0.00194537001935394,0.198101313254659,0.00267700192073361,,
0.00195160517967238,0.183520329217381,0.00237198594431032,,
0.00195784033999082,0.16169814980537,0.00197891324258537,,
0.00196407550030926,0.133886378564722,0.00151266302348496,,
0.00197031066062771,0.100730930475531,0.000992498060641722,,
0.00197654582094615,0.0637432386561512,0.00041854293141208,,
0.00198278098126459,0.0248414748656548,-0.0001621685728459,,
0.00198901614158303,-0.0141835470660066,-0.000698861447058441,,
0.00199525130190147,-0.0537227397163652,-0.00124688112803817,,
0.00200148646221992,-0.0918603779739994,-0.00178205960876987,,
0.00200772162253836,-0.126465586027217,-0.00219188212527976,,
