Time domain (s),Current (AC) (A),Potential (AC) (V),Frequency (Hz),Column 5
0,0.136281844992748,0.00176719930648028,316.23,0.3
9.88204787654555E-05,0.182134578845976,0.00262729016743535,,
0.000197640957530911,0.22082441004933,0.003350684673042,,
0.000296461436296367,0.251067972720981,0.00399405339603565,,
0.000395281915061822,0.271676945525721,0.00443842205535239,,
0.000494102393827278,0.281937348186615,0.00477063282148427,,
0.000592922872592733,0.281228657958658,0.00486349542233588,,
0.000691743351358189,0.270108798673961,0.00476441206624578,,
0.000790563830123644,0.248608628951556,0.00451767591943231,,
0.0008893843088891,0.217575085632668,0.00409721803765795,,
0.000988204787654555,0.17787873444395,0.00350210891348457,,
0.00108702526642001,0.131553599217073,0.00278379464680611,,
0.00118584574518547,0.0799583408643058,0.00195687224379659,,
0.00128466622395092,0.0256783826556928,0.00101700133208027,,
0.00138348670271638,-0.0295493319108979,0.000102366013105204,,
0.00148230718148183,-0.0846699229857036,-0.000837408742669243,,
0.00158112766024729,-0.135841051661737,-0.00174670340037331,,
0.00167994813901274,-0.181920596364855,-0.00261178502181059,,
0.0017787686177782,-0.22083666532946,-0.00334892715610469,,
0.00187758909654365,-0.251166632134402,-0.00399618485274678,,
0.00197640957530911,-0.272137444289172,-0.0044049117096141,,
0.00207523005407457,-0.282263127036118,-0.00473818820410221,,
0.00217405053284002,-0.281929853950565,-0.00480220535789488,,
0.00227287101160548,-0.270583183815977,-0.0047578788041962,,
0.00237169149037093,-0.248723511181841,-0.00452158091907151,,
0.00247051196913639,-0.217560053076825,-0.00407031039992756,,
0.00256933244790184,-0.177681327449623,-0.00348403560291288,,
0.0026681529266673,-0.131162576430187,-0.00275279236855175,,
0.00276697340543275,-0.0796775274311081,-0.00194720857163988,,
0.00286579388419821,-0.0252519165406606,-0.00103522154756375,,
0.00296461436296367,0.0299453361605706,-0.00011288440474555,,
0.00306343484172912,0.0848091394412827,0.000874743958094726,,
0.00316225532049458,0.136095260556954,0.00178313715384393,,
0.00326107579926003,0.182039534299355,0.0026020358777048,,
0.00335989627802549,0.220850154954351,0.00336699913117755,,
0.00345871675679094,0.251045401845345,0.00398606176886762,,
0.0035575372355564,0.271673066156471,0.00441312235864944,,
0.00365635771432185,0.281869635559709,0.00474662321700148,,
0.00375517819308731,0.281474292566159,0.00484421081399633,,
0.00385399867185277,0.27005290048977,0.00474013803292284,,
0.00395281915061822,0.248486076150255,0.00448480127130946,,
0.00405163962938368,0.217344086827337,0.00408371346982328,,
0.00415046010814913,0.177949092095344,0.00348682278972756,,
0.00424928058691459,0.131356787353256,0.00274774418160373,,
0.00434810106568004,0.080083009685198,0.00193752620249388,,
0.0044469215444455,0.0256826146948744,0.00101692654412533,,
0.00454574202321095,-0.0295731371312946,9.627613678731E-05,,
0.00464456250197641,-0.0846343033225916,-0.000860571640663998,,
0.00474338298074187,-0.13599922412615,-0.00178289943498777,,
0.00484220345950732,-0.181783407761384,-0.00261278931720321,,
0.00494102393827278,-0.220980554661635,-0.00335217509014107,,
0.00503984441703823,-0.251429371233595,-0.00397807681919593,,
0.00513866489580369,-0.272120472048704,-0.00442958105069824,,
0.00523748537456914,-0.282264714050811,-0.0047409874104094,,
0.0053363058533346,-0.282029483206299,-0.00481655396121905,,
0.00543512633210005,-0.27050528784479,-0.00472522851993773,,
0.00553394681086551,-0.24875873409128,-0.00449942231646938,,
0.00563276728963096,-0.217293346440899,-0.00404657056628155,,
0.00573158776839642,-0.177553131929413,-0.00346813782052546,,
0.00583040824716188,-0.131226057017911,-0.00275995064422352,,
0.00592922872592733,-0.0796216292469174,-0.00192977229418245,,
0.00602804920469279,-0.0252312853496502,-0.0010361296870145,,
0.00612686968345824,0.0299308987352375,-0.000108601458835178,,
0.0062256901622237,0.0848486164317738,0.000851549008119346,,
0.00632451064098915,0.136198592846972,0.00177475288991324,,
0.00642333111975461,0.182021724467799,0.00261714304457072,,
0.00652215159852006,0.220682284066813,0.0033885487461478,,
0.00662097207728552,0.251137625032512,0.00397694565137963,,
0.00671979255605098,0.271755238250581,0.00443449034572962,,
0.00681861303481643,0.281877394298209,0.00473567212362314,,
0.00691743351358189,0.2814570117395,0.00486050390414494,,
0.00701625399234734,0.269942514801116,0.00478606050815644,,
0.0071150744711128,0.248431588645792,0.00450127598934857,,
0.00721389494987825,0.217420263532607,0.00408169686604287,,
0.00731271542864371,0.177936924982697,0.00347335828686868,,
0.00741153590740916,0.131612318760718,0.00275450714951475,,
0.00751035638617462,0.0800746998999299,0.00192431544448191,,
0.00760917686494007,0.0256916077781353,0.0010382517952312,,
0.00770799734370553,-0.0296229076754202,7.86916189197129E-05,,
0.00780681782247099,-0.0846637512618971,-0.000875753595484419,,
0.00790563830123644,-0.136011082652607,-0.00177691773410471,,
0.0080044587800019,-0.181734210305897,-0.0026220630235958,,
0.00810327925876735,-0.220933120555808,-0.00336612838570405,,
0.00820209973753281,-0.251232934081581,-0.00398060759016561,,
0.00830092021629826,-0.272017889182291,-0.00443405764399163,,
0.00839974069506372,-0.282714544548825,-0.00472715163877524,,
0.00849856117382918,-0.28176956546656,-0.00483333985056955,,
0.00859738165259463,-0.270429287474487,-0.00476892605351686,,
0.00869620213136009,-0.248687009843899,-0.00449939961298318,,
0.00879502261012554,-0.217164092910894,-0.00406658168618224,,
0.008893843088891,-0.177624371255637,-0.00348511468626045,,
0.00899266356765645,-0.131144942933597,-0.00276111386402045,,
0.00909148404642191,-0.0796874021891986,-0.0019361826903066,,
0.00919030452518736,-0.0251942550068109,-0.00101065904641517,,
0.00928912500395282,0.0299323094149647,-8.49137096579078E-05,,
0.00938794548271828,0.08478037479997,0.00086116460230512,,
0.00948676596148373,0.136102159662495,0.00177037245256173,,
0.00958558644024919,0.181779616559617,0.00261882844455164,,
0.00968440691901464,0.22084504124034,0.0033548941664967,,
0.0097832273977801,0.25092990244268,0.00398425617395937,,
0.00988204787654555,0.271702866765708,0.00445190525519967,,
0.00998086835531101,0.281858702791823,0.00474029829282596,,
0.0100796888340765,0.281316825441609,0.00486009791239006,,
0.0101785093128419,0.269870393800063,0.0047828312711089,,
0.0102773297916074,0.248619032714545,0.004498198999209,,
0.0103761502703728,0.217337562433599,0.00405049693390724,,
0.0104749707491383,0.177867625341098,0.00351775028002743,,
0.0105737912279037,0.131638570628766,0.0027840911276269,,
0.0106726117066692,0.080076286914623,0.001957686898304,,
0.0107714321854347,0.0257231717370317,0.00101775989562158,,
0.0108702526642001,-0.0295657751464682,8.30066168107102E-05,,
0.0109690731429656,-0.0846852641277371,-0.000846778605003706,,
0.011067893621731,-0.135954258709845,-0.00176008910877989,,
0.0111667141004965,-0.181866461530323,-0.00262411435035581,,
0.0112655345792619,-0.220879735144881,-0.00335823291447834,,
0.0113643550580274,-0.25132969789412,-0.00397216723526883,,
0.0114631755367928,-0.272058446224448,-0.00442463302618989,,
0.0115619960155583,-0.282357113572943,-0.00473784631630858,,
0.0116608164943238,-0.281917686837917,-0.00483449372187206,,
0.0117596369730892,-0.2705952186774,-0.00477096669628274,,
0.0118584574518547,-0.248880096631561,-0.00447384483593449,,
0.0119572779306201,-0.217397428154522,-0.00407501135708532,,
0.0120560984093856,-0.177714831093145,-0.00346404585099958,,
0.012154918888151,-0.131158873395903,-0.00276633967236029,,
0.0122537393669165,-0.079708033380209,-0.00191420571559497,,
0.0123525598456819,-0.0251884800366777,-0.00100639746849174,,
0.0124513803244474,0.0298869913287281,-0.000100608496168331,,
0.0125502008032129,0.0847758121327273,0.000840085083051001,,
0.0126490212819783,0.136066010994485,0.00174699587469629,,
0.0127478417607438,0.181918215842815,0.00263429886719724,,
0.0128466622395092,0.220846099250136,0.00335821955948612,,
0.0129454827182747,0.250980510577894,0.00394877463141263,,
0.0130443031970401,0.271748008516979,0.00444075116594389,,
0.0131431236758056,0.281887974396163,0.0047470398927496,,
0.013241944154571,0.281427916470127,0.00485535421925842,,
0.0133407646333365,0.269880444893119,0.00476883523957117,,
0.013439585112102,0.248282761934571,0.00450753680956284,,
0.0135384055908674,0.217540523979351,0.00406928206554902,,
0.0136372260696329,0.177869036020825,0.00349050609650048,,
0.0137360465483983,0.1314629630446,0.00277196479495911,,
0.0138348670271638,0.0800040116204743,0.00192790793730957,,
0.0139336875059292,0.0257402762287241,0.00103632867639414,,
0.0140325079846947,-0.0295736661361923,0.000100101006474951,,
0.0141313284634601,-0.0845870455517301,-0.000840977196511883,,
0.0142301489422256,-0.136018973642331,-0.00178069853231877,,
0.0143289694209911,-0.181944401585251,-0.00260896444751602,,
0.0144277898997565,-0.220732627699578,-0.00336263471981679,,
0.014526610378522,-0.251291256871553,-0.003963855088295,,
0.0146254308572874,-0.272187479335746,-0.0044182453335524,,
0.0147242513360529,-0.28241918348094,-0.0047248759481513,,
0.0148230718148183,-0.282001093276789,-0.00483579583358473,,
0.0149218922935838,-0.270430698154214,-0.00477456720210601,,
0.0150207127723492,-0.248494628396101,-0.00450978579020322,,
0.0151195332511147,-0.21746518486517,-0.00406702907841172,,
0.0152183537298802,-0.177604798074422,-0.00349219817397728,,
0.0153171742086456,-0.131141239899313,-0.00275026961057723,,
0.0154159946874111,-0.0796898708787212,-0.00192545596079263,,
0.0155148151661765,-0.025199545055788,-0.00104542609689373,,
0.015613635644942,0.0298739204993806,-9.18369374720562E-05,,
0.0157124561237074,0.0848207775490321,0.000843333017086945,,
0.0158112766024729,0.13613248927663,0.00176793650203466,,
0.0159100970812383,0.181864257343249,0.00260148031004093,,
0.0160089175600038,0.220867788450941,0.00337624078558951,,
0.0161077380387693,0.250985624291905,0.00397724747419703,,
0.0162065585175347,0.271593715421815,0.00444251402487827,,
0.0163053789963002,0.281892206435345,0.0047351833309186,,
0.0164041994750656,0.281252110509123,0.00484894649413281,,
0.0165030199538311,0.270247045287228,0.00477693370667476,,
0.0166018404325965,0.248550614747775,0.00452954583625509,,
0.016700660911362,0.217351140225973,0.00407536927086882,,
0.0167994813901274,0.177868683350893,0.00347045491162401,,
0.0168983018688929,0.131399658791841,0.00277509520506625,,
0.0169971223476584,0.0800886303622361,0.00195119103023167,,
0.0170959428264238,0.0256603964891708,0.00103915726368387,,
0.0171947633051893,-0.0295661278164,0.000112207306655066,,
0.0172935837839547,-0.0846429437359208,-0.000866576045033707,,
0.0173924042627202,-0.135937021966928,-0.00179366890047605,,
0.0174912247414856,-0.181812106277084,-0.00261774669020598,,
0.0175900452202511,-0.220835078314767,-0.00337248536186063,,
0.0176888656990165,-0.251371886034712,-0.0039789943071411,,
0.017787686177782,-0.272198103517442,-0.00443527561925494,,
0.0178865066565474,-0.282217103610018,-0.00475413940645719,,
0.0179853271353129,-0.281831988044489,-0.00483523091742599,,
0.0180841476140784,-0.27057670350598,-0.00475672493289414,,
0.0181829680928438,-0.248870001454763,-0.00451127086530523,,
0.0182817885716093,-0.217472723184962,-0.00408709495377924,,
0.0183806090503747,-0.177581345523957,-0.00348007317680876,,
0.0184794295291402,-0.131166632134402,-0.00277717324181026,,
0.0185782500079056,-0.0796209239070538,-0.00194657821602107,,
0.0186770704866711,-0.0252527982154901,-0.0010223473353479,,
0.0187758909654366,0.0299973549755115,-0.000104785937642404,,
0.018874711444202,0.0847481055012101,0.000852008419841344,,
0.0189735319229675,0.136190503480411,0.00176411964534262,,
0.0190723524017329,0.181883654189498,0.00259767680834067,,
0.0191711728804984,0.220693040499733,0.00337951008761284,,
0.0192699933592638,0.250967461790417,0.00396157138467546,,
0.0193688138380293,0.271555274399249,0.00446220195397418,,
0.0194676343167947,0.282102045044767,0.00473006302701462,,
0.0195664547955602,0.281558404344894,0.00483539919032427,,
0.0196652752743256,0.2699539765739,0.00472538343784423,,
0.0197640957530911,0.248289815333207,0.00449997254213663,,
0.0198629162318566,0.21732504265102,0.00407712144580907,,
0.019961736710622,0.177847346820019,0.00351869047145881,,
0.0200605571893875,0.131573855696281,0.00273828884732108,,
0.0201593776681529,0.0800853020397547,0.00193965231720838,,
0.0202581981469184,0.025720879382475,0.00102936271260612,,
0.0203570186256838,-0.0295816452933993,8.4161823612483E-05,,
0.0204558391044493,-0.0846970785704524,-0.00085096673047147,,
0.0205546595832148,-0.135880021689201,-0.00175984471242741,,
0.0206534800619802,-0.18198919066659,-0.00262667850880538,,
0.0207523005407457,-0.220961334150352,-0.00336750528537166,,
0.0208511210195111,-0.251270096675645,-0.00397483823365397,,
0.0209499414982766,-0.272097901173068,-0.00443575639896432,,
0.021048761977042,-0.282199999118325,-0.00471637148929327,,
0.0211475824558075,-0.281856674939716,-0.00483834930804061,,
0.0212464029345729,-0.270583007481011,-0.00476560333152554,,
0.0213452234133384,-0.24868524649424,-0.00450491388914909,,
0.0214440438921038,-0.217507857926918,-0.0040677128539981,,
0.0215428643708693,-0.177615907177274,-0.00347188923775699,,
0.0216416848496348,-0.131118316353746,-0.00276451137396583,,
0.0217405053284002,-0.0795944736621687,-0.00193699467381547,,
0.0218393258071657,-0.0252064221194581,-0.00104964627434212,,
0.0219381462859311,0.0299534696108728,-8.66138001298644E-05,,
0.0220369667646966,0.0848294179623613,0.000848130130186586,,
0.022135787243462,0.136265952803946,0.00177388748643637,,
0.0222346077222275,0.181904638050441,0.0025836033178499,,
0.0223334282009929,0.22080201550866,0.0033658345758818,,
0.0224322486797584,0.250965522105792,0.00398845498342038,,
0.0225310691585239,0.271640267852813,0.00442989622850742,,
0.0226298896372893,0.281943696245388,0.00474737376754764,,
0.0227287101160548,0.281439554577876,0.00483453111584886,,
0.0228275305948202,0.270230117130501,0.00476400874548943,,
0.0229263510735857,0.248458038890677,0.00449539979290137,,
0.0230251715523511,0.217413386468936,0.00407322445916547,,
0.0231239920311166,0.178065627465934,0.00348456579609202,,
0.023222812509882,0.131419231973056,0.0027704369838828,,
0.0233216329886475,0.0800754052397935,0.00194663964898378,,
0.023420453467413,0.0256364149338083,0.00101512094921707,,
0.0235192739461784,-0.0295066588491498,9.86479833535725E-05,,
0.0236180944249439,-0.0846646329367266,-0.000868488479877083,,
0.0237169149037093,-0.135941606676042,-0.00176324222237323,,
0.0238157353824748,-0.182011937877192,-0.00261697744267098,,
0.0239145558612402,-0.220875855775631,-0.00337448326865264,,
0.0240133763400057,-0.251330226899017,-0.00394393077584176,,
0.0241121968187711,-0.271931661383965,-0.00443635336710324,,
0.0242110172975366,-0.282589302639294,-0.00472692727491086,,
0.0243098377763021,-0.281865668022976,-0.00484503882349596,,
0.0244086582550675,-0.270374094630159,-0.00475809248406689,,
0.024507478733833,-0.248693710572604,-0.0045017941630352,,
0.0246062992125984,-0.217341838556522,-0.00406665647413673,,
0.0247051196913639,-0.177700371625941,-0.0034966240183012,,
0.0248039401701293,-0.131112673634837,-0.00273998092479788,,
0.0249027606488948,-0.079677703766074,-0.00195162106097202,,
0.0250015811276602,-0.0251785611948457,-0.00103248644521736,,
0.0251004016064257,0.0298354794768142,-0.000112179261172241,,
0.0251992220851912,0.0848480874268761,0.000868889129634898,,
0.0252980425639566,0.136048553832861,0.00174923951333961,,
0.0253968630427221,0.182013613059368,0.00262191611868445,,
0.0254956835214875,0.22087043347543,0.00332650679566093,,
0.025594504000253,0.251085077212673,0.00396011034855892,,
0.0256933244790184,0.271878672726712,0.00445378563806287,,
0.0257921449577839,0.281768242954316,0.00474234160659037,,
0.0258909654365493,0.281356148139005,0.00485450217077377,,
0.0259897859153148,0.269949568199752,0.00477875265657479,,
0.0260886063940803,0.248466855638972,0.00452116958532001,,
0.0261874268728457,0.217375827121199,0.00405234526478981,,
0.0262862473516112,0.177887881820306,0.00348682278972756,,
0.0263850678303766,0.131386433669398,0.00274259716771574,,
0.0264838883091421,0.0800791082740774,0.00194281477929614,,
0.0265827087879075,0.0256662155430456,0.0010364648973118,,
0.026681529266673,-0.0295610141023889,0.000111917503330172,,
0.0267803497454384,-0.0847390462923369,-0.0008725377134291,,
0.0268791702242039,-0.135943722695633,-0.00176300583901634,,
0.0269779907029694,-0.181916540660639,-0.00259154953804552,,
0.0270768111817348,-0.220772655736838,-0.00335194004228301,,
0.0271756316605003,-0.251412266741903,-0.00394944238100914,,
0.0272744521392657,-0.271983107110267,-0.00444171806735971,,
0.0273732726180312,-0.282281642207537,-0.00471689500497652,,
0.0274720930967966,-0.281852266565568,-0.00485059450013647,,
0.0275709135755621,-0.27057370581156,-0.00476185324979328,,
0.0276697340543275,-0.248702174650967,-0.00449983765671824,,
0.027768554533093,-0.217307144651981,-0.00408076869410401,,
0.0278673750118585,-0.177496881075291,-0.00348311677946844,,
0.0279661954906239,-0.131213537235332,-0.0027507503902866,,
0.0280650159693894,-0.0796586595897567,-0.00192558416871469,,
0.0281638364481548,-0.0252332691180166,-0.00105456091137057,,
0.0282626569269203,0.029948157520025,-8.43901939742153E-05,,
0.0283614774056857,0.0847801984650041,0.000851164384351843,,
0.0284602978844512,0.136161408211038,0.00178063709935561,,
0.0285591183632166,0.181865139018079,0.00260754881837144,,
0.0286579388419821,0.220956132268858,0.00335136043563322,,
0.0287567593207476,0.251103592384093,0.00396759982803019,,
0.028855579799513,0.271509250973149,0.00443819769148801,,
0.0289544002782785,0.281690126564422,0.00473493492806876,,
0.0290532207570439,0.281532835774838,0.00485885856913981,,
0.0291520412358094,0.270040909712089,0.00477151692194999,,
0.0292508617145748,0.248393852963089,0.00449520748101762,,
0.0293496821933403,0.217237051503035,0.00407323514315916,,
0.0294485026721057,0.177822836259759,0.00350654277080364,,
0.0295473231508712,0.131585141134098,0.00275378330895215,,
0.0296461436296367,0.0800239374716211,0.00194063257361599,,
0.0297449641084021,0.0256418813177512,0.00104750146263877,,
0.0298437845871676,-0.0295733134662605,0.000105517791199716,,
0.029942605065933,-0.0847018396145318,-0.000840699412679502,,
0.0300414255446985,-0.135964353886643,-0.00175491939140571,,
0.0301402460234639,-0.182018241852222,-0.00263602700315291,,
0.0302390665022294,-0.220808672153623,-0.00334817927655706,,
0.0303378869809948,-0.251343319770236,-0.00399544765719284,,
0.0304367074597603,-0.271874881524945,-0.00445460296356881,,
0.0305355279385258,-0.282408250713055,-0.00472591229552455,,
0.0306343484172912,-0.28170202917462,-0.00486359692027483,,
0.0307331688960567,-0.270260182242187,-0.00473523942188514,,
0.0308319893748221,-0.248675724406082,-0.00451587566652112,,
0.0309308098535876,-0.217450504979259,-0.00405719045586039,,
0.031029630332353,-0.177728937890417,-0.00345383195317517,,
0.0311284508111185,-0.131237695125661,-0.00276601781705521,,
0.0312272712898839,-0.0796516502748621,-0.00195164242895896,,
0.0313260917686494,-0.025187025273209,-0.00102843721166579,,
0.0314249122474149,0.0299187095807195,-9.64524226811925E-05,,
0.0315237327261803,0.0847315520562861,0.000844892880143888,,
0.0316225532049458,0.136237584916307,0.00177741320430469,,
0.0317213736837112,0.182017492428617,0.00264602187910912,,
0.0318201941624767,0.220635202630918,0.00336823847442824,,
0.0319190146412421,0.250792890174175,0.00397144339470623,,
0.0320178351200076,0.271570086536384,0.00443924472285495,,
0.032116655598773,0.281943696245388,0.00471904782967458,,
0.0322154760775385,0.281376955664981,0.00486087784391875,,
0.032314296556304,0.270099629255734,0.004764115585425,,
0.0324131170350694,0.248555375791854,0.00451066721966997,,
0.0325119375138349,0.217334564739179,0.00407025163796293,,
