Time domain (s),Current (AC) (A),Potential (AC) (V),Frequency (Hz),Column 5
0,0.236625056499757,0.00329565966824319,6309.6,0.4
4.95277038164067E-06,0.224127927798868,0.00295307086004781,,
9.90554076328135E-06,0.202960463754943,0.00248273203547589,,
1.4858311144922E-05,0.174029624397027,0.00193416234951638,,
1.98110815265627E-05,0.138379327634371,0.00131663666360593,,
2.47638519082034E-05,0.0973776703081738,0.000633724535248792,,
2.9716622289844E-05,0.052874602649252,-4.47031909498463E-05,,
3.46693926714847E-05,0.00717043661036039,-0.000696342047876719,,
3.96221630531254E-05,-0.0385161928920219,-0.00137093075323724,,
4.45749334347661E-05,-0.0841403330459976,-0.00201153824699141,,
4.95277038164067E-05,-0.126899040183368,-0.00255722589506568,,
5.44804741980474E-05,-0.164442418411881,-0.00300048531788111,,
5.94332445796881E-05,-0.195771811376025,-0.00332575306729588,,
6.43860149613288E-05,-0.219419707362134,-0.00353731172519201,,
6.93387853429694E-05,-0.234534349382146,-0.00356888329142446,,
7.42915557246101E-05,-0.240577600409021,-0.00348696754666111,,
7.92443261062508E-05,-0.236949945537939,-0.00329508858339889,,
8.41970964878915E-05,-0.224333086751517,-0.0029564352705691,,
8.91498668695321E-05,-0.203140058883244,-0.00247277076332342,,
9.41026372511728E-05,-0.174014094682478,-0.00193439743687041,,
9.90554076328135E-05,-0.138173057211098,-0.00131540689061094,,
0.000104008178014454,-0.0970391348806651,-0.000648723551963215,,
0.000108960948396095,-0.052307320392522,6.25820277435629E-05,,
0.000113913718777736,-0.00644267034522278,0.000714951651491269,,
0.000118866489159376,0.039201105789774,0.00136506244062051,,
0.000123819259541017,0.0844373735702165,0.00200072977324339,,
0.000128772029922658,0.126774370228395,0.00254672902295106,,
0.000133724800304298,0.164427660551932,0.00300179160515635,,
0.000138677570685939,0.19539551682149,0.00334173013611183,,
0.00014363034106758,0.218989722601632,0.00351355016004717,,
0.00014858311144922,0.234083215805606,0.00358308057155066,,
0.000153535881830861,0.239729301329566,0.00350054495022745,,
0.000158488652212502,0.236517459968533,0.00327067831022676,,
0.000163441422594142,0.224088655836826,0.00293781014231742,,
0.000168394192975783,0.203068338153823,0.00248528029367545,,
0.000173346963357424,0.174059819348975,0.00192090652770682,,
0.000178299733739064,0.138316622166676,0.00131683183046549,,
0.000183252504120705,0.0973678523176632,0.000633167866138429,,
0.000188205274502346,0.0528839266528186,-3.34234335928052E-05,,
0.000193158044883986,0.00720245313916353,-0.000706742445463426,,
0.000198110815265627,-0.0385274928433641,-0.0013687805910747,,
0.000203063585647268,-0.0842817368086961,-0.00200197174416816,,
0.000208016356028908,-0.126743434296032,-0.00255937605722778,,
0.000212969126410549,-0.164513058544863,-0.00300389630231201,,
0.00021792189679219,-0.195850540545213,-0.00333649611578934,,
0.00022287466717383,-0.219433106757988,-0.0035269013474819,,
0.000227827437555471,-0.234482727746506,-0.00358702272033229,,
0.000232780207937112,-0.240495536827962,-0.0035091489255854,,
0.000237732978318752,-0.236882886810302,-0.00326787278662177,,
0.000242685748700393,-0.224468809664361,-0.00297250105159463,,
0.000247638519082034,-0.203135180762172,-0.00249278312874068,,
0.000252591289463674,-0.174066766040374,-0.00194092332873508,,
0.000257544059845315,-0.138180590511993,-0.00131042902679113,,
0.000262496830226956,-0.097046297691352,-0.000651848439520375,,
0.000267449600608596,-0.0523398617824531,6.02455699425519E-05,,
0.000272402370990237,-0.00640037271314919,0.000723397053774999,,
0.000277355141371878,0.0391533743013172,0.00137975318240846,,
0.000282307911753518,0.0845083533192218,0.00198973167714955,,
0.000287260682135159,0.126931797692587,0.00255061461769968,,
0.0002922134525168,0.164416298852221,0.00299635798236331,,
0.00029716622289844,0.195548560151555,0.00334384370448815,,
0.000302118993280081,0.219098646722767,0.00354964494002941,,
0.000307071763661722,0.234104395495827,0.00357170766637394,,
0.000312024534043362,0.239833779568206,0.00351659077100619,,
0.000316977304425003,0.236582481000027,0.00329759803000673,,
0.000321930074806644,0.224166613151414,0.00295369849892557,,
0.000326882845188285,0.202804086013007,0.00246900382115411,,
0.000331835615569925,0.173974915342987,0.00192851803522753,,
0.000336788385951566,0.138253916698982,0.00131787863453026,,
0.000341741156333206,0.0974254017966305,0.000655358116283367,,
0.000346693926714847,0.0528985918902163,-4.84302126246838E-05,,
0.000351646697096488,0.00724709720922076,-0.00071245107610407,,
0.000356599467478129,-0.0385443501478256,-0.00136077209641927,,
0.000361552237859769,-0.0841292183397593,-0.00200316825008517,,
0.00036650500824141,-0.126901324872984,-0.00255401783981268,,
0.000371457778623051,-0.164611670688544,-0.00300939313255411,,
0.000376410549004691,-0.195959464666349,-0.00333093386029359,,
0.000381363319386332,-0.219339496232115,-0.00352842165296119,,
0.000386316089767973,-0.234465623448572,-0.00358114664539766,,
0.000391268860149613,-0.240220139106723,-0.00348659717318922,,
0.000396221630531254,-0.237122408729737,-0.00328119403368543,,
0.000401174400912895,-0.224295667240515,-0.00295256076484707,,
0.000406127171294535,-0.203137774193628,-0.00247221520311536,,
0.000411079941676176,-0.173915359042061,-0.00197087367935023,,
0.000416032712057817,-0.138144899955294,-0.00131194046104977,,
0.000420985482439457,-0.0970238830337714,-0.000613676684948494,,
0.000425938252821098,-0.0523223252459437,6.57246577429049E-05,,
0.000430891023202739,-0.00643235836776834,0.000709260763292363,,
0.000435843793584379,0.0391739982562261,0.00137447924159151,,
0.00044079656396602,0.084500387779751,0.00200452887358837,,
0.000445749334347661,0.126771004942339,0.00254468198873159,,
0.000450702104729301,0.16438375746229,0.00299339277678223,,
0.000455654875110942,0.195507806228681,0.00332489699447969,,
0.000460607645492583,0.219053755659238,0.00352165180252184,,
0.000465560415874223,0.233963423971704,0.00359993145562454,,
0.000470513186255864,0.239895713181301,0.00350392044977488,,
0.000475465956637505,0.236677974851125,0.00326945629954967,,
0.000480418727019145,0.224088655836826,0.00295454126490968,,
0.000485371497400786,0.202836040793442,0.00246278509531273,,
0.000490324267782427,0.173966116200549,0.00192899042773975,,
0.000495277038164067,0.138263703815308,0.00130983465499135,,
0.000500229808545708,0.0973613996132082,0.000640434504946885,,
0.000505182578927349,0.0528686748059249,-5.10073022925717E-05,,
0.000510135349308989,0.00720347198723538,-0.000730435258646356,,
0.00051508811969063,-0.0384942104730172,-0.0013555336404858,,
0.000520040890072271,-0.0841292183397593,-0.00200565330083613,,
0.000524993660453911,-0.126769739100796,-0.00255569560946256,,
0.000529946430835552,-0.164515157989374,-0.0029864510464388,,
0.000534899201217193,-0.195841834025327,-0.00333714482381664,,
0.000539851971598833,-0.219502573671978,-0.00352289599125166,,
0.000544804741980474,-0.234575350298492,-0.00361553593316444,,
0.000549757512362115,-0.240564448006639,-0.00350227262049563,,
0.000554710282743756,-0.236979090767631,-0.00328687605066325,,
0.000559663053125396,-0.224564334389642,-0.00296767178072477,,
0.000564615823507037,-0.203123819062462,-0.0024745139582274,,
0.000569568593888678,-0.173941663846825,-0.00193156197289435,,
0.000574521364270318,-0.138132797275168,-0.0013029772012465,,
0.000579474134651959,-0.0970326513020261,-0.000647749935470898,,
0.0005844269050336,-0.0523765403130395,6.77539495206325E-05,,
0.00058937967541524,-0.0063601127772193,0.000722358012028579,,
0.000594332445796881,0.0392036992212296,0.00138709411769211,,
0.000599285216178522,0.0845256428622592,0.0019928099907971,,
0.000604237986560162,0.126810740017141,0.00258519907232557,,
0.000609190756941803,0.164479776174516,0.00300750910701764,,
0.000614143527323444,0.195495425680899,0.00331232647448365,,
0.000619096297705084,0.219064839491292,0.00351021458099376,,
0.000624049068086725,0.234136659018102,0.00358663127771042,,
0.000629001838468366,0.239946624710709,0.00350822077409951,,
0.000633954608850006,0.236661704156159,0.00329709902383213,,
0.000638907379231647,0.224020269519277,0.00292768142587052,,
0.000643860149613288,0.203030640775164,0.00248951851945423,,
0.000648812919994928,0.174081740019611,0.00191313090259992,,
0.000653765690376569,0.138326934144131,0.00131902967543995,,
0.00065871846075821,0.0973756326120301,0.000654570795429521,,
0.00066367123113985,0.0529185057388933,-4.55193432715717E-05,,
0.000668624001521491,0.00722517653858409,-0.000706296666614037,,
0.000673576771903132,-0.0385063749015114,-0.00137847683550385,,
0.000678529542284772,-0.0841728126875607,-0.00201547817796799,,
0.000683482312666413,-0.126737259459232,-0.00257963016341467,,
0.000688435083048054,-0.16455461519652,-0.00299876097432161,,
0.000693387853429694,-0.195867830088251,-0.00331104125635795,,
0.000698340623811335,-0.219351598912241,-0.00353723631981451,,
0.000703293394192976,-0.234573806589292,-0.00361349666126287,,
0.000708246164574616,-0.240542465587635,-0.00349866646920516,,
0.000713198934956257,-0.237078011653152,-0.00327842288606117,,
0.000718151705337898,-0.224597369766517,-0.00294543273886472,,
0.000723104475719538,-0.203133575304605,-0.002501312807623,,
0.000728057246101179,-0.173988345613025,-0.00194173948105636,,
0.00073301001648282,-0.138161757259756,-0.00129673740625513,,
0.00073796278686446,-0.0970945231667527,-0.000643133573901888,,
0.000742915557246101,-0.052320781536744,5.59441367156133E-05,,
0.000747868327627742,-0.00638610884014336,0.000712830320796609,,
0.000752821098009382,0.039168070412899,0.00138324844343751,,
0.000757773868391023,0.0844260427446903,0.0020150412703388,,
0.000762726638772664,0.126813333448597,0.00256598400788555,,
0.000767679409154304,0.164228398568426,0.00301945864155195,,
0.000772632179535945,0.195492554381788,0.00331510760223175,,
0.000777584949917586,0.219010624424196,0.00353136578939273,,
0.000782537720299226,0.233984356668453,0.00359349982048185,,
0.000787490490680867,0.239807752631098,0.00350738687933649,,
0.000792443261062508,0.236529562648659,0.00326877765115174,,
0.000797396031444149,0.224196838977546,0.002950881886294,,
0.000802348801825789,0.203101867517642,0.00247564171218251,,
0.00080730157220743,0.173964850359005,0.00192089765648573,,
0.00081225434258907,0.138332368000514,0.00130985239743309,,
0.000817207112970711,0.0974137931034483,0.000620199250104925,,
0.000822159883352352,0.0529068661715271,-4.07909825388408E-05,,
0.000827112653733993,0.00721998967567287,-0.000712396739876109,,
0.000832065424115633,-0.0385554031056959,-0.00137544620466823,,
0.000837018194497274,-0.0841227965094883,-0.00199885905453945,,
0.000841970964878915,-0.126850258972655,-0.00255776371283201,,
0.000846923735260555,-0.164545599934794,-0.0029828071924598,,
0.000851876505642196,-0.195787618958231,-0.00331859620984565,,
0.000856829276023837,-0.219470094030415,-0.0035127927795644,,
0.000861782046405477,-0.234498411831975,-0.00358592934235791,,
0.000866734816787118,-0.240514864067143,-0.00351409019561899,,
0.000871687587168759,-0.237059178400915,-0.00327742154700328,,
0.000876640357550399,-0.224465969239433,-0.00295696532601708,,
0.00088159312793204,-0.203199152071411,-0.00247604424383052,,
0.000886545898313681,-0.174065778066486,-0.00192582229298077,,
0.000891498668695321,-0.13808327508404,-0.00131717669917775,,
0.000896451439076962,-0.0969890569542247,-0.000643617055440249,,
0.000901404209458603,-0.0523063324186342,6.04119053342345E-05,,
0.000906356979840243,-0.00644372006747862,0.000726232517751058,,
0.000911309750221884,0.0392230264604107,0.00139281383735845,,
0.000916262520603525,0.0844688652378918,0.00201875609408519,,
0.000921215290985165,0.126839885246833,0.00255240216870822,,
0.000926168061366806,0.164437416794074,0.00299546864246958,,
0.000931120831748447,0.195576470413887,0.00335429178488722,,
0.000936073602130087,0.218958230933956,0.00351974449003123,,
0.000941026372511728,0.234070063403224,0.00357459081316236,,
0.000945979142893369,0.240000778029437,0.00352179152425069,,
0.000950931913275009,0.236567013033846,0.00328319338509253,,
0.00095588468365665,0.224038330916914,0.00294252076060841,,
0.000960837454038291,0.20307349414255,0.00250228420630982,,
0.000965790224419931,0.173914000577965,0.00189699193400195,,
0.000970742994801572,0.138323568858075,0.00132148478582073,,
0.000975695765183213,0.0973877352921562,0.000641352676308937,,
0.000980648535564854,0.0529313802736194,-5.61515015040648E-05,,
0.000985601305946494,0.00725018462762029,-0.00071973767515976,,
0.000990554076328135,-0.0385211327614611,-0.00136573110889504,,
0.000995506846709775,-0.084071915854264,-0.0020186762530976,,
0.00100045961709142,-0.12683321642309,-0.00256147077425961,,
0.00100541238747306,-0.16449008815197,-0.00299051961011765,,
0.0010103651578547,-0.195697281095861,-0.0033230174045551,,
0.00101531792823634,-0.219528384489798,-0.00352222843187988,,
0.00102027069861798,-0.234591898861113,-0.00358885906305595,,
0.00102522346899962,-0.240427181384596,-0.0034937529217367,,
0.00103017623938126,-0.237208856444924,-0.0033008360256308,,
0.0010351290097629,-0.224478874648343,-0.00293872276916662,,
0.00104008178014454,-0.203309064166434,-0.00248731512996692,,
0.00104503455052618,-0.173899551459855,-0.0019563015901416,,
0.00104998732090782,-0.138046164314877,-0.0013095396868974,,
0.00105494009128946,-0.096967321528692,-0.000631455720507823,,
0.0010598928616711,-0.0523687600186727,4.34778535645108E-05,,
0.00106484563205274,-0.00640907923303587,0.000724777637525431,,
0.00106979840243439,0.0391451000200065,0.0013838405974318,,
0.00107475117281603,0.0844366017156167,0.00201197182791191,,
0.00107970394319767,0.126871901775636,0.00254833249612663,,
0.00108465671357931,0.164420127251037,0.00300314446634165,,
0.00108960948396095,0.19547603669335,0.0033148281587736,,
0.00109456225434259,0.219009080714997,0.00354281188214145,,
0.00109951502472423,0.233988493809109,0.00357035480518908,,
0.00110446779510587,0.239915133043034,0.00351405138402727,,
0.00110942056548751,0.236660685308087,0.00329139704660708,,
0.00111437333586915,0.224007394984551,0.0029299879433009,,
0.00111932610625079,0.202985471843979,0.00250052105115861,,
0.00112427887663243,0.174038392665282,0.00194422009619633,,
0.00112923164701407,0.138271978096619,0.00129626390484017,,
0.00113418441739571,0.0973637151770079,0.000641639882084988,,
0.00113913718777736,0.0529391296938022,-4.07721311947995E-05,,
0.001144089958159,0.007199365720764,-0.000718883820149507,,
0.00114904272854064,-0.0385265048694763,-0.00138113598396439,,
0.00115399549892228,-0.0841810869688714,-0.00200140620383671,,
0.00115894826930392,-0.126757821665773,-0.00258313429566481,,
0.00116390103968556,-0.164563692206615,-0.00300226510657176,,
0.0011688538100672,-0.195781629366536,-0.00332594712525269,,
0.00117380658044884,-0.219385375269532,-0.00352938639823286,,
0.00117875935083048,-0.234411531878212,-0.00359126870842941,,
0.00118371212121212,-0.240429960061156,-0.00350207745363607,,
0.00118866489159376,-0.237083198516063,-0.0032867928829674,,
0.0011936176619754,-0.224386252096357,-0.00293815722883517,,
0.00119857043235704,-0.203184702953301,-0.00248040001328587,,
0.00120352320273868,-0.173945739239112,-0.00194949736372152,,
0.00120847597312032,-0.138230915431905,-0.0013069060431965,,
0.00121342874350197,-0.096993379339984,-0.000649243627287799,,
0.00121838151388361,-0.0523347366679099,6.69023123154311E-05,,
0.00122333428426525,-0.00641401910247512,0.000732471203839236,,
0.00122828705464689,0.0391500090152617,0.00138161835659956,,
0.00123323982502853,0.0844866796420571,0.00201884037068334,,
0.00123819259541017,0.126738216558936,0.00256444485106178,,
0.00124314536579181,0.164409043418982,0.00299795258431779,,
0.00124809813617345,0.195534635894573,0.00333308069574789,,
0.00125305090655509,0.21895075938143,0.00350842481218017,,
0.00125800367693673,0.234104642489299,0.00358668672284113,,
0.00126295644731837,0.239998215472165,0.00351003715657638,,
0.00126790921770001,0.236642346042794,0.00327827207530573,,
0.00127286198808165,0.224206626093872,0.00294022089659363,,
0.00127781475846329,0.202990133845762,0.00250984692211542,,
0.00128276752884493,0.173976706045659,0.00193427323977735,,
0.00128772029922658,0.13827531250849,0.00130836868573958,,
0.00129267306960822,0.0974215425236311,0.00064829551555512,,
0.00129762583998986,0.0528864892100902,-4.87639923107963E-05,,
0.0013025786103715,0.00723135137538315,-0.000695387282728888,,
0.00130753138075314,-0.038521626748405,-0.00137452803330662,,
0.00131248415113478,-0.084164106167674,-0.00199385235925176,,
0.00131743692151642,-0.126686131810536,-0.00256193429555118,,
0.00132238969189806,-0.164495275014881,-0.00299282058303518,,
0.0013273424622797,-0.195726920312496,-0.00333441914119925,,
0.00133229523266134,-0.219439343343155,-0.00351618602155357,,
0.00133724800304298,-0.234318291842547,-0.00359200945537319,,
0.00134220077342462,-0.240450151777489,-0.00350261527140239,,
0.00134715354380626,-0.23694531441034,-0.00328052647431365,,
0.0013521063141879,-0.224606632021716,-0.00295556478201986,,
0.00135705908456954,-0.203014400954383,-0.00250835655700676,,
0.00136201185495119,-0.173856945085941,-0.00193598316760379,,
0.00136696462533283,-0.138157373125628,-0.0013180205740646,,
0.00137191739571447,-0.0969928853530401,-0.000624085953756293,,
0.00137687016609611,-0.0523385650667253,8.28450051510998E-05,,
0.00138182293647775,-0.00636165648641906,0.000701993015581159,,
0.00138677570685939,0.0391995620805742,0.0013893185763294,,
0.00139172847724103,0.0844296550242177,0.0020180419608038,,
0.00139668124762267,0.126846615818944,0.00255526535524941,,
0.00140163401800431,0.164342200810633,0.00301712994606929,,
0.00140658678838595,0.195383908128308,0.00334009783146882,,
0.00141153955876759,0.218991791171959,0.00352338612620517,,
0.00141649232914923,0.234071082251296,0.00357609226729716,,
0.00142144509953087,0.239952552554036,0.0035136521790875,,
0.00142639786991251,0.236562598025534,0.00330238183586973,,
0.00143135064029415,0.223970469460492,0.0029506689769927,,
0.0014363034106758,0.202810260849806,0.00249663989202054,,
0.00144125618105744,0.173957100938822,0.00193399823193019,,
0.00144620895143908,0.138280221503746,0.00131118529837115,,
0.00145116172182072,0.0973988499983945,0.000625779248042413,,
0.00145611449220236,0.0529182278712374,-2.93715034529463E-05,,
0.001461067262584,0.00723780407983817,-0.000695850804020015,,
0.00146602003296564,-0.0385071158819272,-0.00135881488331124,,
0.00147097280334728,-0.0841220555290724,-0.00199255383429442,,
0.00147592557372892,-0.126885085052202,-0.00256460342413511,,
0.00148087834411056,-0.164642915362747,-0.00300709437744162,,
0.0014858311144922,-0.195804599759428,-0.00332939470346982,,
0.00149078388487384,-0.219332765660004,-0.00352247904386971,,
0.00149573665525548,-0.234545711081856,-0.00360132645510935,,
0.00150068942563712,-0.240491646680778,-0.0034871993073069,,
0.00150564219601877,-0.237207312735724,-0.00328063847347737,,
0.00151059496640041,-0.224348832585355,-0.00294076204106819,,
0.00151554773678205,-0.20322008476816,-0.00248648123520345,,
0.00152050050716369,-0.174024715401772,-0.00194755123963963,,
0.00152545327754533,-0.138042459412798,-0.00129252912084743,,
0.00153040604792697,-0.097007087477678,-0.000652599166587997,,
0.00153535881830861,-0.0523607327308339,7.52811804427544E-05,,
0.00154031158869025,-0.00638876401996695,0.000715461746692014,,
0.00154526435907189,0.0392328444509212,0.00133932924663371,,
0.00155021712945353,0.0844988131963672,0.00199011313964759,,
0.00155516989983517,0.126831394846234,0.00255324493469233,,
0.00156012267021681,0.164275605195755,0.00299700779929335,,
0.00156507544059845,0.195591166525469,0.0033255911675143,,
0.00157002821098009,0.218968820779067,0.00352309781152638,,
0.00157498098136173,0.233873610970462,0.00356973381972692,,
0.00157993375174338,0.240038475408095,0.00349793237567653,,
0.00158488652212502,0.236634596622611,0.00328728080011587,,
0.00158983929250666,0.224074731579844,0.00294400447230148,,
