Time domain (s),Current (AC) (A),Potential (AC) (V),Frequency (Hz),Column 5
0,0.366367965799455,0.0209522476631268,0.0063096,0.5
0.386935186065678,0.362007827321956,0.0209048719235834,,
0.773870372131355,0.357694761099092,0.0208288488534172,,
1.16080555819703,0.353427632859666,0.0207785283695512,,
1.54774074426271,0.348982140474667,0.0207243557971735,,
1.93467593032839,0.344297033299508,0.0206698656543298,,
2.32161111639407,0.33927561471473,0.0206024087381667,,
2.70854630245974,0.334700815413384,0.0205396493903272,,
3.09548148852542,0.329856343135185,0.0204757104950422,,
3.4824166745911,0.324747869236112,0.020389413814081,,
3.86935186065678,0.319989034433212,0.0202642168131604,,
4.25628704672245,0.314796057330036,0.0201642274835279,,
4.64322223278813,0.309737774931387,0.0200875197809278,,
5.03015741885381,0.304165384113142,0.0199919805621138,,
5.41709260491949,0.299166083816686,0.0198752796022359,,
5.80402779098517,0.293604185007005,0.0197413555999333,,
6.19096297705084,0.288330674648911,0.0196752019599686,,
6.57789816311652,0.282670944948573,0.01953487293255,,
6.9648333491822,0.277170296783476,0.0194026522627477,,
7.35176853524788,0.271432869506211,0.0192790884813676,,
7.73870372131355,0.265599064623258,0.0191627834534995,,
8.12563890737923,0.25976972593314,0.0189847790207769,,
8.51257409344491,0.254007309243587,0.0188430683556158,,
8.89950927951059,0.248054973020651,0.0186899045322138,,
9.28644446557626,0.242084453012603,0.0185353796925281,,
9.67337965164194,0.236075048770117,0.018389969537651,,
10.0603148377076,0.229905216045344,0.0182382492163677,,
10.4472500237733,0.223988006783509,0.0180422298772007,,
10.834185209839,0.217700174408375,0.017884933513447,,
11.2211203959047,0.21134712143947,0.0177061990810814,,
11.6080555819703,0.205253533006654,0.0175120233003345,,
11.994990768036,0.198750472672075,0.0173214191562594,,
12.3819259541017,0.192397703270969,0.0171569918920382,,
12.7688611401674,0.185962415640352,0.0169794988714944,,
13.155796326233,0.179464459526155,0.0167652666598785,,
13.5427315122987,0.172867821817905,0.0165549154068163,,
13.9296666983644,0.166316554957495,0.0163441228545351,,
14.3166018844301,0.159830508690857,0.0161464744201196,,
14.7035370704958,0.153141959569754,0.0159367129407801,,
15.0904722565614,0.146365008187311,0.0157078848605958,,
15.4774074426271,0.139652674817067,0.0154885220300196,,
15.8643426286928,0.132955618661994,0.0152376743560843,,
16.2512778147585,0.126042838303828,0.0150148347475474,,
16.6382130008241,0.119342166659318,0.0147913311280359,,
17.0251481868898,0.112462776409484,0.0145584736147937,,
17.4120833729555,0.105745055251059,0.0143322603355904,,
17.7990185590212,0.0986717400726813,0.0140750571280397,,
18.1859537450869,0.0917881317518379,0.0138354522734647,,
18.5728889311525,0.0848324972100473,0.0135683961328792,,
18.9598241172182,0.0779276213042786,0.0133221594171404,,
19.3467593032839,0.0708897521007766,0.0130640447411086,,
19.7336944893496,0.0638592556600487,0.0128028121005004,,
20.1206296754152,0.0568956457739111,0.0125367952814406,,
20.5075648614809,0.0498716713925603,0.0122700402141542,,
20.8945000475466,0.0427983916601576,0.0120064443543626,,
21.2814352336123,0.0357630745668466,0.0117577990522308,,
21.6683704196779,0.0287053556174143,0.0114756645009404,,
22.0553056057436,0.0216952760582148,0.011183912101246,,
22.4422407918093,0.014612886710269,0.0108841420783539,,
22.829175977875,0.0075231245995491,0.0106081609703819,,
23.2161111639407,0.00039026018338046,0.0103407088977865,,
23.6030463500063,-0.00668128269625337,0.0100319149245052,,
23.989981536072,-0.0137736678091141,0.00977196906292832,,
24.3769167221377,-0.0208398937925166,0.00945255091405173,,
24.7638519082034,-0.0279402188037494,0.00913643632288164,,
25.150787094269,-0.0350103438443882,0.00886568069257976,,
25.5377222803347,-0.0419991558186624,0.00856247513464492,,
25.9246574664004,-0.0491158568702877,0.00824502427294149,,
26.3115926524661,-0.0560743270900684,0.00790071602324272,,
26.6985278385318,-0.0630702282593176,0.00760259159276622,,
27.0854630245974,-0.0700488317928276,0.00730915648203023,,
27.4723982106631,-0.0770648662758063,0.00700041200025048,,
27.8593333967288,-0.0840106468365814,0.00668191769272974,,
28.2462685827945,-0.0910413559531586,0.00636434722656531,,
28.6332037688601,-0.0979774243168178,0.00606032093456843,,
29.0201389549258,-0.104893926502346,0.00570647319800921,,
29.4070741409915,-0.111782071907973,0.00540040125729524,,
29.7940093270572,-0.118638174152313,0.00507705678265502,,
30.1809445131229,-0.125365536615905,0.00473714915227319,,
30.5678796991885,-0.132226743080627,0.00442926252318099,,
30.9548148852542,-0.138931987255896,0.00407744393817167,,
31.3417500713199,-0.145665021075468,0.00376502058813433,,
31.7286852573856,-0.152287463453428,0.00343353888583531,,
32.1156204434512,-0.158953575272434,0.00309774317434641,,
32.5025556295169,-0.165661371557895,0.00277400689198837,,
32.8894908155826,-0.172143447875347,0.00242480723225214,,
33.2764260016483,-0.178826857330093,0.00208816191665928,,
33.663361187714,-0.185434554182505,0.00176896647953795,,
34.0502963737796,-0.191782219363229,0.00139244751112821,,
34.4372315598453,-0.19795414340052,0.00109012042733969,,
34.824166745911,-0.20435986908809,0.000741535287077433,,
35.2111019319767,-0.210732417343177,0.000396039241349122,,
35.5980371180423,-0.217101988136374,5.48530805191128E-05,,
35.984972304108,-0.223229321137271,-0.00027144026273529,,
36.3719074901737,-0.229315749483162,-0.000632398278303192,,
36.7588426762394,-0.235361202282097,-0.000937676292851908,,
37.1457778623051,-0.241555740851358,-0.00128142982530788,,
37.5327130483707,-0.247477770765776,-0.00164369317921986,,
37.9196482344364,-0.253151466180216,-0.00195561955209955,,
38.3065834205021,-0.259258382299585,-0.00231926660589998,,
38.6935186065678,-0.264980426023754,-0.00263094552127319,,
39.0804537926334,-0.270883740463438,-0.00297722105814557,,
39.4673889786991,-0.276543753731575,-0.00333074297565483,,
39.8543241647648,-0.282028522099927,-0.0036426837835557,,
40.2412593508305,-0.287484933688379,-0.00397662150160283,,
40.6281945368962,-0.293039176167488,-0.00432524169834547,,
41.0151297229618,-0.298341326873281,-0.00464211722134689,,
41.4020649090275,-0.303801070383371,-0.00497714169027486,,
41.7890000950932,-0.309236639738596,-0.00531551508411887,,
42.1759352811589,-0.314278120745154,-0.00565534022866565,,
42.5628704672245,-0.319537736281096,-0.0059656519413176,,
42.9498056532902,-0.324375899175768,-0.0063059225093749,,
43.3367408393559,-0.329460624271674,-0.00664045206329078,,
43.7236760254216,-0.334145447879033,-0.00697230907614088,,
44.1106112114873,-0.33936394608412,-0.00727130373218055,,
44.4975463975529,-0.343737341356223,-0.0076026348978302,,
44.8844815836186,-0.348344821846404,-0.00793163583863077,,
45.2714167696843,-0.353103940217102,-0.00824188156261441,,
45.65835195575,-0.357659953151764,-0.00852876523587653,,
46.0452871418156,-0.362116292005075,-0.00887260125416756,,
46.4322223278813,-0.366116866513436,-0.0091779493816766,,
46.819157513947,-0.370760856357739,-0.00949802329294425,,
47.2060927000127,-0.374644033797312,-0.00977710793047226,,
47.5930278860784,-0.378681684795392,-0.0101162566911688,,
47.979963072144,-0.383005313918769,-0.0104138490880072,,
48.3668982582097,-0.386734514043483,-0.0107275427199092,,
48.7538334442754,-0.390490653109101,-0.0110012637159924,,
49.1407686303411,-0.393879855442807,-0.011304285742944,,
49.5277038164067,-0.397539297888965,-0.0115994015025755,,
49.9146390024724,-0.401133874201101,-0.0118746567351962,,
50.3015741885381,-0.404467426354252,-0.0121641985145029,,
50.6885093746038,-0.407990472689089,-0.0124473393929851,,
51.0754445606695,-0.410965949604047,-0.012734967500911,,
51.4623797467351,-0.414087747503292,-0.0130137716865986,,
51.8493149328008,-0.417240737860427,-0.0133072707238568,,
52.2362501188665,-0.420289658835328,-0.0135618055146338,,
52.6231853049322,-0.423091025121697,-0.013804363362115,,
53.0101204909978,-0.425920181052368,-0.0140886116129368,,
53.3970556770635,-0.428479947573985,-0.0143798010468048,,
53.7839908631292,-0.431188303622281,-0.0146172633318065,,
54.1709260491949,-0.433547304142202,-0.014889942944218,,
54.5578612352606,-0.435565101707971,-0.0151341505084064,,
54.9447964213262,-0.43790779707945,-0.0153678328800022,,
55.3317316073919,-0.439961891323492,-0.0155834013621514,,
55.7186667934576,-0.441843647237688,-0.0158503420225675,,
56.1056019795233,-0.443959913721661,-0.0160798836052276,,
56.4925371655889,-0.445879951288723,-0.0163114708366052,,
56.8794723516546,-0.4473400418858,-0.0165371170256905,,
57.2664075377203,-0.448900231915924,-0.0167564344890567,,
57.653342723786,-0.450763768599035,-0.0169835159316776,,
58.0402779098517,-0.452059177196839,-0.0172384940838191,,
58.4272130959173,-0.45320443664507,-0.0174274052061234,,
58.814148281983,-0.454492188912301,-0.0176323825070113,,
59.2010834680487,-0.455511969609472,-0.0178297381167112,,
59.5880186541144,-0.456730956685444,-0.0180111904573526,,
59.97495384018,-0.457345731673687,-0.0181890134212375,,
60.3618890262457,-0.45817403321458,-0.0184012824699717,,
60.7488242123114,-0.45873528478076,-0.0186247365979821,,
61.1357593983771,-0.459328437724329,-0.0187828619443815,,
61.5226945844428,-0.459836024084547,-0.0189360711349926,,
61.9096297705084,-0.45986097805086,-0.019107856135729,,
62.2965649565741,-0.460178290417946,-0.019300774007486,,
62.6835001426398,-0.460350699639741,-0.0194215497676309,,
63.0704353287055,-0.460352117478736,-0.0196162658305994,,
63.4573705147711,-0.460166097002589,-0.0198042510494014,,
63.8443057008368,-0.459557276938126,-0.019930998784027,,
64.2312408869025,-0.459481564335791,-0.0200659456106882,,
64.6181760729682,-0.45925109460715,-0.0201915220464515,,
65.0051112590339,-0.458656949176285,-0.0203415142894832,,
65.3920464450995,-0.458120509792518,-0.0204475085879303,,
65.7789816311652,-0.457173960479439,-0.0205904235462882,,
66.1659168172309,-0.455999351764012,-0.0207422799691992,,
66.5528520032966,-0.455613770449315,-0.0208180514575678,,
66.9397871893622,-0.454511967766281,-0.0209723659583729,,
67.3267223754279,-0.453165871424405,-0.0210459598206878,,
67.7136575614936,-0.451755192516306,-0.0211484567197155,,
68.1005927475593,-0.450341890606065,-0.0212283030083511,,
68.4875279336249,-0.448858547449471,-0.0213253558422442,,
68.8744631196906,-0.447344862538383,-0.0214187628022144,,
69.2613983057563,-0.445704706388939,-0.0215030468287924,,
69.648333491822,-0.443430492640919,-0.0215719884899928,,
70.0352686778877,-0.441929284712988,-0.0216257197631511,,
70.4222038639533,-0.439730499999504,-0.0217050546396074,,
70.809139050019,-0.43776261036636,-0.0217680078291598,,
71.1960742360847,-0.435509309743517,-0.0218086568488287,,
71.5830094221504,-0.433054392415582,-0.0219156079829661,,
71.9699446082161,-0.430564738032269,-0.0219216459461151,,
72.3568797942817,-0.428342417191468,-0.0219601833283987,,
72.7438149803474,-0.425587272456337,-0.0219970544968078,,
73.1307501664131,-0.422622925577489,-0.0220266339173705,,
73.5176853524788,-0.419692181482824,-0.0220459191056794,,
73.9046205385444,-0.416846862187609,-0.0220526829441798,,
74.2915557246101,-0.413753988203863,-0.0220771317457826,,
74.6784909106758,-0.410761709896814,-0.0221054078901464,,
75.0654260967415,-0.407287224547557,-0.0220820314044032,,
75.4523612828071,-0.404003863894829,-0.0220813880148873,,
75.8392964688728,-0.400727734220976,-0.022096532414261,,
76.2262316549385,-0.397046953297943,-0.0220670024851994,,
76.6131668410042,-0.393728997373737,-0.02207838553048,,
77.0001020270699,-0.389861416163109,-0.0220516601198213,,
77.3870372131355,-0.386247628132591,-0.0219859354062004,,
77.7739723992012,-0.382248471463225,-0.021996625570464,,
78.1609075852669,-0.378209827977848,-0.0219751957504357,,
78.5478427713326,-0.374235979734544,-0.0219020968031329,,
78.9347779573982,-0.36987158774006,-0.0218753713924738,,
79.3217131434639,-0.365652098890867,-0.0217808426251431,,
79.7086483295296,-0.361539515101899,-0.0217605676068096,,
80.0955835155953,-0.356980312029499,-0.0217029100078876,,
80.482518701661,-0.352503060051011,-0.0216466381710001,,
80.8694538877266,-0.348030345157307,-0.0215708996769659,,
81.2563890737923,-0.343321418287032,-0.0214958870582826,,
81.643324259858,-0.338745201146691,-0.0213951883504664,,
82.0302594459237,-0.333704216383782,-0.0212976076072269,,
82.4171946319893,-0.32862105091077,-0.021229226849707,,
82.804129818055,-0.323673289061783,-0.0211199661121793,,
83.1910650041207,-0.318639677061648,-0.0210525091960161,,
83.5780001901864,-0.313608900739502,-0.0209140814671023,,
83.9649353762521,-0.308427053672437,-0.0208221427550019,,
84.3518705623177,-0.302996942997343,-0.0207098630358997,,
84.7388057483834,-0.29762928812998,-0.0205815480704024,,
85.1257409344491,-0.292223068041952,-0.0204827465367994,,
85.5126761205148,-0.286809120731401,-0.0203356248008379,,
85.8996113065804,-0.281314214814234,-0.0202010409118527,,
86.2865464926461,-0.27588417503109,-0.0200685026715846,,
86.6734816787118,-0.269915427321786,-0.0199710044141801,,
87.0604168647775,-0.264390321434025,-0.019784850380923,,
87.4473520508432,-0.25847594785018,-0.0196661367666624,,
87.8342872369088,-0.252550798689973,-0.0195011321015937,,
88.2212224229745,-0.246511088138969,-0.0193477249449772,,
88.6081576090402,-0.240542269537715,-0.0191839740646058,,
88.9950927951059,-0.234542258478571,-0.0190275479264153,,
89.3820279811715,-0.228436193062599,-0.0188244842969079,,
89.7689631672372,-0.22238910974882,-0.0186821302422309,,
90.1558983533029,-0.216166001723809,-0.0184881070602794,,
90.5428335393686,-0.209838115397065,-0.0182962285100481,,
90.9297687254343,-0.20367023220091,-0.0181005886057237,,
91.3167039114999,-0.197306687223442,-0.0179274013457862,,
91.7036390975656,-0.190927262449229,-0.0177377499131097,,
92.0905742836313,-0.184246405104674,-0.0175241115995082,,
92.477509469697,-0.177981612613209,-0.0173240174600737,,
92.8644446557626,-0.17139596315717,-0.0171087294297649,,
93.2513798418283,-0.164772102940215,-0.0169229218370166,,
93.638315027894,-0.158132433818466,-0.0167090381280546,,
94.0252502139597,-0.151489787234827,-0.016475749626323,,
94.4121854000254,-0.144768663262813,-0.0162687122416965,,
94.799120586091,-0.138118998376149,-0.0160383107442024,,
95.1860557721567,-0.131336340191751,-0.0158019063400396,,
95.5729909582224,-0.124541205024198,-0.0155360544926504,,
95.9599261442881,-0.117619598618288,-0.0153539092709925,,
96.3468613303537,-0.110846298171257,-0.0150959925609655,,
96.7337965164194,-0.103931568284473,-0.0148686121071919,,
97.1207317024851,-0.0971040354958828,-0.0145784125033481,,
97.5076668885508,-0.0900897024196982,-0.0143576123570912,,
97.8946020746165,-0.0832060940988548,-0.0141095300207859,,
98.2815372606821,-0.0762314605145309,-0.0138528980276451,,
98.6684724467478,-0.069258528337001,-0.013583433300667,,
99.0554076328135,-0.0622654628457418,-0.0133260939914877,,
99.4423428188792,-0.0552505626339592,-0.0130926425802311,,
99.8292780049448,-0.048201917854095,-0.0128083798943881,,
100.216213191011,-0.0410996787602189,-0.012560726484427,,
100.603148377076,-0.0341051954299646,-0.0122708691967999,,
100.990083563142,-0.0270191197006318,-0.0119642219173839,,
101.377018749208,-0.0199500580392393,-0.0117256378250215,,
101.763953935273,-0.0128393828033428,-0.0114373848868925,,
102.150889121339,-0.005729062027195,-0.0111566979620128,,
102.537824307405,0.00131781045392541,-0.0108719919148044,,
102.92475949347,0.00840303547986123,-0.0105838194003649,,
103.311694679536,0.0155693963422873,-0.0102666118718764,,
103.698629865602,0.0225808228485321,-0.00997571732486957,,
104.085565051667,0.0296499199558995,-0.00972040922938655,,
104.472500237733,0.0366628351930891,-0.0093875933187002,,
104.859435423799,0.0437375682104618,-0.00910202529451265,,
105.246370609864,0.050780222620572,-0.00880679405471163,,
105.63330579593,0.0577653482134591,-0.00848447034228395,,
106.020240981996,0.0646963478027111,-0.00819194463788309,,
106.407176168061,0.071728545650233,-0.00787562795641605,,
106.794111354127,0.0787814085011074,-0.00760030879727269,,
107.181046540193,0.0857246015057167,-0.00726419345317186,,
107.567981726258,0.0926362830386615,-0.0069436369997673,,
107.954916912324,0.0995020620341424,-0.00664315759869094,,
108.34185209839,0.106463013472164,-0.00631471343727918,,
108.728787284455,0.113315181213293,-0.00598175523852706,,
109.115722470521,0.12006097558382,-0.00569341569027104,,
109.502657656587,0.126971806413368,-0.00536627892934982,,
109.889592842652,0.133722988572076,-0.00503679544641233,,
110.276528028718,0.140526347205801,-0.00470450950721846,,
110.663463214784,0.147258530321976,-0.00439487417841633,,
111.050398400849,0.153871366840744,-0.00409591251671104,,
111.437333586915,0.160513339950861,-0.00376894072746037,,
111.824268772981,0.167073680980838,-0.00343343577854149,,
112.211203959047,0.173712322169316,-0.0031118400036112,,
112.598139145112,0.180164871989697,-0.00276351881802173,,
112.985074331178,0.186715004578911,-0.00244302629113946,,
113.372009517244,0.193193394514976,-0.00213296409813912,,
113.758944703309,0.199663277417072,-0.00178008969443777,,
114.145879889375,0.20577898413821,-0.00145281683188836,,
114.532815075441,0.212106516005205,-0.00113041682006321,,
114.919750261506,0.218415332397465,-0.00080114780029783,,
115.306685447572,0.224447670185696,-0.000474602875245367,,
115.693620633638,0.230757620849152,-0.000172787203636116,,
116.080555819703,0.236873859259914,0.000182297820453314,,
116.467491005769,0.242766717137009,0.000492345578432474,,
116.854426191835,0.248847580464844,0.000832484169153158,,
117.2413613779,0.254951022878675,0.00116726118057553,,
117.628296563966,0.260556910143178,0.00149143051356937,,
118.015231750032,0.266195124136766,0.00180563555765056,,
118.402166936097,0.272160220910658,0.00215954928287765,,
118.789102122163,0.27775047650024,0.00247729709358824,,
119.176037308229,0.283297594338399,0.00281394240918154,,
119.562972494294,0.288891855323142,0.00314926382711711,,
119.94990768036,0.294279359936435,0.00345912599196607,,
120.336842866426,0.299523946379031,0.0037844377537799,,
120.723778052491,0.305099172875265,0.00409433703725526,,
121.110713238557,0.310275135910501,0.00441585032635006,,
121.497648424623,0.315431816335405,0.00473607683641353,,
121.884583610688,0.320546528726056,0.00506075758158619,,
122.271518796754,0.325540441234331,0.00537014545288228,,
122.65845398282,0.330192654544805,0.00570813528759206,,
123.045389168886,0.335292621409908,0.00602905880296412,,
123.432324354951,0.340160913383223,0.00633389345614788,,
123.819259541017,0.344741667608348,0.00664291426547647,,
124.206194727083,0.349195667027318,0.0069491717993202,,
124.593129913148,0.353915085906156,0.00725469933352096,,
124.980065099214,0.358327400858672,0.00756679274021677,,
125.36700028528,0.362722418175448,0.00788992687597689,,
125.753935471345,0.366916102354931,0.00816565640215128,,
126.140870657411,0.371271136612048,0.00846516247037021,,
126.527805843477,0.375610007504622,0.00876344362393366,,
126.914741029542,0.379303761654459,0.00907408940421917,,
127.301676215608,0.383368989620993,0.00936811841296992,,
127.688611401674,0.387177872297227,0.00966155352370546,,
128.075546587739,0.391062467575794,0.00993794706085449,,
128.462481773805,0.394507532765905,0.0102327019449566,,
128.849416959871,0.398466422807812,0.0105085675727592,,
129.236352145936,0.401606085478394,0.0107990661877557,,
129.623287332002,0.405036688710755,0.0111132836047125,,
130.010222518068,0.408581286198316,0.0113647540467055,,
130.397157704133,0.41144390312927,0.0116296985499056,,
130.784092890199,0.414139782194409,0.0119297490246377,,
131.171028076265,0.417579743164137,0.0121913775972562,,
131.55796326233,0.420721674377111,0.012447401257361,,
131.944898448396,0.423481072629228,0.0127147997141632,,
132.331833634462,0.426137819338105,0.0129815919000755,,
132.718768820527,0.428999585565662,0.0132453156129122,,
133.105704006593,0.431063675574618,0.0134942248697167,,
133.492639192659,0.433432033831907,0.0137546326519717,,
