Time domain (s),Current (AC) (A),Potential (AC) (V),Frequency (Hz),Column 5
0,0.308780237366098,0.00411339391962162,5011.9,0.5
6.23516031844211E-06,0.277886482705838,0.00353328827650534,,
1.24703206368842E-05,0.236707404961898,0.00282336394608285,,
1.87054809553263E-05,0.186103667850231,0.00197423723114154,,
2.49406412737684E-05,0.128395316764372,0.00105216390754936,,
3.11758015922105E-05,0.0661263447671178,0.000149214706787859,,
3.74109619106526E-05,0.00234471579204669,-0.000802999991925901,,
4.36461222290948E-05,-0.0617391610107888,-0.00173350863721256,,
4.98812825475369E-05,-0.12493380464192,-0.00260353876666786,,
5.6116442865979E-05,-0.183494595977562,-0.00336275034677502,,
6.23516031844211E-05,-0.234865880229185,-0.00402995427542319,,
6.85867635028632E-05,-0.276885949173024,-0.00446726197271019,,
7.48219238213053E-05,-0.308530414135174,-0.00476422749471839,,
8.10570841397474E-05,-0.327833441349034,-0.00491597410311861,,
8.72922444581895E-05,-0.334440641957797,-0.00482349008872784,,
9.35274047766316E-05,-0.328133456080381,-0.00456705674424818,,
9.97625650950737E-05,-0.30914993888405,-0.00410970265069066,,
0.000105997725413516,-0.278184264340768,-0.00354623490743045,,
0.000112232885731958,-0.236620881337226,-0.00280982784321937,,
0.0001184680460504,-0.185747825708455,-0.00198046257685869,,
0.000124703206368842,-0.127910982963672,-0.00106721828131118,,
0.000130938366687284,-0.065342102572995,-0.00010645950224264,,
0.000137173527005726,-0.00131472665411123,0.000803147903703838,,
0.000143408687324168,0.0624479741703763,0.00172581504958114,,
0.000149643847642611,0.125333706130466,0.0025965107820376,,
0.000155879007961053,0.183567827361655,0.00337832458693255,,
0.000162114168279495,0.234645654387283,0.00400269065445347,,
0.000168349328597937,0.276591889365456,0.00446648108552905,,
0.000174584488916379,0.307751169823509,0.00477730898638162,,
0.000180819649234821,0.327363498614133,0.00488511492083887,,
0.000187054809553263,0.333999268678646,0.0048162010833126,,
0.000193289969871705,0.327376223719114,0.00457888098579806,,
0.000199525130190147,0.308830464312496,0.00414225846807081,,
0.00020576029050859,0.278016108635958,0.00354109279796999,,
0.000211995450827032,0.236432237858938,0.00282044921398628,,
0.000218230611145474,0.186045926357159,0.00198841936044758,,
0.000224465771463916,0.128386632500528,0.0010595638467974,,
0.000230700931782358,0.0660996893940114,0.000126695138581656,,
0.0002369360921008,0.00234347518292604,-0.000775699393011919,,
0.000243171252419242,-0.0617546154558345,-0.00171028431288756,,
0.000249406412737684,-0.124994275475058,-0.00258156951728283,,
0.000255641573056126,-0.183625178949004,-0.00337599932677524,,
0.000261876733374569,-0.234686594488264,-0.00398654869408865,,
0.000268111893693011,-0.277091323151453,-0.00445662102538424,,
0.000274347054011453,-0.308441090278488,-0.00479379244894051,,
0.000280582214329895,-0.327756452691604,-0.00488741842926466,,
0.000286817374648337,-0.334252423831208,-0.00480839438667502,,
0.000293052534966779,-0.328189602504584,-0.00455938490834917,,
0.000299287695285221,-0.309041048849232,-0.00413361432974879,,
0.000305522855603663,-0.2782320455149,-0.00354183453203394,,
0.000311758015922105,-0.236532691751736,-0.00281096980915274,,
0.000317993176240548,-0.185853880065283,-0.00197892255422838,,
0.00032422833655899,-0.128002291794952,-0.00106120392739539,,
0.000330463496877432,-0.0653567063146437,-0.000115216749571712,,
0.000336698657195874,-0.00129827972176895,0.000810954600341418,,
0.000342933817514316,0.0624780678030457,0.0017188501449743,,
0.000349168977832758,0.125275681069595,0.00258241130931358,,
0.0003554041381512,0.183576192611726,0.00336646554261133,,
0.000361639298469642,0.234517800755907,0.00398519791152729,,
0.000367874458788084,0.276575726000913,0.00448041959543577,,
0.000374109619106526,0.307805792070792,0.00478071530762314,,
0.000380344779424969,0.327195626477122,0.00489286288780022,,
0.000386579939743411,0.333606172817276,0.00481624023643024,,
0.000392815100061853,0.327517972172641,0.00455862142255326,,
0.000399050260380295,0.308752908519468,0.00415838085187703,,
0.000405285420698737,0.277866597513933,0.00355091588017009,,
0.000411520581017179,0.236677949356776,0.00278412817178531,,
0.000417755741335621,0.186041885516023,0.00196567139905435,,
0.000423990901654063,0.128481273253446,0.00107468130058219,,
0.000430226061972505,0.066079839648081,0.000117746476010261,,
0.000436461222290948,0.00234039138311187,-0.000802162550241459,,
0.00044269638260939,-0.0617055582266067,-0.00172117322995913,,
0.000448931542927832,-0.124969108832896,-0.00258670945156991,,
0.000455166703246274,-0.183396552411056,-0.00333596526391089,,
0.000461401863564716,-0.235014469755864,-0.00399907551658485,,
0.000467637023883158,-0.277072678568669,-0.00447013755168912,,
0.0004738721842016,-0.308530768594923,-0.00477378303061426,,
0.000480107344520042,-0.327890509368584,-0.00490666436179543,,
0.000486342504838484,-0.334413632124942,-0.00482415786690193,,
0.000492577665156927,-0.328488979208384,-0.00455593943399002,,
0.000498812825475369,-0.30932369505289,-0.00413601137062258,,
0.000505047985793811,-0.278189864804798,-0.00355995807518994,,
0.000511283146112253,-0.236645977087438,-0.00282930216893673,,
0.000517518306430695,-0.185821624228146,-0.00195554161743239,,
0.000523753466749137,-0.127910061368325,-0.00107597552864025,,
0.000529988627067579,-0.0652763148436258,-0.000115025334329388,,
0.000536223787386021,-0.00131472665411123,0.00079793401352779,,
0.000542458947704463,0.0624895522989054,0.00169574110482928,,
0.000548694108022906,0.125355718080864,0.00260647307532302,,
0.000554929268341348,0.183592036962495,0.00337013723498369,,
0.00056116442865979,0.234727818157045,0.00400962510663572,,
0.000567399588978232,0.276687416267746,0.00446979169914918,,
0.000573634749296674,0.307921523178761,0.00477088787507629,,
0.000579869909615116,0.327220793119284,0.00489482489403237,,
0.000586105069933558,0.333752316571688,0.00483780490359909,,
0.000592340230252,0.327730470792021,0.00456856196410671,,
0.000598575390570442,0.308879769663548,0.00412455255817079,,
0.000604810550888885,0.278152008503631,0.00354082307649239,,
0.000611045711207327,0.236677630343002,0.00282566527933525,,
0.000617280871525769,0.186076339003602,0.00197627754360896,,
0.000623516031844211,0.12852005114996,0.00105777585442191,,
0.000629751192162653,0.0660438619835823,0.000137905981287823,,
0.000635986352481095,0.00236676318841932,-0.000797192279464731,,
0.000642221512799537,-0.0616993906269783,-0.00171515670086997,,
0.000648456673117979,-0.124927566150342,-0.00258023613610758,,
0.000654691833436421,-0.183461418545079,-0.00336901484560936,,
0.000660926993754863,-0.234913377835518,-0.00400166614787345,,
0.000667162154073306,-0.277027733072527,-0.00450113159470789,,
0.000673397314391748,-0.30846313767486,-0.00478427606616227,,
0.00067963247471019,-0.327904829542434,-0.00490950296282966,,
0.000685867635028632,-0.334284963236144,-0.00480810726381176,,
0.000692102795347074,-0.328219660691279,-0.00457387156190414,,
0.000698337955665516,-0.309086065237324,-0.00414227369428355,,
0.000704573115983958,-0.278349867935387,-0.003545147320827,,
0.0007108082763024,-0.236573383730893,-0.00281317760995758,,
0.000717043436620842,-0.185820702632799,-0.00198608104925091,,
0.000723278596939285,-0.127910061368325,-0.00106480166387879,,
0.000729513757257727,-0.0653631574820711,-0.000107353498430385,,
0.000735748917576169,-0.00128371142609507,0.000787558437333136,,
0.000741984077894611,0.0625097210586096,0.00170996238725296,,
0.000748219238213053,0.125271037646886,0.00259223004116738,,
0.000754454398531495,0.183456456108596,0.00333676572765063,,
0.000760689558849937,0.234534885715797,0.0040120613006267,,
0.000766924719168379,0.276698581749832,0.0044778876938234,,
0.000773159879486821,0.307721111636814,0.00479110828520346,,
0.000779395039805264,0.327153162199221,0.00489445946493383,,
0.000785630200123706,0.333742391698723,0.00481536146645478,,
0.000791865360442148,0.327632462671489,0.0045550628391875,,
0.00079810052076059,0.30893903533354,0.00410985273764153,,
0.000804335681079032,0.277905056396673,0.00353867400536467,,
0.000810570841397474,0.236576786544481,0.0028069892421847,,
0.000816806001715916,0.186044083166466,0.00195593967412888,,
0.000823041162034358,0.128415166510303,0.00106352266203302,,
0.0008292763223528,0.0660944079437549,0.000117211383401816,,
0.000835511482671243,0.00233294772838799,-0.000779564675799982,,
0.000841746642989685,-0.0616996741947773,-0.00168804751719831,,
0.000847981803308127,-0.124927282582543,-0.00260182690535427,,
0.000854216963626569,-0.183386627538091,-0.00337588404259526,,
0.000860452123945011,-0.234768758258026,-0.00399471646947891,,
0.000866687284263453,-0.277082603441634,-0.00448167467037619,,
0.000872922444581895,-0.308447328770066,-0.00477825736190018,,
0.000879157604900337,-0.327727599668055,-0.00489604299102808,,
0.000885392765218779,-0.334380454692459,-0.00481128954221299,,
0.000891627925537222,-0.327903907947087,-0.00455184575801582,,
0.000897863085855664,-0.309258899810818,-0.00415259489114828,,
0.000904098246174106,-0.278489808644196,-0.00350899376696301,,
0.000910333406492548,-0.236503838728187,-0.00282018384285543,,
0.00091656856681099,-0.185822900283242,-0.00198061483898293,,
0.000922803727129432,-0.127928989518909,-0.00106607631537781,,
0.000929038887447874,-0.0653182119859288,-0.000105086967949308,,
0.000935274047766316,-0.00128895743037666,0.000776954467951896,,
0.000941509208084758,0.0624904738942522,0.00172976081377785,,
0.0009477443684032,0.125307015311385,0.0025718965220336,,
0.000953979528721643,0.183456739676395,0.00336050121767917,,
0.000960214689040085,0.234625804641353,0.00400063729094668,,
0.000966449849358527,0.276825442893912,0.0044804543982071,,
0.000972685009676969,0.307925847587696,0.00476356189171723,,
0.000978920169995411,0.327204027173168,0.00489927964875925,,
0.000985155330313853,0.333821188100871,0.00483127938397976,,
0.000991390490632295,0.327781973793515,0.00455618522856227,,
0.000997625650950737,0.30860584316971,0.00414471206344791,,
0.00100386081126918,0.278062968214744,0.00352110295620278,,
0.00101009597158762,0.236415188345023,0.00279391210086777,,
0.00101633113190606,0.18600994869266,0.00196567139905435,,
0.00102256629222451,0.128478473021431,0.00107618652044117,,
0.00102880145254295,0.066108054644082,0.000126157870799837,,
0.00103503661286139,0.00234563738739346,-0.000803019568484942,,
0.00104127177317983,-0.0616726643619221,-0.00171982244739777,,
0.00104750693349827,-0.124986477360585,-0.00261631138373586,,
0.00105374209381672,-0.183629857817688,-0.00338087388993102,,
0.00105997725413516,-0.234988735978104,-0.00397813512412615,,
0.0010662124144536,-0.277202056376965,-0.00450067480833427,,
0.00107244757477204,-0.308641856280183,-0.00476514106746517,,
0.00107868273509048,-0.32768917623129,-0.00490099368524621,,
0.00108491789540893,-0.334503026873578,-0.00484812610046381,,
0.00109115305572737,-0.328302462488588,-0.00454522235560217,,
0.00109738821604581,-0.309231889977962,-0.00412651238923001,,
0.00110362337636425,-0.278246932824348,-0.00354451869577055,,
0.0011098585366827,-0.236523404906318,-0.00281184640395526,,
0.00111609369700114,-0.185857282878871,-0.00197532264257161,,
0.00112232885731958,-0.127956708271262,-0.00107095087853359,,
0.00112856401763802,-0.0653551466917492,-0.000123821734776097,,
0.00113479917795646,-0.00129455789440701,0.000784719836298908,,
0.00114103433827491,0.0624666187531609,0.00172389219646663,,
0.00114726949859335,0.125301131279556,0.00258292465019005,,
0.00115350465891179,0.183543015179243,0.00335020829806654,,
0.00115973981923023,0.234783078431876,0.00399171038010726,,
0.00116597497954867,0.276759726056492,0.00447920149844006,,
0.00117221013986712,0.307876825804443,0.00477569065751604,,
0.00117844530018556,0.32724344309723,0.004907845480846,,
0.001184680460504,0.333772201763593,0.00483234521885079,,
0.00119091562082244,0.327562350533186,0.0045659909093767,,
0.00119715078114088,0.308875445254613,0.00411472947597025,,
0.00120338594145933,0.278051200151085,0.00352195997444626,,
0.00120962110177777,0.236642255260076,0.0028232116839586,,
0.00121585626209621,0.186083144630778,0.00196474042492234,,
0.00122209142241465,0.128484676067034,0.00106436227889084,,
0.0012283265827331,0.066097527189544,0.000107940795195827,,
0.00123456174305154,0.00232734726435764,-0.000788245792066711,,
0.00124079690336998,-0.0617797820979962,-0.00171616598123769,,
0.00124703206368842,-0.124960176447227,-0.00262328063868944,,
0.00125326722400686,-0.183607810421315,-0.00337207748948432,,
0.00125950238432531,-0.234863115443145,-0.00401337293007042,,
0.00126573754464375,-0.277111172897384,-0.0044633988650955,,
0.00127197270496219,-0.308610238470594,-0.00478174198937653,,
0.00127820786528063,-0.327912273197157,-0.00488119308354795,,
0.00128444302559907,-0.334511746583398,-0.00482181520535896,,
0.00129067818591752,-0.328218455528133,-0.00456361126988902,,
0.00129691334623596,-0.309361834921856,-0.004134090692681,,
0.0013031485065544,-0.278227366646217,-0.00354358554646472,,
0.00130938366687284,-0.2365001523468,-0.00279996778307456,,
0.00131561882719128,-0.185777245867602,-0.00197162919846727,,
0.00132185398750973,-0.127919419105692,-0.00108663822769817,,
0.00132808914782817,-0.0653048842993756,-0.000123649896092815,,
0.00133432430814661,-0.00128123020785378,0.000803034794696789,,
0.00134055946846505,0.0625081614357151,0.00170624719141621,,
0.0013467946287835,0.125244027814031,0.00257267958438812,,
0.00135302978910194,0.183592639544068,0.00335692523292774,,
0.00135926494942038,0.234583269471502,0.00399327215446954,,
0.00136550010973882,0.276757244838251,0.00450267161733775,,
0.00137173527005726,0.307845172548879,0.00478037163025613,,
0.00137797043037571,0.327276301515939,0.00488089073447195,,
0.00138420559069415,0.333723498994114,0.00483482056595985,,
0.00139044075101259,0.327642068530681,0.00457520494307939,,
0.00139667591133103,0.308547534541039,0.00411435099583235,,
0.00140291107164947,0.278117555016052,0.00352100724858184,,
0.00140914623196792,0.236560339612139,0.00281864382022468,,
0.00141538139228636,0.186110154463634,0.0019600551018355,,
0.0014216165526048,0.128397195401041,0.00106145189714058,,
0.00142785171292324,0.0660854046661365,0.000113689777980319,,
0.00143408687324168,0.00233355030996087,-0.000781770301431006,,
0.00144032203356013,-0.0617049201990589,-0.00171336870849448,,
0.00144655719387857,-0.124958616824333,-0.00259643682614907,,
0.00145279235419701,-0.18349246921907,-0.00336838622055291,,
0.00145902751451545,-0.234887927625558,-0.00399757029672587,,
0.0014652626748339,-0.277185893012422,-0.00447683926033804,,
0.00147149783515234,-0.30842620296904,-0.00476426447266309,,
0.00147773299547078,-0.327872573705297,-0.00491980240796197,,
0.00148396815578922,-0.334433198303074,-0.00480955592916743,,
0.00149020331610766,-0.328271766274346,-0.00455904123098261,,
0.00149643847642611,-0.309062458218057,-0.00412028704351286,,
0.00150267363674455,-0.278230769459805,-0.00354373780858941,,
0.00150890879706299,-0.236547933520932,-0.00280424852394523,,
0.00151514395738143,-0.185881173465937,-0.0019665262421249,,
0.00152137911769987,-0.127969397930267,-0.00103137142686904,,
0.00152761427801832,-0.0652564650976955,-0.00010891309761929,,
0.00153384943833676,-0.00128647621213537,0.000801644859017792,,
0.0015400845986552,0.0624932741262674,0.00172597166205213,,
0.00154631975897364,0.125279721910731,0.00257572482687696,,
0.00155255491929209,0.183387265565639,0.00335267929482885,,
0.00155879007961053,0.234560300479783,0.00399936263944767,,
0.00156502523992897,0.27654655396359,0.0044677383356424,,
0.00157126040024741,0.307847051185547,0.00476811235406505,,
0.00157749556056585,0.32710786224333,0.0049136879960785,,
0.0015837307208843,0.334073705225885,0.00481559203481474,,
0.00158996588120274,0.327551787632673,0.00457109386571908,,
0.00159620104152118,0.308984654303205,0.0041276717565486,,
0.00160243620183962,0.278173063412707,0.00354871025453907,,
0.00160867136215806,0.236693155679998,0.00281047386966149,,
0.00161490652247651,0.186123801163961,0.00197966646346481,,
0.00162114168279495,0.128475991803189,0.00104862272556927,,
0.00162737684311339,0.0660391831148987,0.000127360741582816,,
0.00163361200343183,0.00233542894662928,-0.0007764998567521,,
0.00163984716375027,-0.0617884309158659,-0.00174243772322491,,
0.00164608232406872,-0.12494216989199,-0.00262821175634853,,
0.00165231748438716,-0.183477227449873,-0.00336587172032621,,
0.0016585526447056,-0.234960520982103,-0.00399745718771927,,
0.00166478780502404,-0.277037941513291,-0.004468310406196,,
0.00167102296534249,-0.308565151190552,-0.00477852490820441,,
0.00167725812566093,-0.327871935677749,-0.00488768597556932,,
0.00168349328597937,-0.334706486769364,-0.00480033972029181,,
0.00168972844629781,-0.328153943853859,-0.00453969959083089,,
0.00169596360661625,-0.309088830023365,-0.00414971713699597,,
0.0017021987669347,-0.278288191939103,-0.00353393430294791,,
0.00170843392725314,-0.23660287478199,-0.0028227722989711,,
0.00171466908757158,-0.185770794700175,-0.00196601290124843,,
0.00172090424789002,-0.127959756625101,-0.00105316883757078,,
0.00172713940820846,-0.0652707852715452,-7.5959223541755E-05,,
0.00173337456852691,-0.00129920131711571,0.000805281748619269,,
0.00173960972884535,0.062529287236741,0.00170221006994487,,
0.00174584488916379,0.12517887811221,0.00258072772525164,,
0.00175208004948223,0.183531849697157,0.00335819988442676,,
0.00175831520980067,0.234666106714786,0.00398245719328738,,
0.00176455037011912,0.276742641096602,0.004496333162614,,
0.00177078553043756,0.307734439323368,0.00477616484527488,,
0.001777020690756,0.327151602576327,0.00488678980420776,,
0.00178325585107444,0.334021599642818,0.00481275560895389,,
0.00178949101139289,0.327694209559723,0.00456119682763001,,
0.00179572617171133,0.308799768098254,0.00411413782885806,,
0.00180196133202977,0.278108551738434,0.00353336658274062,,
0.00180819649234821,0.236553533984963,0.00280763744380019,,
0.00181443165266665,0.186025155015882,0.00198556553320062,,
0.0018206668129851,0.128588568219394,0.00107631703083344,,
0.00182690197330354,0.0660655549202061,0.000101735026037719,,
0.00183313713362198,0.00231713882359346,-0.00078544634415012,,
0.00183937229394042,-0.061766454411443,-0.00172431418006935,,
0.00184560745425886,-0.124964784423961,-0.00261347495787501,,
0.00185184261457731,-0.183487790350386,-0.00335642929343694,,
0.00185807777489575,-0.234871480693216,-0.00398064744917992,,
0.00186431293521419,-0.276748206114658,-0.00447584955652935,,
0.00187054809553263,-0.308264214863858,-0.0047730043186065,,
0.00187678325585107,-0.32772639450491,-0.00489398745234837,,
0.00188301841616952,-0.334420154184319,-0.0048114026512196,,
0.00188925357648796,-0.328073268815042,-0.00454175512951105,,
0.0018954887368064,-0.309257623755722,-0.00409953806629693,,
0.00190172389712484,-0.278216236610106,-0.00352660396924209,,
0.00190795905744329,-0.236591106718331,-0.00278833495676656,,
0.00191419421776173,-0.185785327549874,-0.00199106654623993,,
0.00192042937808017,-0.127915023804808,-0.00107144464285147,,
0.00192666453839861,-0.0653234579902104,-0.000125115962834155,,
0.00193289969871705,-0.00130356117202541,0.000779847448316495,,
0.0019391348590355,0.06254665576443,0.00172071644358551,,
0.00194537001935394,0.125309496529626,0.0025776824827628,,
0.00195160517967238,0.183548580197298,0.00338538954950707,,
0.00195784033999082,0.234658060478489,0.00400598386668793,,
0.00196407550030926,0.276583205101612,0.00447267162847442,,
0.00197031066062771,0.307894513345906,0.00476339222820688,,
0.00197654582094615,0.327243762111003,0.00487770628089779,,
0.00198278098126459,0.333848835961274,0.00481068049371469,,
0.00198901614158303,0.327637708675771,0.0045195944648837,,
0.00199525130190147,0.308740183414488,0.00411701340783699,,
0.00200148646221992,0.277965243662012,0.00353159599175079,,
0.00200772162253836,0.236555377175656,0.00279162816900103,,
0.0020139567828568,0.186038801716209,0.00198790601957066,,
