Time domain (s),Current (AC) (A),Potential (AC) (V),Frequency (Hz),Column 5
0,0.121787243046892,0.00251097049695082,0.19953,0.3
0.0122357853455621,0.125658170260226,0.00256043284095542,,
0.0244715706911241,0.129690554176714,0.00268168991962714,,
0.0367073560366862,0.133422529436918,0.00279543960351525,,
0.0489431413822483,0.137235067734669,0.00288056207274279,,
0.0611789267278103,0.141102071495012,0.00299087438205303,,
0.0734147120733724,0.144781675270344,0.00311719526177123,,
0.0856504974189345,0.148520329217381,0.00321324932024369,,
0.0978862827644966,0.152433180068859,0.0033296455716747,,
0.110122068110059,0.156000987475809,0.00344377484293945,,
0.122357853455621,0.159549045366578,0.00354203525303909,,
0.134593638801183,0.163202860153147,0.00361826641517204,,
0.146829424146745,0.166795001785392,0.00371584409519787,,
0.159065209492307,0.170290820442513,0.00382776965085929,,
0.171300994837869,0.173913269647022,0.00393689047756984,,
0.183536780183431,0.177225898316442,0.00403440225700979,,
0.195772565528993,0.180734942096006,0.00412166254125479,,
0.208008350874555,0.18400915178473,0.00420557243969588,,
0.220244136220117,0.187006846205051,0.00432982667702975,,
0.232479921565679,0.190514501346758,0.00445310031364077,,
0.244715706911241,0.19358572744786,0.00452515601462977,,
0.256951492256803,0.196905233180951,0.00459598069266765,,
0.269187277602366,0.199927614496498,0.00466516049207355,,
0.281423062947928,0.203070785263687,0.00478881108003781,,
0.29365884829349,0.206372833835153,0.00486199763508655,,
0.305894633639052,0.209218351179901,0.00494834321919457,,
0.318130418984614,0.211755282334322,0.00503285413098231,,
0.330366204330176,0.214978156506099,0.00512414753110502,,
0.342601989675738,0.217695654665603,0.00519200668276243,,
0.3548377750213,0.220543288029942,0.00528898071341866,,
0.367073560366862,0.223414550279711,0.0053801871247674,,
0.379309345712424,0.225942841020803,0.00547130654734262,,
0.391545131057986,0.228419641951852,0.00556405503240942,,
0.403780916403548,0.231074893868392,0.00557085597290863,,
0.41601670174911,0.233515193461499,0.00568143188456371,,
0.428252487094672,0.236108728139975,0.00578204362758017,,
0.440488272440234,0.238474438042506,0.00587229052639326,,
0.452724057785797,0.240702254001702,0.00592581498253342,,
0.464959843131359,0.242972214017748,0.00598303514354903,,
0.477195628476921,0.245309004985871,0.00606743007030497,,
0.489431413822483,0.247417265838186,0.00612238588717773,,
0.501667199168045,0.249501545135139,0.00618692628531248,,
0.513902984513607,0.251619504410578,0.00626692432495446,,
0.526138769859169,0.253663050330408,0.00631248535425399,,
0.538374555204731,0.255644702677206,0.00639521695021283,,
0.550610340550293,0.257250761546634,0.00645338871569434,,
0.562846125895855,0.259244581006079,0.00650741665231269,,
0.575081911241417,0.261091337103963,0.00657095536153696,,
0.587317696586979,0.26268540519571,0.00663062175231399,,
0.599553481932541,0.264436587742075,0.00668357419136534,,
0.611789267278103,0.266003147579141,0.00673073792292156,,
0.624025052623666,0.267306086642186,0.00678438363614031,,
0.636260837969228,0.268913556191341,0.00682309364049472,,
0.64849662331479,0.270146137602991,0.00689342274612414,,
0.660732408660352,0.271471294871738,0.00692145949153211,,
0.672968194005914,0.272893789041664,0.00694712381583518,,
0.685203979351476,0.27404948840818,0.00705586241914613,,
0.697439764697038,0.275162867382881,0.00707782840254989,,
0.7096755500426,0.276300404247909,0.00712292812774518,,
0.721911335388162,0.277126004558259,0.00713293183673569,,
0.734147120733724,0.278367931723101,0.00718755287863049,,
0.746382906079286,0.278962180558188,0.00719799943956057,,
0.758618691424848,0.28002001401863,0.00724681859384324,,
0.77085447677041,0.280523450346278,0.00726251874950767,,
0.783090262115972,0.281143796756318,0.00728040153258824,,
0.795326047461534,0.282016831172495,0.00736621991200659,,
0.807561832807097,0.282541251361086,0.00736903518505061,,
0.819797618152659,0.282930775300761,0.0073929491897835,,
0.832033403498221,0.283305839773233,0.00739739879736634,,
0.844269188843783,0.283730630706089,0.00745350392046307,,
0.856504974189345,0.283965156210738,0.00743190961636575,,
0.868740759534907,0.28410146313938,0.00746959420759818,,
0.880976544880469,0.283983847717123,0.00747850396685701,,
0.893212330226031,0.284261398953452,0.00750639045892809,,
0.905448115571593,0.28450456487143,0.00752973771861942,,
0.917683900917155,0.284581094246631,0.007510555375978,,
0.929919686262717,0.284409696659775,0.00754667153325839,,
0.942155471608279,0.284148191905343,0.00753853149284645,,
0.954391256953841,0.283987374416442,0.00754561448785518,,
0.966627042299403,0.283551827050665,0.00754666098916434,,
0.978862827644966,0.283128270462571,0.00754531134515846,,
0.991098612990528,0.282712825282907,0.00753437711989013,,
1.00333439833609,0.282179764680988,0.00755779291619119,,
1.01557018368165,0.281443213528419,0.00757835653511973,,
1.02780596902721,0.280938895525941,0.00752813238033845,,
1.04004175437278,0.280207458087383,0.00755268166672263,,
1.05227753971834,0.279297216993401,0.00751394266611038,,
1.0645133250639,0.278497537923039,0.00752916833755446,,
1.07674911040946,0.277682870380575,0.0074966925286577,,
1.08898489575502,0.276568080726147,0.00748218121956867,,
1.10122068110059,0.275703510388334,0.00748627496398591,,
1.11345646644615,0.274391049237131,0.00744599652567901,,
1.12569225179171,0.273150885421948,0.00745216482055078,,
1.13792803713727,0.271988661661693,0.00745076245607557,,
1.15016382248283,0.270905435966161,0.00740340893083058,,
1.1623996078284,0.269542719349677,0.00735367244038754,,
1.17463539317396,0.267980567886758,0.00735170069484736,,
1.18687117851952,0.266504644222164,0.00733294275198171,,
1.19910696386508,0.264989926865073,0.00728067567902713,,
1.21134274921064,0.263428480742018,0.00728028554755644,,
1.22357853455621,0.261710625504208,0.00722929430995167,,
1.23581431990177,0.259873215159517,0.00718565230572343,,
1.24805010524733,0.258215842815011,0.00715218535201023,,
1.26028589059289,0.256179173958852,0.00712489723726195,,
1.27252167593846,0.254184649159543,0.00707428558703382,,
1.28475746128402,0.252376334084226,0.0070359788942671,,
1.29699324662958,0.250370876517032,0.00701413943998919,,
1.30922903197514,0.248099153151326,0.0069449201002314,,
1.3214648173207,0.245919829307753,0.00689553156488376,,
1.33370060266627,0.243909610696479,0.00685132017959056,,
1.34593638801183,0.241538434410005,0.00680358706696893,,
1.35817217335739,0.239267063714232,0.00670797322441263,,
1.37040795870295,0.236933446775495,0.00671185345093006,,
1.38264374404851,0.234431782614254,0.0066670726845719,,
1.39487952939408,0.231972615179796,0.00659398366239072,,
1.40711531473964,0.22927239784695,0.00654178776206926,,
1.4193511000852,0.22679436257114,0.00648859544488412,,
1.43158688543076,0.224201356897563,0.00643229789207567,,
1.44382267077632,0.221469928275753,0.00634258874204585,,
1.45605845612189,0.218567278402053,0.00631487622752269,,
1.46829424146745,0.215850838252344,0.006230610465916,,
1.48053002681301,0.212970935589245,0.00616310717742374,,
1.49276581215857,0.210047830859501,0.00608322512281356,,
1.50500159750413,0.207127547489211,0.006050274829696,,
1.5172373828497,0.204062845781847,0.00595068586377812,,
1.52947316819526,0.201062153667106,0.00588399710653231,,
1.54170895354082,0.19799798096464,0.00582626555696697,,
1.55394473888638,0.194672656177675,0.00572625482729716,,
1.56618052423194,0.191529485410486,0.00566272666216694,,
1.57841630957751,0.18844767921143,0.00559402925505248,,
1.59065209492307,0.185058344831843,0.00548013458987473,,
1.60288788026863,0.181817638786639,0.00542769881141947,,
1.61512366561419,0.17834668335971,0.00536601586270358,,
1.62735945095976,0.175059072213577,0.00526366434421055,,
1.63959523630532,0.17167930400589,0.00520111941582702,,
1.65183102165088,0.167968841611525,0.00507961982299765,,
1.66406680699644,0.164391181488355,0.00498932547576247,,
1.676302592342,0.160933958146896,0.00491101449112774,,
1.68853837768757,0.157155099827633,0.00482296339984778,,
1.70077416303313,0.153447304499628,0.0047239649031825,,
1.71300994837869,0.149962220233556,0.00465420517861803,,
1.72524573372425,0.146074386905365,0.00456300931136289,,
1.73748151906981,0.14248581605618,0.00445444995764666,,
1.74971730441538,0.138551760925053,0.00438149537266153,,
1.76195308976094,0.134778368989733,0.00427947599312306,,
1.7741888751065,0.130946433845733,0.00419109803493534,,
1.78642466045206,0.127027918233476,0.0040932989289395,,
1.79866044579762,0.123112730943701,0.00399819383890909,,
1.81089623114319,0.119112616325973,0.00391333497202639,,
1.82313201648875,0.115279953800239,0.00379206998528403,,
1.83536780183431,0.111151775913525,0.00369562052329409,,
1.84760358717987,0.107072993859135,0.00360694469445688,,
1.85983937252543,0.103055025326109,0.00347252595070202,,
1.872075157871,0.098982877874811,0.0034043293880428,,
1.88431094321656,0.0949152049232722,0.0032697656629983,,
1.89654672856212,0.0906854801380703,0.00316899575857521,,
1.90878251390768,0.0865532245052702,0.00307096731853918,,
1.92101829925325,0.0824036880458118,0.00293358041238045,,
1.93325408459881,0.0781374619226683,0.00285976648375064,,
1.94548986994437,0.0739197058732769,0.00274035725751665,,
1.95772565528993,0.0698213285958006,0.00262547935559221,,
1.96996144063549,0.065514523388629,0.00252115609155945,,
1.98219722598106,0.0612583263166711,0.00242975988652194,,
1.99443301132662,0.0569326532681482,0.00229925827361299,,
2.00666879667218,0.0526741638416336,0.00216709596593123,,
2.01890458201774,0.0483377343601906,0.0020863782918874,,
2.0311403673633,0.04409848748683,0.00196746200203846,,
2.04337615270887,0.0397627413033799,0.00187415995204754,,
2.05561193805443,0.0353705899727122,0.00175509604488511,,
2.06784772339999,0.031035020124228,0.00165970626432221,,
2.08008350874555,0.026719265917537,0.00152220600915509,,
2.09231929409111,0.0223512504353269,0.00141724219142381,,
2.10455507943668,0.0180349231399967,0.00130449419644663,,
2.11679086478224,0.0136436314422878,0.00120068759300951,,
2.1290266501278,0.00928870883129593,0.00106147392260025,,
2.14126243547336,0.00486095987938688,0.000960841091396603,,
2.15349822081892,0.000477779590109371,0.000840480260697607,,
2.16573400616449,-0.00386517428507192,0.000718632712772838,,
2.17796979151005,-0.00826120498498949,0.000589172329126253,,
2.19020557685561,-0.0126676394478952,0.000462337424835368,,
2.20244136220117,-0.016998955215327,0.000381572302369904,,
2.21467714754673,-0.021422846839857,0.00025505108486934,,
2.2269129328923,-0.0257504595730049,0.000141615087771552,,
2.23914871823786,-0.0300703576513946,4.95256085675244E-05,,
2.25138450358342,-0.0344284322499019,-7.49579628065433E-05,,
2.26362028892898,-0.0387686970168532,-0.000218779402205271,,
2.27585607427454,-0.0431233330835255,-0.000331557711452213,,
2.28809185962011,-0.047390815593301,-0.000431896626041706,,
2.30032764496567,-0.0517206765972642,-0.000544813326519566,,
2.31256343031123,-0.0560250571986546,-0.000652310362785791,,
2.32479921565679,-0.060278432911158,-0.000781222453554609,,
2.33703500100236,-0.064667454296181,-0.000893126921028387,,
2.34927078634792,-0.0689087951472617,-0.00102210227636013,,
2.36150657169348,-0.0730703003425307,-0.00112756562053473,,
2.37374235703904,-0.0773287897690453,-0.00124558434439948,,
2.3859781423846,-0.0814860629251326,-0.00136385612651457,,
2.39821392773017,-0.0856739742815452,-0.00146846539909218,,
2.41044971307573,-0.0898857790258375,-0.00159726150482919,,
2.42268549842129,-0.0939841563033138,-0.00170564424497455,,
2.43492128376685,-0.0980333361253036,-0.00181577862270155,,
2.44715706911241,-0.10222376025498,-0.00191938357034482,,
2.45939285445798,-0.106234146384472,-0.00205624458982534,,
2.47162863980354,-0.110333978425417,-0.00215303014480472,,
2.4838644251491,-0.114334093043145,-0.00224456342306123,,
2.49610021049466,-0.118316970917956,-0.0023747183988867,,
2.50833599584022,-0.122250871755988,-0.00247566887091644,,
2.52057178118579,-0.126314863715113,-0.00258717266282549,,
2.53280756653135,-0.130078513143568,-0.00267831580961175,,
2.54504335187691,-0.134011003301872,-0.00279093859347501,,
2.55727913722247,-0.13773709338259,-0.00289768699908155,,
2.56951492256803,-0.141500610559819,-0.00302115701943917,,
2.5817507079136,-0.145365873012374,-0.00308130975654253,,
2.59398649325916,-0.149064146252221,-0.00324748599280378,,
2.60622227860472,-0.152996548243042,-0.00334621034303062,,
2.61845806395028,-0.156405852557518,-0.00342766214960477,,
2.63069384929584,-0.160116469244978,-0.0035198412536066,,
2.64292963464141,-0.163787410565109,-0.00360161992708852,,
2.65516541998697,-0.167291142253825,-0.00373841900001803,,
2.66740120533253,-0.170690571810211,-0.00382958455300342,,
2.67963699067809,-0.174249364092029,-0.00392914056862859,,
2.69187277602366,-0.177640109151344,-0.00403014244311528,,
2.70410856136922,-0.181235050101172,-0.00411021429141378,,
2.71634434671478,-0.184454573908597,-0.00420201249002705,,
2.72858013206034,-0.18768273812935,-0.00432370055853326,,
2.7408159174059,-0.19108975008927,-0.00437208740496997,,
2.75305170275147,-0.19432739231444,-0.00449724448033528,,
2.76528748809703,-0.197513765148276,-0.00458053491326593,,
2.77752327344259,-0.200617436883103,-0.00470044102991984,,
2.78975905878815,-0.203739800124316,-0.00477379497245778,,
2.80199484413371,-0.206794450738623,-0.00486372686646908,,
2.81423062947928,-0.209797964212819,-0.0049499459214517,,
2.82646641482484,-0.212677822792176,-0.00503833705975643,,
2.8387022001704,-0.215588099153151,-0.00511484500435166,,
2.85093798551596,-0.218494452061135,-0.00519486413218129,,
2.86317377086152,-0.221108441595655,-0.00527984952818938,,
2.87540955620709,-0.223693997116923,-0.00535362655249116,,
2.88764534155265,-0.226516811334812,-0.00542640188788202,,
2.89988112689821,-0.22895058653418,-0.00554018452206284,,
2.91211691224377,-0.231819380094427,-0.00561617448805052,,
2.92435269758933,-0.234267085756102,-0.00566709323501025,,
2.9365884829349,-0.236676350395211,-0.00575745480084366,,
2.94882426828046,-0.239067981537729,-0.00581433886886984,,
2.96106005362602,-0.24155412822197,-0.00588725259549161,,
2.97329583897158,-0.24396850657509,-0.00597036114280414,,
2.98553162431715,-0.246048906502793,-0.00603283489855455,,
2.99776740966271,-0.24805026428203,-0.00609515049289833,,
3.01000319500827,-0.250184843128006,-0.00617858590711817,,
3.02223898035383,-0.252235839200145,-0.00625448229427317,,
3.03447476569939,-0.254375972597546,-0.00631171563540622,,
3.04671055104496,-0.25615043135941,-0.00636117797941083,,
3.05894633639052,-0.258059610035223,-0.00642667789008122,,
3.07118212173608,-0.259887189705565,-0.00649371723844583,,
3.08341790708164,-0.261655608994847,-0.00655454479755235,,
3.0956536924272,-0.263442234869358,-0.00659035385810069,,
3.10788947777277,-0.265160442777099,-0.0066351557126465,,
3.12012526311833,-0.266553841677651,-0.00672784884122057,,
3.13236104846389,-0.267944419218748,-0.00677959925357907,,
3.14459683380945,-0.269423164242796,-0.00681442507738073,,
3.15683261915501,-0.271139212047205,-0.00683734793729673,,
3.16906840450058,-0.27217205002623,-0.00689394995081383,,
3.18130418984614,-0.273329160072474,-0.00695239586273377,,
3.1935399751917,-0.27473525509057,-0.00700050988074352,,
3.20577576053726,-0.275601059773145,-0.00704839983676031,,
3.21801154588282,-0.276948435247596,-0.00706961455348099,,
3.23024733122839,-0.277920217244678,-0.00711218106014178,,
3.24248311657395,-0.278788137946844,-0.00716267540732662,,
3.25471890191951,-0.279895345197738,-0.00716587158575877,,
3.26695468726507,-0.280528387725323,-0.0072338915348471,,
3.27919047261063,-0.281113819812115,-0.00727423323771648,,
3.2914262579562,-0.281914380557307,-0.00728931260985854,,
3.30366204330176,-0.282403181082785,-0.00732920091669476,,
3.31589782864732,-0.282859535974537,-0.00733195160716438,,
3.32813361399288,-0.283476179350294,-0.00736611447106839,,
3.34036939933844,-0.283959513491829,-0.00738738190825794,,
3.35260518468401,-0.284269510361883,-0.00739931782243675,,
3.36484097002957,-0.284614597890152,-0.00740683707932632,,
3.37707675537513,-0.28457390859677,-0.00742953719526085,,
3.38931254072069,-0.284818441110734,-0.00745402058105871,,
3.40154832606626,-0.284816325091143,-0.00747614208984615,,
3.41378411141182,-0.284798515259587,-0.00749900168519924,,
3.42601989675738,-0.284824480583316,-0.00748471443810317,,
3.43825568210294,-0.284509546334216,-0.00750680299659745,,
3.4504914674485,-0.284488915143206,-0.0075188034933511,,
3.46272725279407,-0.284117862291208,-0.00751850825872458,,
3.47496303813963,-0.283833654409917,-0.00749651327906298,,
3.48719882348519,-0.283306897783029,-0.00750104723939593,,
3.49943460883075,-0.28317574865214,-0.00751511306052155,,
3.51167039417631,-0.282346224888799,-0.00752293546010785,,
3.52390617952188,-0.281625852469351,-0.00751436442986231,,
3.53614196486744,-0.281250126740757,-0.00749158918725934,,
3.548377750213,-0.2805241116024,-0.00748405016019404,,
3.56061353555856,-0.279493477810449,-0.00748564231835758,,
3.57284932090412,-0.278727126048642,-0.00748592700889006,,
3.58508510624969,-0.277774211892912,-0.00749166299591586,,
3.59732089159525,-0.276555560943568,-0.00745689911866521,,
3.60955667694081,-0.275773515369796,-0.00746277217891045,,
3.62179246228637,-0.274495086867013,-0.00742703824503055,,
3.63402824763193,-0.273423146609299,-0.00741481764031926,,
3.6462640329775,-0.272065191036894,-0.00737151304709283,,
3.65849981832306,-0.27068338616035,-0.00735546625434447,,
3.67073560366862,-0.269448203807954,-0.00732351633212636,,
3.68297138901418,-0.267874237902319,-0.00732274661327903,,
3.69520717435974,-0.266516634999846,-0.00724350774839033,,
3.70744295970531,-0.264930325646598,-0.00728067567902668,,
3.71967874505087,-0.26345515140561,-0.00725118253066315,,
3.73191453039643,-0.261523005100489,-0.00716436378034579,,
3.74415031574199,-0.259662494875265,-0.0071479782585846,,
3.75638610108756,-0.25779986863045,-0.00710984027131856,,
3.76862188643312,-0.255984500156497,-0.00709411902746648,,
3.78085767177868,-0.254373856577955,-0.00704236993311991,,
3.79309345712424,-0.252037065609832,-0.00697789148153616,,
3.8053292424698,-0.250415136593473,-0.00693460797649692,,
3.81756502781537,-0.24826420267941,-0.00689209287229353,,
3.82980081316093,-0.245877641167161,-0.00686445680245029,,
3.84203659850649,-0.243681962255501,-0.00683787645999834,,
3.85427238385205,-0.241310785969027,-0.00676480588998141,,
3.86650816919761,-0.238896451699649,-0.00671720985057922,,
3.87874395454318,-0.236410966271529,-0.00668067588358223,,
3.89097973988874,-0.234122667419029,-0.00661039949842168,,
3.9032155252343,-0.2316643816594,-0.00658560901589178,,
3.91545131057986,-0.229025352559722,-0.00650984970195623,,
3.92768709592542,-0.226464792519871,-0.00643504990055632,,
3.93992288127099,-0.223814301647409,-0.00634922097704438,,
3.95215866661655,-0.22100100951768,-0.00630756126244991,,
3.96439445196211,-0.218183573516251,-0.00626495389742576,,
3.97663023730767,-0.215369443795434,-0.00618913000091581,,
3.98886602265323,-0.212249857829934,-0.00610769796451738,,
4.0011018079988,-0.209451289669857,-0.00607054057797463,,
4.01333759334436,-0.206638923298698,-0.00600693860418788,,
4.02557337868992,-0.203391935320335,-0.00590126701416027,,
4.03780916403548,-0.200467155408414,-0.0058450762203015,,
4.05004494938104,-0.197165812176811,-0.00578961428692626,,
4.06228073472661,-0.194124430768688,-0.00569481365760405,,
4.07451652007217,-0.190792273001794,-0.00560924701842547,,
4.08675230541773,-0.187800133132899,-0.00555033848439024,,
4.09898809076329,-0.184208630714906,-0.0054848899761768,,
4.11122387610886,-0.180956132268858,-0.00537939631773243,,
4.12345966145442,-0.177442217235861,-0.0052771713283648,,
4.13569544679998,-0.174110764808831,-0.00523272797300844,,
4.14793123214554,-0.17063855299527,-0.00516266115171193,,
4.1601670174911,-0.166816272190653,-0.00507469177715869,,
4.17240280283667,-0.163649119868101,-0.0049612505080141,,
4.18463858818223,-0.159807045463563,-0.00486162859180306,,
