Time domain (s),Current (AC) (A),Potential (AC) (V),Frequency (Hz),Column 5
0,0.324997499191096,0.00506797021427108,1258.9,0.4
2.48232584001906E-05,0.286953928307675,0.00455353502718614,,
4.96465168003813E-05,0.238226129933386,0.00386279113096766,,
7.44697752005719E-05,0.180198286359292,0.00298807517844324,,
9.92930336007626E-05,0.115474511508661,0.00204416314833278,,
0.000124116292000953,0.0464525871331221,0.00101305230001714,,
0.000148939550401144,-0.0234129434459047,-7.23580590209494E-05,,
0.000173762808801334,-0.0942948830362414,-0.001136835093698,,
0.000198586067201525,-0.161673096730053,-0.00219825903997295,,
0.000223409325601716,-0.222488570377085,-0.00313000091252347,,
0.000248232584001906,-0.274747449174918,-0.00397541511112953,,
0.000273055842402097,-0.315636909716476,-0.00464783911577094,,
0.000297879100802288,-0.344891989754711,-0.00512909867930178,,
0.000322702359202478,-0.360703523855864,-0.00542461259125782,,
0.000347525617602669,-0.362560359029711,-0.0055241489900606,,
0.00037234887600286,-0.350471572286344,-0.0053931955901807,,
0.00039717213440305,-0.324807283343501,-0.00507954009898803,,
0.000421995392803241,-0.286933119107662,-0.00453273781911623,,
0.000446818651203432,-0.237944125136773,-0.00386158514063073,,
0.000471641909603622,-0.179810383111574,-0.0030132403582841,,
0.000496465168003813,-0.114881665427583,-0.00202159642848265,,
0.000521288426404003,-0.0456002435355634,-0.000998546386907329,,
0.000546111684804194,0.0241721705045336,6.80880909791348E-05,,
0.000570934943204385,0.0945171771610076,0.00115124844773007,,
0.000595758201604575,0.161812061432216,0.00220086022229005,,
0.000620581460004766,0.222435899019189,0.00316591111235986,,
0.000645404718404957,0.274305083866633,0.00399036204102154,,
0.000670227976805147,0.31549390049621,0.00465598431461212,,
0.000695051235205338,0.344396397353218,0.00513629242527003,,
0.000719874493605529,0.360367087872868,0.00545947333449215,,
0.000744697752005719,0.362030619780719,0.00552474654057722,,
0.00076952101040591,0.349988267810082,0.00541632991496321,,
0.000794344268806101,0.324798515075247,0.00508616624002389,,
0.000819167527206291,0.286768250965127,0.00455189890937113,,
0.000843990785606482,0.238239961567816,0.0038357121560777,,
0.000868814044006672,0.180307704467371,0.00300126212469465,,
0.000893637302406863,0.115429095584004,0.00203977475911765,,
0.000918460560807054,0.0464483264957307,0.00101497698436859,,
0.000943283819207244,-0.0234204767467996,-6.49002474482074E-05,,
0.000968107077607435,-0.0943452697045217,-0.00113978745604504,,
0.000992930336007626,-0.161756148285001,-0.00219884434002315,,
0.00101775359440782,-0.222486347435837,-0.00313288930021427,,
0.00104257685280801,-0.274542197599717,-0.00397994914477584,,
0.0010674001112082,-0.315856178171211,-0.00464718575757539,,
0.00109222336960839,-0.344840306370703,-0.00512710593680454,,
0.00111704662800858,-0.360840049497492,-0.00545488893781787,,
0.00114186988640877,-0.362773329150911,-0.00550016666078612,,
0.00116669314480896,-0.350323993686847,-0.00539001999711619,,
0.00119151640320915,-0.324945537939432,-0.00505831140227642,,
0.00121633966160934,-0.287036485875678,-0.00453542475469648,,
0.00124116292000953,-0.238049467852565,-0.00383580063166677,,
0.00126598617840972,-0.179907513294424,-0.00299578480515317,,
0.00129080943680991,-0.114803553742075,-0.00203802294245525,,
0.0013156326952101,-0.0456082708234021,-0.000990360353179121,,
0.00134045595361029,0.0240964052570091,8.48467287011268E-05,,
0.00136527921201049,0.0944403930654113,0.00113425841231374,,
0.00139010247041068,0.161636912186411,0.00216260882225239,,
0.00141492572881087,0.222503883972347,0.00314698278096248,,
0.00143974898721106,0.274225057981718,0.00396808252654512,,
0.00146457224561125,0.315253020112678,0.00467150429408791,,
0.00148939550401144,0.344288522954338,0.00514595668191609,,
0.00151421876241163,0.360075018092272,0.00543797784985056,,
0.00153904202081182,0.362064025647802,0.0055050586802774,,
0.00156386527921201,0.350099939733593,0.00540364115433611,,
0.0015886885376122,0.324793019470495,0.00506133318393198,,
0.00161351179601239,0.287079864104192,0.00456227369305484,,
0.00163833505441258,0.23836920090202,0.00386198532252591,,
0.00166315831281277,0.180300387285764,0.00299453797992966,,
0.00168798157121296,0.115368860051029,0.00207575846175079,,
0.00171280482961315,0.0464307590850374,0.00100049693335436,,
0.00173762808801334,-0.0234490662411792,-4.99342612760856E-05,,
0.00176245134641354,-0.0943937421733944,-0.00116021987245585,,
0.00178727460481373,-0.161735030343148,-0.00217151082766964,,
0.00181209786321392,-0.222683818716671,-0.00312876225427727,,
0.00183692112161411,-0.274532194364103,-0.00396448633414215,,
0.0018617443800143,-0.315996717456758,-0.004650471604835,,
0.00188656763841449,-0.344859880603356,-0.00514817946094448,,
0.00191139089681468,-0.36049654332636,-0.0054277092368733,,
0.00193621415521487,-0.362544551447505,-0.00552341804557921,,
0.00196103741361506,-0.350371910420408,-0.0053889147328352,,
0.00198586067201525,-0.324922011811228,-0.00507016985353026,,
0.00201068393041544,-0.286994805727285,-0.00453455088810983,,
0.00203550718881563,-0.237862617291025,-0.00385137505765876,,
0.00206033044721582,-0.179902511676616,-0.00299393770708711,,
0.00208515370561601,-0.114786758185981,-0.00205046805492204,,
0.0021099769640162,-0.0456045041729547,-0.000982096733165516,,
0.0021348002224164,0.0241418211816662,6.88625926734687E-05,,
0.00215962348081659,0.0945460445230433,0.00114857240145305,,
0.00218444673921678,0.161803756276722,0.00219394823704366,,
0.00220926999761697,0.222419813569327,0.00314658532139367,,
0.00223409325601716,0.274165347309871,0.00399413246227631,,
0.00225891651441735,0.31561406282032,0.00464991080571719,,
0.00228373977281754,0.344451106407258,0.00516047212316595,,
0.00230856303121773,0.36015204918134,0.00543087530179731,,
0.00233338628961792,0.36175188764761,0.00554096615778787,,
0.00235820954801811,0.350020129967965,0.0053940830683965,,
0.0023830328064183,0.324735284746424,0.00507705189319241,,
0.00240785606481849,0.28712003141757,0.00455326007227885,,
0.00243267932321868,0.23823721376544,0.00383147893943425,,
0.00245750258161887,0.180250710723716,0.00298881837339104,,
0.00248232584001906,0.115525423038069,0.002031155875585,,
0.00250714909841925,0.0464719143723031,0.00102486447173167,,
0.00253197235681945,-0.0234274543123825,-6.43802832174245E-05,,
0.00255679561521964,-0.0943747236760532,-0.00113100523296339,,
0.00258161887361983,-0.161730522712285,-0.00220827039316029,,
0.00260644213202002,-0.222423364100487,-0.00313705854220103,,
0.00263126539042021,-0.274564056521986,-0.00397793734599805,,
0.0026560886488204,-0.315830614346863,-0.0046476839431997,,
0.00268091190722059,-0.344877417139865,-0.00514947392687004,,
0.00270573516562078,-0.360519637215988,-0.00542046376671435,,
0.00273055842402097,-0.362449644205904,-0.00550027691498167,,
0.00275538168242116,-0.350678552815849,-0.00540234396608463,,
0.00278020494082135,-0.324989688022546,-0.00506306866663975,,
0.00280502819922154,-0.286979492132023,-0.00453915297990148,,
0.00282985145762173,-0.237821986864887,-0.0038514186148717,,
0.00285467471602192,-0.179792043846281,-0.00301494317308171,,
0.00287949797442211,-0.114850235508276,-0.00203492629683977,,
0.0029043212328223,-0.0455930189765085,-0.000988247828346278,,
0.0029291444912225,0.0241663970321264,8.45921912371317E-05,,
0.00295396774962269,0.0945379863610205,0.00114224843858279,,
0.00297879100802288,0.161713202295063,0.00218605893682966,,
0.00300361426642307,0.22246952100556,0.00314989566958568,,
0.00302843752482326,0.274333179374069,0.00396514241466406,,
0.00305326078322345,0.31532149905278,0.00465004147735604,,
0.00307808404162364,0.344602667776491,0.00513660004808747,,
0.00310290730002383,0.360180144688776,0.00543399508718201,,
0.00312773055842402,0.361930031689262,0.00553813493893962,,
0.00315255381682421,0.35006607075375,0.00539442608144958,,
0.0031773770752244,0.324533305834727,0.00507240760535099,,
0.00320220033362459,0.286974490514216,0.00455778457778466,,
0.00322702359202478,0.238164937300707,0.00384390091213183,,
0.00325184685042497,0.18023690996347,0.00300357337931256,,
0.00327667010882516,0.115455215143664,0.00203280288270369,,
0.00330149336722536,0.0464310060785093,0.000996323607878935,,
0.00332631662562555,-0.0233993588049468,-5.47908905312866E-05,,
0.00335113988402574,-0.0943156922362542,-0.00114389272337556,,
0.00337596314242593,-0.161749602957994,-0.00219013970322735,,
0.00340078640082612,-0.222514689936745,-0.00312955853457852,,
0.00342560965922631,-0.274544482289333,-0.00395999449654605,,
0.0034504329176265,-0.315660188851209,-0.0046651612749371,,
0.00347525617602669,-0.344609182229314,-0.00514492628159458,,
0.00350007943442688,-0.360621028036229,-0.00544012032026719,,
0.00352490269282707,-0.362402221459287,-0.00550715759348108,,
0.00354972595122726,-0.350413590568801,-0.00539128179513204,,
0.00357454920962745,-0.325228098471357,-0.00505119796491993,,
0.00359937246802764,-0.286978010171191,-0.00453439707670089,,
0.00362419572642783,-0.237806611521258,-0.00382440633696479,,
0.00364901898482802,-0.179751907407087,-0.00298495403189492,,
0.00367384224322822,-0.114829920295207,-0.00203316631319961,,
0.00369866550162841,-0.0456384040269816,-0.00101859087188894,,
0.0037234887600286,0.0241320340653397,5.63167541516307E-05,,
0.00374831201842879,0.0944813013592051,0.00113966767370943,,
0.00377313527682898,0.161784953898668,0.00219635749539071,,
0.00379795853522917,0.222354082431601,0.00315272688843393,,
0.00382278179362936,0.274177635235101,0.003977509940845,,
0.00384760505202955,0.31532350587474,0.00464367940192467,,
0.00387242831042974,0.344443079119419,0.00514090404520218,,
0.00389725156882993,0.360006261284514,0.0054345477193225,,
0.00392207482723012,0.362166651435403,0.00553458230375004,,
0.00394689808563031,0.350174964000701,0.0054023235486409,,
0.0039717213440305,0.324876071025443,0.00506581140989937,,
0.00399654460243069,0.287285640540521,0.00454922286309412,,
0.00402136786083088,0.238092660835974,0.00382685098554747,,
0.00404619111923107,0.180253489400275,0.00300781204060785,,
0.00407101437763127,0.115423352985781,0.00203324662181137,,
0.00409583763603146,0.04640040976217,0.00099052777621722,,
0.00412066089443165,-0.0234226996880472,-5.37387116037458E-05,,
0.00414548415283184,-0.0943310058315159,-0.00114942312827004,,
0.00417030741123203,-0.16166982406655,-0.00220911023067449,,
0.00419513066963222,-0.222538030819845,-0.00313720282546903,,
0.00421995392803241,-0.274480696225199,-0.0039635022133595,,
0.0042447771864326,-0.315818326421633,-0.00466661227459664,,
0.00426960044483279,-0.345119038503812,-0.00512389903699351,,
0.00429442370323298,-0.360869935707599,-0.00545077278118455,,
0.00431924696163317,-0.362523927492596,-0.00551137175384397,,
0.00434407022003336,-0.350585930263863,-0.00539316292227054,,
0.00436889347843355,-0.325087065198867,-0.00506088808366112,,
0.00439371673683374,-0.28688063299487,-0.00453001549330079,,
0.00441853999523393,-0.237952893405027,-0.00384416225540996,,
0.00444336325363412,-0.179765986034989,-0.00299331837796402,,
0.00446818651203432,-0.114734333821557,-0.00205216134157959,,
0.00449300977043451,-0.0455716540411837,-0.000984496463372064,,
0.0045178330288347,0.0241119658457427,6.13952529606721E-05,,
0.00454265628723489,0.0945349915651729,0.00114584190865985,,
0.00456747954563508,0.161869518288632,0.00218028488377442,,
0.00459230280403527,0.222380695978205,0.00311998275352154,,
0.00461712606243546,0.274265194420911,0.00397627128259881,,
0.00464194932083565,0.315340085311545,0.00463145615901173,,
0.00466677257923584,0.344181142542403,0.00515716449729986,,
0.00469159583763603,0.36044260612692,0.00545073194629753,,
0.00471641909603622,0.361708972531856,0.00554483730509769,,
0.00474124235443641,0.350017629159061,0.00540125095226962,,
0.0047660656128366,0.324627410347545,0.00508230870434279,,
0.00479088887123679,0.286882917684486,0.00455249509872457,,
0.00481571212963698,0.238066572150498,0.00385253885194503,,
0.00484053538803718,0.18023289631955,0.00300162691635419,,
0.00486535864643737,0.115367625083669,0.00203207329938504,,
0.00489018190483756,0.0463524930286092,0.000995139396148925,,
0.00491500516323775,-0.0234472755385075,-6.61075989478732E-05,,
0.00493982842163794,-0.0943390331193547,-0.00114497620905007,,
0.00496465168003813,-0.161742563644043,-0.00221419961878722,,
0.00498947493843832,-0.222593172112461,-0.00312933802618742,,
0.00501429819683851,-0.274570293107153,-0.00398027174038518,,
0.0050391214552387,-0.315937500771855,-0.00464954329173173,,
0.00506394471363889,-0.345066305397548,-0.00513342173269704,,
0.00508876797203908,-0.3607565039556,-0.00544106088383689,,
0.00511359123043927,-0.362768080539631,-0.00552077602837464,,
0.00513841448883946,-0.350345790860748,-0.00539103814697173,,
0.00516323774723965,-0.325241868357419,-0.0050541952456431,,
0.00518806100563984,-0.286936144777694,-0.00453300324588346,,
0.00521288426404003,-0.237837547453621,-0.00385098712623,,
0.00523770752244023,-0.179870093783421,-0.00296854929652923,,
0.00526253078084042,-0.114817879363448,-0.00202769035482131,,
0.00528735403924061,-0.0456361193373659,-0.00101383496868879,,
0.0053121772976408,0.024129780249908,5.39728316240051E-05,,
0.00533700055604099,0.0945352385586449,0.00115542177320549,,
0.00536182381444118,0.161703909165681,0.00218337200124941,,
0.00538664707284137,0.222443185326612,0.00314189475401294,,
0.00541147033124156,0.274248151871346,0.00398581575690926,,
0.00543629358964175,0.315241226174392,0.00464509773367494,,
0.00546111684804194,0.344259161605359,0.00512383506233682,,
0.00548594010644213,0.359940283153316,0.00543279998614876,,
0.00551076336484232,0.361771955867206,0.00552198337987431,,
0.00553558662324251,0.349984748153106,0.00539970194888051,,
0.0055604098816427,0.324800027910262,0.00507045025308939,,
0.00558523314004289,0.287032966218703,0.00454841433232689,,
0.00561005639844309,0.238100441130341,0.00384843358461495,,
0.00563487965684328,0.180406779723812,0.00298412780601032,,
0.00565970291524347,0.115379666015427,0.00202724117106179,,
0.00568452617364366,0.0464059362411051,0.00101413578569165,,
0.00570934943204385,-0.0234164631028802,-6.10304613011259E-05,,
0.00573417269044404,-0.0944406709330672,-0.00116248756986037,,
0.00575899594884423,-0.161698660554402,-0.00220832620083966,,
0.00578381920724442,-0.222470539853632,-0.00314700319840622,,
0.00580864246564461,-0.274748684142278,-0.00397135476217514,,
0.0058334657240448,-0.315727679817422,-0.00464760635691386,,
0.00585828898244499,-0.344681983555175,-0.00513567990196151,,
0.00588311224084518,-0.360587622169146,-0.00543897013761008,,
0.00590793549924537,-0.362381659252746,-0.00553424881883702,,
0.00593275875764556,-0.350310470794257,-0.00541349461262586,,
0.00595758201604575,-0.325093795770978,-0.00509273657337994,,
0.00598240527444594,-0.286696499361522,-0.00454378910076558,,
0.00600722853284614,-0.237986546265582,-0.0038350356581125,,
0.00603205179124633,-0.1797727166071,-0.00298388143552364,,
0.00605687504964652,-0.114831896242982,-0.0020259875400237,,
0.00608169830804671,-0.0456205587486323,-0.00101986355920802,,
0.0061065215664469,0.0241536151199524,6.1539536229116E-05,,
0.00613134482484709,0.094620296935552,0.00116685009698037,,
0.00615616808324728,0.161849697062507,0.00216417688192205,,
0.00618099134164747,0.222389217252988,0.00314979494353018,,
0.00620581460004766,0.274155035332416,0.00397837019580294,,
0.00623063785844785,0.315211092970813,0.0046457837597802,,
0.00625546111684804,0.344342213160306,0.0051524630406159,,
0.00628028437524823,0.359953342933146,0.00542882811278389,,
0.00630510763364842,0.361981221086327,0.00553001424103083,,
0.00632993089204861,0.350179224638093,0.00539605130996135,,
0.0063547541504488,0.324875546164315,0.0050754157753774,,
0.00637957740884899,0.286820181342607,0.00454446695989397,,
0.00640440066724919,0.238125294848457,0.00383395625592664,,
0.00642922392564938,0.18029912144422,0.00298700258207152,,
0.00645404718404957,0.115436381891427,0.00205010598558886,,
0.00647887044244976,0.04644005221442,0.00100144702506411,,
0.00650369370084995,-0.0234297390019982,-8.26116992058701E-05,,
0.00652851695925014,-0.0943048862718558,-0.0011485492616834,,
0.00655334021765033,-0.161775413775814,-0.00218456437995629,,
0.00657816347605052,-0.222487829396669,-0.0031419709791356,,
0.00660298673445071,-0.274579864104192,-0.00398919824673483,,
0.0066278099928509,-0.31570162200613,-0.00464805962416204,,
0.00665263325125109,-0.345151147655167,-0.00513101111318726,,
0.00667745650965128,-0.360614976696166,-0.00543211259888032,,
0.00670227976805147,-0.362745480636947,-0.00552085225349774,,
0.00672710302645166,-0.350617545428274,-0.00539744377961604,,
0.00675192628485185,-0.324806789356557,-0.00506179461815792,,
0.00677674954325205,-0.286738117761548,-0.00452567882827593,,
0.00680157280165224,-0.23799858719734,-0.00385660736787674,,
0.00682639606005243,-0.179794081542425,-0.00297965502469477,,
0.00685121931845262,-0.114766689966384,-0.00204922939667584,,
0.00687604257685281,-0.0456042571794828,-0.000989275506341425,,
0.006900865835253,0.0241638962232228,8.66502695537896E-05,,
0.00692568909365319,0.0944903166209317,0.00113472393002789,,
0.00695051235205338,0.161574175844532,0.002153734040093,,
0.00697533561045357,0.222415799925408,0.00313856807186585,,
0.00700015886885376,0.274310085484441,0.00398229851195486,,
0.00702498212725395,0.315401771931168,0.00466087361177747,,
0.00704980538565414,0.344387629084963,0.00514549388652741,,
0.00707462864405433,0.360149795365909,0.00543340706480588,,
0.00709945190245452,0.362259706225964,0.00554287995283653,,
0.00712427516085471,0.349926056329331,0.00539597508483869,,
0.0071490984192549,0.32463216497188,0.00507346931241903,,
0.0071739216776551,0.286971464844184,0.00454060397956146,,
0.00719874493605529,0.238238479606984,0.00383365680008696,,
0.00722356819445548,0.180238916785429,0.00298168043510172,,
0.00724839145285567,0.115440148541874,0.00202981649128375,,
0.00727321471125586,0.0463770688790695,0.00099783177638102,,
0.00729803796965605,-0.0234272073189106,-5.33630306409627E-05,,
0.00732286122805624,-0.0943452697045217,-0.00116448984049766,,
0.00734768448645643,-0.161750096944938,-0.0022041324579205,,
0.00737250774485662,-0.222459733889233,-0.00314223504473965,,
0.00739733100325681,-0.274501073186636,-0.00396946410689614,,
0.007422154261657,-0.315847162909484,-0.00463842531310021,,
0.00744697752005719,-0.344801590143972,-0.00514208417344308,,
0.00747180077845738,-0.360603985486664,-0.00544633675126782,,
0.00749662403685757,-0.362422042685412,-0.00551576422654776,,
0.00752144729525776,-0.350505163398531,-0.00540561756287783,,
0.00754627055365796,-0.325055944021399,-0.00506709362535807,,
0.00757109381205815,-0.287162205552907,-0.00454129953380722,,
0.00759591707045834,-0.238067560124386,-0.00383578974236354,,
0.00762074032885853,-0.179764936312733,-0.00300466775429031,,
0.00764556358725872,-0.114804047729019,-0.00204375343829755,,
0.00767038684565891,-0.0456587192400505,-0.000990780952517589,,
0.0076952101040591,0.0241581227508157,7.19932673618473E-05,,
0.00772003336245929,0.0945131635170882,0.0011232302704336,,
0.00774485662085948,0.16177491978887,0.00218768416534143,,
0.00776967987925967,0.222351334629226,0.00312273502492122,,
0.00779450313765986,0.274303848899274,0.00398026221224468,,
0.00781932639606005,0.315318226389277,0.00462580461061801,,
0.00784414965446024,0.344293771565618,0.00515522892364473,,
0.00786897291286043,0.360054949872675,0.00545390617819885,,
0.00789379617126062,0.362170665079322,0.00550267936751458,,
0.00791861942966081,0.350136062528867,0.00541398327011011,,
0.00794344268806101,0.324756371814093,0.00504679868640157,,
0.0079682659464612,0.286941887375917,0.00453781631792616,,
0.00799308920486139,0.238117267560618,0.00382827748427506,,
0.00801791246326158,0.180095413578219,0.00299534378837141,,
0.00804273572166177,0.115493838747842,0.00203525025361184,,
0.00806755898006196,0.0464746930488627,0.00102151601097811,,
