Time domain (s),Current (AC) (A),Potential (AC) (V),Frequency (Hz),Column 5
0,-0.110257338840862,-0.00208240649689362,794.33,0.3
3.93413316883411E-05,-0.0577051987956322,-0.00127344522252404,,
7.86826633766822E-05,-0.00376023293848995,-0.000455725744449964,,
0.000118023995065023,0.0507101009076842,0.000391472207300403,,
0.000157365326753364,0.10412299804709,0.00125676483760984,,
0.000196706658441706,0.153419928496171,0.00206534549470971,,
0.000236047990130047,0.196445594050458,0.00279286135082435,,
0.000275389321818388,0.231732998003007,0.00340037993349451,,
0.000314730653506729,0.25803022822153,0.00388468803166253,,
0.00035407198519507,0.274580036236836,0.00421760928336479,,
0.000393413316883411,0.280400633042528,0.00437530235701722,,
0.000432754648571752,0.27591674344585,0.00437792794842995,,
0.000472095980260093,0.260428295590303,0.00420998091197733,,
0.000511437311948435,0.234950229455874,0.00388101006688624,,
0.000550778643636776,0.200739967642534,0.00338618090607978,,
0.000590119975325117,0.158752209697541,0.00277650415671449,,
0.000629461307013458,0.110668706274439,0.00209758177421815,,
0.000668802638701799,0.0582845914098421,0.0012852537063841,,
0.00070814397039014,0.00444428035496229,0.000462878678125112,,
0.000747485302078481,-0.0504319986245873,-0.000404041925699872,,
0.000786826633766822,-0.104145128085311,-0.00126687990849383,,
0.000826167965455163,-0.153379746165817,-0.00205463078468782,,
0.000865509297143505,-0.196639474345467,-0.0027938482847274,,
0.000904850628831846,-0.231950198597255,-0.00340019296360738,,
0.000944191960520187,-0.258432271943784,-0.00387142385368211,,
0.000983533292208528,-0.27502988877672,-0.00419965750321882,,
0.00102287462389687,-0.28104793666048,-0.00435845637020282,,
0.00106221595558521,-0.276254491031163,-0.00434948048012984,,
0.00110155728727355,-0.260552655825005,-0.00421912908144551,,
0.00114089861896189,-0.234946879091522,-0.00389142696058764,,
0.00118023995065023,-0.20059405045825,-0.0034119600469924,,
0.00121958128233857,-0.158481645734237,-0.00279519313241439,,
0.00125892261402692,-0.110178208524914,-0.00208935242819397,,
0.00129826394571526,-0.0577329274690201,-0.0012910831603592,,
0.0013376052774036,-0.00369485674988208,-0.00045212256762861,,
0.00137694660909194,0.0506708663777712,0.000389821530298207,,
0.00141628794078028,0.10420307616348,0.0012568182575774,,
0.00145562927246862,0.153366190415313,0.00206196935275083,,
0.00149497060415696,0.196412795746801,0.00278620789384743,,
0.0015343119358453,0.231537200065244,0.00342350810851011,,
0.00157365326753364,0.258490065728859,0.00389154715551499,,
0.00161299459922199,0.274484198182868,0.00420119866928736,,
0.00165233593091033,0.280595901975392,0.00438658999619213,,
0.00169167726259867,0.27562601117082,0.00438391098481228,,
0.00173101859428701,0.260567115292209,0.00421190135981586,,
0.00177035992597535,0.235028345845769,0.00388695570929132,,
0.00180970125766369,0.200705934994115,0.00342118701091376,,
0.00184904258935203,0.158873307735374,0.00282793957261473,,
0.00188838392104037,0.110706530124625,0.00212084082815478,,
0.00192772525272871,0.0583755802522472,0.00128157574160825,,
0.00196706658441706,0.00445250197274743,0.000463344767343443,,
0.0020064079161054,-0.0504894838234711,-0.000390799115707274,,
0.00204574924779374,-0.104235235252886,-0.00124394538086081,,
0.00208509057948208,-0.153328476774481,-0.00205568449355065,,
0.00212443191117042,-0.196485048999079,-0.00277260717007088,,
0.00216377324285876,-0.231932300598216,-0.00340639101535967,,
0.0022031145745471,-0.258643300814227,-0.00387681793492067,,
0.00224245590623544,-0.275019176427542,-0.00423758968678367,,
0.00228179723792378,-0.281122261848608,-0.00437978295680796,,
0.00232113856961213,-0.276153627430667,-0.0043599320968104,,
0.00236047990130047,-0.260738601046548,-0.00418885865674845,,
0.00239982123298881,-0.235037559347737,-0.00389414069494665,,
0.00243916256467715,-0.200519901605089,-0.00338029936763551,,
0.00247850389636549,-0.158452991302278,-0.00279822070908375,,
0.00251784522805383,-0.110190904642459,-0.00208654120239382,,
0.00255718655974217,-0.0577863128799467,-0.00128223681370843,,
0.00259652789143051,-0.00374608205747638,-0.000457234858537436,,
0.00263586922311885,0.0506463337756402,0.000426757431465585,,
0.0026752105548072,0.104246057811419,0.00124238418230505,,
0.00271455188649554,0.153431566603921,0.00205978714707022,,
0.00275389321818388,0.196311403141407,0.00277005636661309,,
0.00279323454987222,0.231790130531959,0.00339778639406241,,
0.00283257588156056,0.257969128155845,0.00387382241023193,,
0.0028719172132489,0.2746303798696,0.00420904873354067,,
0.00291125854493724,0.280463518499742,0.00436813873934883,,
0.00295059987662558,0.275622242010924,0.00437850221308267,,
0.00298994120831392,0.260305566454036,0.00422768161827447,,
0.00302928254000227,0.235107167575526,0.0039022177940633,,
0.00306862387169061,0.200734236756142,0.00341433590005602,,
0.00310796520337895,0.158734664368434,0.00279109047889525,,
0.00314730653506729,0.110588848576756,0.00208258946028339,,
0.00318664786675563,0.0583463968153905,0.00129598844889367,,
0.00322598919844397,0.00445305301951587,0.000448312388432459,,
0.00326533053013231,-0.0504629894948444,-0.000419453586381291,,
0.00330467186182065,-0.10409011157595,-0.00125919411064057,,
0.00334401319350899,-0.153404609396009,-0.00206551777410535,,
0.00338335452519734,-0.196436512799714,-0.00277571087019401,,
0.00342269585688568,-0.231931374839645,-0.00339212921948295,,
0.00346203718857402,-0.258539395435569,-0.00387943284233971,,
0.00350137852026236,-0.275264061611437,-0.00422593344983158,,
0.0035407198519507,-0.280897126180893,-0.00437672332815797,,
0.00358006118363904,-0.275947976776685,-0.00438645911727109,,
0.00361940251532738,-0.260847708306699,-0.0041990378315937,,
0.00365874384701572,-0.235088431985399,-0.00388271149285702,,
0.00369808517870406,-0.200453246987978,-0.00341569143173626,,
0.00373742651039241,-0.158571356148139,-0.00278836739604138,,
0.00377676784208075,-0.110136064468064,-0.00208962353453002,,
0.00381610917376909,-0.0577931017761339,-0.00128892365816524,,
0.00385545050545743,-0.00373660405305919,-0.000457528668359686,,
0.00389479183714577,0.0507346335098152,0.000391440155319778,,
0.00393413316883411,0.104229041487209,0.00124347929164292,,
0.00397347450052245,0.153461653757478,0.0020825787762897,,
0.00401281583221079,0.196404199417213,0.00277295439986114,,
0.00405215716389913,0.231552430997924,0.00339480021786809,,
0.00409149849558748,0.257898021080845,0.00390336632336874,,
0.00413083982727582,0.274546907305117,0.0041974779685372,,
0.00417018115896416,0.280359260451153,0.00439517458500172,,
0.0042095224906525,0.275877332580971,0.00437126380745934,,
0.00424886382234084,0.260405350002865,0.00420849316587679,,
0.00428820515402918,0.234965482430425,0.00389384955612293,,
0.00432754648571752,0.200854232700438,0.00340187569258976,,
0.00436688781740586,0.158822611432678,0.00280251968098444,,
0.00440622914909421,0.110734280839883,0.00206390315558158,,
0.00444557048078255,0.0583223932181572,0.00130306659461388,,
0.00448491181247089,0.00442922575724847,0.000462204251032716,,
0.00452425314415923,-0.050471762159398,-0.00038932338909925,,
0.00456359447584757,-0.104165538857614,-0.00128352824142741,,
0.00460293580753591,-0.153389224170234,-0.00206544165065115,,
0.00464227713922425,-0.19647521832473,-0.00278037843987189,,
0.00468161847091259,-0.232183577924626,-0.00337313441446785,,
0.00472095980260093,-0.258249368500403,-0.0038579540088266,,
0.00476030113428927,-0.27504871253433,-0.00419390417269749,,
0.00479964246597762,-0.281225285552435,-0.00435933512867148,,
0.00483898379766596,-0.276218650949343,-0.00438000999167087,,
0.0048783251293543,-0.260606922910761,-0.00422438159976979,,
0.00491766646104264,-0.2349653501792,-0.00388110488732885,,
0.00495700779273098,-0.200661057745293,-0.00338327218883805,,
0.00499634912441932,-0.158448142090716,-0.00280268127638683,,
0.00503569045610766,-0.110245877068079,-0.00206260905686406,,
0.005075031787796,-0.0577719856639673,-0.00130207698971185,,
0.00511437311948435,-0.00374162959958738,-0.000453619662223126,,
0.00515371445117269,0.0506633280579789,0.000400512201334191,,
0.00519305578286103,0.104268452352088,0.00126327406067395,,
0.00523239711454937,0.153439104923713,0.00205431961337643,,
0.00527173844623771,0.196412266741903,0.00277756721407174,,
0.00531107977792605,0.231699141689553,0.0034021801864057,,
0.00535042110961439,0.257986849819918,0.00389929572182979,,
0.00538976244130273,0.27444031281823,0.00418966262726261,,
0.00542910377299107,0.280339026013816,0.00437678743211922,,
0.00546844510467942,0.275622065675958,0.00437818970627157,,
0.00550778643636776,0.260327431989808,0.00419635882021385,,
0.0055471277680561,0.235158392883121,0.00387855274837179,,
0.00558646909974444,0.200815196547361,0.00339258596020686,,
0.00562581043143278,0.158826380592574,0.00279053758222947,,
0.00566515176312112,0.110688257413783,0.00207774159821428,,
0.00570449309480946,0.0582507350963891,0.00127276144693766,,
0.0057438344264978,0.00442439858755692,0.000453641030210505,,
0.00578317575818614,-0.0504001260795006,-0.000394880401239472,,
0.00582251708987448,-0.104142438977081,-0.00127914379757854,,
0.00586185842156283,-0.15340227295771,-0.00206472582308415,,
0.00590119975325117,-0.196516612957975,-0.00279231646715372,,
0.00594054108493951,-0.231792026132842,-0.00339126114500754,,
0.00597988241662785,-0.258613367953765,-0.00384573285571577,,
0.00601922374831619,-0.275078116389894,-0.00420239260556521,,
0.00605856508000453,-0.281046878650685,-0.0043697119573971,,
0.00609790641169287,-0.276323085332898,-0.00436540230150317,,
0.00613724774338121,-0.260675032291341,-0.00421555662110595,,
0.00617658907506956,-0.235207193584934,-0.00389389095659753,,
0.0062159304067579,-0.200743626593076,-0.00342312749123996,,
0.00625527173844624,-0.158476796522674,-0.00280428921741427,,
0.00629461307013458,-0.110259498944194,-0.00209514849468917,,
0.00633395440182292,-0.0577263149077989,-0.00126821407218713,,
0.00637329573351126,-0.00375414938216636,-0.000466122605663699,,
0.0064126370651996,0.0507073897575835,0.000394260729614349,,
0.00645197839688794,0.10426701963049,0.00127050445330212,,
0.00649131972857628,0.153332686771792,0.00207257321633936,,
0.00653066106026463,0.196516701125458,0.00277158684868795,,
0.00657000239195297,0.231775803315979,0.00340079126724557,,
0.00660934372364131,0.257811837366261,0.00388609831880959,,
0.00664868505532965,0.274700428934805,0.00420937192434545,,
0.00668802638701799,0.280438082180911,0.00439141916127239,,
0.00672736771870633,0.27561256562967,0.00438926900757242,,
0.00676670905039467,0.260183586741374,0.00422092132136243,,
0.00680605038208301,0.23503048390723,0.003907426240914,,
0.00684539171377135,0.200718278441728,0.00340222292238002,,
0.00688473304545969,0.158754171424037,0.00281099742985846,,
0.00692407437714804,0.110786784575981,0.00208870337558631,,
0.00696341570883638,0.0583935223350276,0.00129208077825638,,
0.00700275704052472,0.0043844587177803,0.000463464962270788,,
0.00704209837221306,-0.0504633421647762,-0.000393393990638202,,
0.0070814397039014,-0.104177882305227,-0.00127117620939599,,
0.00712078103558974,-0.153353384088414,-0.00205333935696883,,
0.00716012236727808,-0.196545267389934,-0.00278791065531747,,
0.00719946369896642,-0.231977574600712,-0.00339049056197371,,
0.00723880503065477,-0.258380870301224,-0.00385089990209186,,
0.00727814636234311,-0.275214775988468,-0.00420837297094945,,
0.00731748769403145,-0.280841536582893,-0.00438002201116339,,
0.00735682902571979,-0.275896222464193,-0.00437112224454461,,
0.00739617035740813,-0.260714090486288,-0.00420148045961666,,
0.00743551168909647,-0.235227075352339,-0.0038788251902071,,
0.00747485302078481,-0.200632359229593,-0.00339617845303453,,
0.00751419435247315,-0.15849398918185,-0.00282690856723811,,
0.00755353568416149,-0.110145013467583,-0.00207351741426853,,
0.00759287701584983,-0.0578209186170049,-0.00126391643578527,,
0.00763221834753818,-0.00372818405843741,-0.000462889362118357,,
0.00767155967922652,0.0506613663314833,0.000401858384520448,,
0.00771090101091486,0.104217756049391,0.00126392845527823,,
0.0077502423426032,0.153182383255232,0.00205883360064707,,
0.00778958367429154,0.196340233908332,0.00276379554639883,,
0.00782892500597988,0.231774370594381,0.00339725219438547,,
0.00786826633766822,0.258370554705719,0.00386241457612968,,
0.00790760766935656,0.274640585255752,0.00419899776661792,,
0.00794694900104491,0.280431447577819,0.00436627171147741,,
0.00798629033273325,0.275494884081802,0.00437339259317193,,
0.00802563166442159,0.260287492120031,0.00419959339925802,,
0.00806497299610993,0.234977825878038,0.00389207868419383,,
0.00810431432779827,0.200658456804546,0.00341237271624317,,
0.00814365565948661,0.158700257008213,0.00280369224927579,,
0.00818299699117495,0.110573771937172,0.00206183847383024,,
0.00822233832286329,0.0582949951728303,0.0013025671179161,,
0.00826167965455163,0.00441580225796924,0.000448909356571381,,
0.00830102098623998,-0.0504252097284001,-0.000408089823752622,,
0.00834036231792832,-0.104161923990813,-0.00126051892583989,,
0.00837970364961666,-0.153471440348085,-0.00207059667753429,,
0.008419044981305,-0.196508545633285,-0.00277763265353226,,
0.00845838631299334,-0.232001247569884,-0.00337998418982632,,
0.00849772764468168,-0.258362046543614,-0.00386237184015537,,
0.00853706897637002,-0.274972579912802,-0.00421024934731484,,
0.00857641030805836,-0.281027834474368,-0.00438872679490032,,
0.0086157516397467,-0.2761498362289,-0.0043755948313402,,
0.00865509297143504,-0.260786960910946,-0.00420416080649622,,
0.00869443430312339,-0.235146798859113,-0.0038608520420742,,
0.00873377563481173,-0.200534228821069,-0.00338742959782445,,
0.00877311696650007,-0.158333480279138,-0.00279710289625967,,
0.00881245829818841,-0.110215238867753,-0.00209572275934189,,
0.00885179962987675,-0.0577290040160288,-0.00129076798255001,,
0.00889114096156509,-0.00375163660890227,-0.00044631581713972,,
0.00893048229325343,0.0506608373265856,0.000400892818604337,,
0.00896982362494177,0.10425267037264,0.0012736081534257,,
0.00900916495663012,0.153492666669606,0.00207496375989402,,
0.00904850628831846,0.196466181157727,0.0027902010364329,,
0.0090878476200068,0.231795332413453,0.00338056112547758,,
0.00912718895169514,0.258123377167267,0.0038802915683207,,
0.00916653028338348,0.274492089172592,0.00420378152472578,,
0.00920587161507182,0.280468367711304,0.00434635407652051,,
0.00924521294676016,0.275647325659823,0.00434863243814299,,
0.0092845542784485,0.260296970124448,0.00420938260833914,,
0.00932389561013684,0.235101084019203,0.00388870254223495,,
0.00936323694182519,0.200788680176864,0.00341737549621834,,
0.00940257827351353,0.158810091650099,0.00278487239465486,,
0.00944191960520187,0.110606570240829,0.0020846888650139,,
0.00948126093689021,0.0584030003394448,0.00128547005725332,,
0.00952060226857855,0.00447743132855172,0.000454661351593444,,
0.00955994360026689,-0.0504823422573521,-0.000408024384292105,,
0.00959928493195523,-0.104187360309644,-0.00127943627190152,,
0.00963862626364357,-0.153320762119723,-0.00205351297186374,,
0.00967796759533191,-0.196467680004937,-0.00277616627541866,,
0.00971730892702025,-0.231973827482686,-0.00338581230830215,,
0.0097566502587086,-0.258547462760259,-0.00388557613862517,,
0.00979599159039694,-0.274992638015174,-0.00421532958624304,,
0.00983533292208528,-0.281017827465053,-0.00436377566348645,,
0.00987467425377362,-0.276168880405218,-0.00437017804661544,,
0.00991401558546196,-0.260657310627268,-0.00420981531007714,,
0.0099533569171503,-0.235148958962445,-0.00388431809838563,,
0.00999269824883864,-0.200481725084971,-0.00341478062128697,,
0.010032039580527,-0.15857946755657,-0.00281316628054684,,
0.0100713809122153,-0.110242306285019,-0.00207264933979312,,
0.0101107222439037,-0.0577574821130219,-0.00130038491223505,,
0.010150063575592,-0.00377888036113401,-0.000468045724500765,,
0.0101894049072803,0.0506798153772907,0.000396607201695431,,
0.0102287462389687,0.10423565404843,0.00126800974081087,,
0.010268087570657,0.153405777615158,0.00203966384523779,,
0.0103074289023454,0.1963649648873,0.00279049484625515,,
0.0103467702340337,0.231644323557029,0.00338940747212879,,
0.0103861115657221,0.257906441075467,0.00389466153963181,,
0.0104254528974104,0.274587750891594,0.00421020794683979,,
0.0104647942290987,0.280549151167558,0.00438558035880288,,
0.0105041355607871,0.275788129130096,0.00438333404916103,,
0.0105434768924754,0.260121075995962,0.004228170410979,,
0.0105828182241638,0.235004165913569,0.00387766330590988,,
0.0106221595558521,0.200790840280196,0.00338632246899406,,
0.0106615008875404,0.15873305531187,0.00279335815652404,,
0.0107008422192288,0.110595284803012,0.00208021494271904,,
0.0107401835509171,0.0584436675909558,0.00129915892397658,,
0.0107795248826055,0.00441544958803744,0.000467980285040692,,
0.0108188662142938,-0.0505385490277331,-0.000407078850863662,,
0.0108582075459821,-0.104175369531963,-0.0012905182442009,,
0.0108975488776705,-0.153299072918917,-0.00206918639038722,,
0.0109368902093588,-0.196521462169537,-0.00279758100497052,,
0.0109762315410472,-0.232100656406911,-0.00337133416155622,,
0.0110155728727355,-0.258591502417993,-0.00386834152154591,,
0.0110549142044239,-0.27499462178354,-0.00423331475386846,,
0.0110942555361122,-0.281137294404451,-0.00436004027224524,,
0.0111335968678005,-0.276148778219105,-0.00437124243947196,,
0.0111729381994889,-0.260641528647819,-0.00421607880128994,,
0.0112122795311772,-0.235291393531152,-0.00388359025132567,,
0.0112516208628656,-0.200554815928337,-0.00341000487617471,,
0.0112909621945539,-0.158494341851782,-0.0027926089414767,,
0.0113303035262422,-0.110256633500999,-0.00205459873270719,,
0.0113696448579306,-0.0577789508951204,-0.001292112830237,,
0.0114089861896189,-0.00379360433078676,-0.000461185265149044,,
0.0114483275213073,0.050672651769301,0.000404876612695393,,
0.0114876688529956,0.104230474208807,0.00127792982881259,,
0.0115270101846839,0.153441419320141,0.00205351564286227,,
0.0115663515163723,0.196471912044119,0.0027809860920045,,
0.0116056928480606,0.231676570813918,0.00339305338492446,,
0.011645034179749,0.258011228128954,0.00386759097099976,,
0.0116843755114373,0.274274800410861,0.0042155259046246,,
0.0117237168431257,0.280654467225942,0.00438456003741994,,
0.011763058174814,0.275718256399857,0.00436886525090951,,
0.0118023995065023,0.260299482897712,0.00421938015529388,,
0.0118417408381907,0.235100003967537,0.00389454401570299,,
0.011881082169879,0.200756080250043,0.00340801898887566,,
0.0119204235015674,0.158832816818829,0.00280043630224425,,
0.0119597648332557,0.11072103367557,0.00208352430971814,,
0.011999106164944,0.058374500200581,0.0012815864256015,,
0.0120384474966324,0.00442010042276308,0.000469195589305471,,
0.0120777888283207,-0.0504531147367539,-0.000387023659489838,,
0.0121171301600091,-0.104184318531482,-0.00126468701881954,,
0.0121564714916974,-0.153301585692181,-0.00205067102958223,,
0.0121958128233857,-0.19640411124973,-0.0027841445475949,,
0.0122351541550741,-0.231953945715281,-0.00338791839052899,,
0.0122744954867624,-0.258346308647908,-0.00387234668362435,,
0.0123138368184508,-0.275011285437818,-0.00417907879616175,,
0.0123531781501391,-0.280923444174554,-0.00437941435903078,,
0.0123925194818275,-0.276080712922267,-0.00437286907748824,,
0.0124318608135158,-0.26074702104117,-0.0042099782409788,,
0.0124712021452041,-0.235119246520691,-0.0038834713918976,,
0.0125105434768925,-0.200578444813768,-0.00341069933575477,,
0.0125498848085808,-0.158522467278843,-0.00281314491255991,,
0.0125892261402692,-0.110186584435794,-0.0020776414357746,,
0.0126285674719575,-0.0577898836630062,-0.00131784789967648,,
0.0126679088036458,-0.00373713305795689,-0.00045502060087621,,
0.0127072501353342,0.0506244682398685,0.000436471852591769,,
0.0127465914670225,0.104198226951918,0.00126658609867158,,
0.0127859327987109,0.153402030497132,0.00204255386549024,,
0.0128252741303992,0.196294210482232,0.00275559023936012,,
