Time domain (s),Current (AC) (A),Potential (AC) (V),Frequency (Hz),Column 5
0,-0.17258813962047,-0.0047700838289475,10,0.4
0.000244140625,-0.16744697050157,-0.00463568006941317,,
0.00048828125,-0.162186997522655,-0.00452420277277321,,
0.000732421875,-0.157191060565269,-0.00438496286581103,,
0.0009765625,-0.151779618839674,-0.00428991486054464,,
0.001220703125,-0.146565401401441,-0.00419912458277016,,
0.00146484375,-0.141322717965564,-0.00406559927918115,,
0.001708984375,-0.136016063220449,-0.00394217157922316,,
0.001953125,-0.130652599976783,-0.00381605592780065,,
0.002197265625,-0.125159712153808,-0.00372117031315788,,
0.00244140625,-0.119782170282239,-0.00359051545716227,,
0.002685546875,-0.114300644158975,-0.00346738160690396,,
0.0029296875,-0.10875242979828,-0.00334675011882668,,
0.003173828125,-0.103254293364026,-0.00319887257726803,,
0.00341796875,-0.0976962610128214,-0.00308063983068685,,
0.003662109375,-0.0921606433191971,-0.00297956635999697,,
0.00390625,-0.0866719543852456,-0.00284986574223733,,
0.004150390625,-0.0810081470796727,-0.00274540372053522,,
0.00439453125,-0.0753833647426699,-0.00260804290507499,,
0.004638671875,-0.0696943641029568,-0.00245239535882247,,
0.0048828125,-0.0640787205244165,-0.00235085327519036,,
0.005126953125,-0.0584215820425866,-0.0022033345395811,,
0.00537109375,-0.0526979405684308,-0.00206462510865624,,
0.005615234375,-0.0470107306313894,-0.00194123452655504,,
0.005859375,-0.0413563090777511,-0.001799775281071,,
0.006103515625,-0.0355578903299586,-0.00166297278004013,,
0.00634765625,-0.0298306057020913,-0.00153956827874291,,
0.006591796875,-0.0240477475430324,-0.00139480863715669,,
0.0068359375,-0.018354301020824,-0.00127379205131462,,
0.007080078125,-0.0125692816688855,-0.00115890145842457,,
0.00732421875,-0.00685008607722498,-0.00100696415127688,,
0.007568359375,-0.00113194020782031,-0.000869739434624428,,
0.0078125,0.00461389980462816,-0.000732588953685998,,
0.008056640625,0.0104176906604358,-0.000628993015309831,,
0.00830078125,0.0162336768189217,-0.000460824378691438,,
0.008544921875,0.0219587385055413,-0.000328290431194311,,
0.0087890625,0.027722825160731,-0.000206639748631776,,
0.009033203125,0.0333690650556106,-7.61844011165635E-05,,
0.00927734375,0.0391134231072273,7.79660582441721E-05,,
0.009521484375,0.0448370028330151,0.000196161686968122,,
0.009765625,0.0504640081112656,0.000335353650031678,,
0.010009765625,0.056177214111231,0.000465083652761322,,
0.01025390625,0.0619109205693694,0.00060804617144683,,
0.010498046875,0.0675139366066555,0.000737921552449006,,
0.0107421875,0.0732251975330292,0.000861471432018757,,
0.010986328125,0.078817129738261,0.00101603328095923,,
0.01123046875,0.0844557437096937,0.001147517102424,,
0.011474609375,0.0900326093131359,0.00124631246465157,,
0.01171875,0.0956638443545937,0.00139762959427525,,
0.011962890625,0.101098194724713,0.00156016868927678,,
0.01220703125,0.106688120107986,0.0016623294038558,,
0.012451171875,0.1121330911974,0.00179023753844687,,
0.0126953125,0.117596339803739,0.00194035143087889,,
0.012939453125,0.123143319197074,0.00204100887225689,,
0.01318359375,0.12850925237546,0.0021788893377126,,
0.013427734375,0.133866571656511,0.00232494501113267,,
0.013671875,0.139280606813562,0.00245545139570069,,
0.013916015625,0.144628046355735,0.00260201434649732,,
0.01416015625,0.149921610446836,0.00271440721693894,,
0.014404296875,0.155116871136096,0.00283208628882203,,
0.0146484375,0.160269679822362,0.00297461885899919,,
0.014892578125,0.165633081317661,0.003080516104498,,
0.01513671875,0.170596446010932,0.00321782742948251,,
0.015380859375,0.175598804798589,0.00334950611969553,,
0.015625,0.180686129340602,0.00345816555237244,,
0.015869140625,0.185856443689193,0.00356283790859591,,
0.01611328125,0.190786433389566,0.00372072489887643,,
0.016357421875,0.195530683999022,0.0037947255327504,,
0.0166015625,0.200555272199156,0.00395581703133585,,
0.016845703125,0.20529038405015,0.00408052065762154,,
0.01708984375,0.209976097206751,0.00418120903054708,,
0.017333984375,0.214745294156875,0.00430929966126747,,
0.017578125,0.219553022088626,0.00442058208915963,,
0.017822265625,0.224115763370374,0.00453474424410949,,
0.01806640625,0.228861681185766,0.00465682487518038,,
0.018310546875,0.233139638994341,0.00476108893497917,,
0.0185546875,0.237632944236284,0.00489337697667436,,
0.018798828125,0.241966444701867,0.00500664830306086,,
0.01904296875,0.246383675954444,0.00509189255439546,,
0.019287109375,0.250694453020607,0.00520228415372381,,
0.01953125,0.254830142589331,0.00531322942774981,,
0.019775390625,0.259137430872702,0.00542071346162754,,
0.02001953125,0.263206895316757,0.00554032884837463,,
0.020263671875,0.267206707601718,0.00562332437621738,,
0.0205078125,0.271074872366123,0.00574592465728374,,
0.020751953125,0.27498971889673,0.00585903513962371,,
0.02099609375,0.278880607060555,0.00592218498668817,,
0.021240234375,0.282892275032171,0.00602635006553554,,
0.021484375,0.286423293707347,0.00609290238280824,,
0.021728515625,0.290183769317977,0.00621604705910794,,
0.02197265625,0.293798518780149,0.0063143103987211,,
0.022216796875,0.297159605946615,0.00639645221585683,,
0.0224609375,0.30068667272624,0.00650579832888498,,
0.022705078125,0.304044548977571,0.00657946799520248,,
0.02294921875,0.307097635284499,0.00666916638935522,,
0.023193359375,0.310432294149466,0.00674817793389959,,
0.0234375,0.313643950265394,0.00683812068727629,,
0.023681640625,0.316621456569903,0.00693129888050592,,
0.02392578125,0.319607113658986,0.00700472728075408,,
0.024169921875,0.322694038071574,0.0071055764977257,,
0.0244140625,0.325713286272844,0.00715931078177734,,
0.024658203125,0.328415147862642,0.00724593148696906,,
0.02490234375,0.330762573820174,0.00732536370055747,,
0.025146484375,0.33355730495543,0.00739791673801582,,
0.025390625,0.336262871447308,0.00744934971494482,,
0.025634765625,0.338543856160882,0.00753992656504243,,
0.02587890625,0.341018483756474,0.00758584135392493,,
0.026123046875,0.343363439779287,0.00767178465822971,,
0.0263671875,0.345491782527188,0.00774264264689339,,
0.026611328125,0.347634203902991,0.0077962934157676,,
0.02685546875,0.349877151621883,0.00785551804947371,,
0.027099609375,0.35169798749719,0.0079400106642078,,
0.02734375,0.353720617039092,0.00799708555537348,,
0.027587890625,0.355534784090656,0.00801888610994395,,
0.02783203125,0.357158025188394,0.00808264221533639,,
0.028076171875,0.358945022958043,0.00813981608745351,,
0.0283203125,0.360234081888216,0.0081863000168072,,
0.028564453125,0.361797550565739,0.00823541622084001,,
0.02880859375,0.363011523480434,0.00825712088761366,,
0.029052734375,0.364822726610336,0.00831429166657616,,
0.029296875,0.365814158406793,0.00837119643423101,,
0.029541015625,0.366858940793195,0.00841838560286456,,
0.02978515625,0.36806155200818,0.00845017086091859,,
0.030029296875,0.368916890401587,0.00851267733179828,,
0.0302734375,0.369891279648479,0.00852222899361932,,
0.030517578125,0.370663628235306,0.00856349167778081,,
0.03076171875,0.371175645702684,0.00858327858861907,,
0.031005859375,0.371922306968427,0.00860886207142997,,
0.03125,0.37262870829824,0.00862342464392096,,
0.031494140625,0.373060946874174,0.00865766277367985,,
0.03173828125,0.373488492574141,0.00865173319605361,,
0.031982421875,0.373425509238791,0.00869706647184598,,
0.0322265625,0.374102765338912,0.00868906138739245,,
0.032470703125,0.373948394418936,0.00871573675382464,,
0.03271484375,0.373736474019992,0.00872420271833363,,
0.032958984375,0.373791306570767,0.00873663410721282,,
0.033203125,0.373954816249207,0.00875187717374537,,
0.033447265625,0.373487504600253,0.00878952705317682,,
0.03369140625,0.372954492687758,0.00876189899508617,,
0.033935546875,0.372476313326039,0.00877215589618663,,
0.0341796875,0.372128052530572,0.00877571921044096,,
0.034423828125,0.371629866697623,0.00877086914381708,,
0.03466796875,0.37087060876481,0.00872788666562307,,
0.034912109375,0.370240281424362,0.00874248635597086,,
0.03515625,0.369263669236222,0.00872101058264763,,
0.035400390625,0.368114161617708,0.00874466393690421,,
0.03564453125,0.367193369954232,0.00872212102519754,,
0.035888671875,0.36608436926512,0.00869924405277933,,
0.0361328125,0.364944247398541,0.00871320346009696,,
0.036376953125,0.363453147808303,0.00867416475418992,,
0.03662109375,0.362093695738622,0.00866561836765767,,
0.036865234375,0.360902446223346,0.0086434342619004,,
0.037109375,0.359380225455641,0.00861736206064112,,
0.037353515625,0.357826883510469,0.00857131117294996,,
0.03759765625,0.355834634165619,0.00856784683964706,,
0.037841796875,0.354123957378806,0.00850997082140559,,
0.0380859375,0.352276693201999,0.00844659517404533,,
0.038330078125,0.350132542871892,0.00845516011950576,,
0.03857421875,0.348200312940729,0.00841579663235148,,
0.038818359375,0.346174719477164,0.00839166074595621,,
0.0390625,0.34395918803366,0.00833931219522555,,
0.039306640625,0.341702902667282,0.00829536155959953,,
0.03955078125,0.339348313899064,0.0082584323852215,,
0.039794921875,0.336774394927742,0.0082063189142505,,
0.0400390625,0.334207885760579,0.00816758024435238,,
0.040283203125,0.331712757706814,0.00811958376233335,,
0.04052734375,0.329042758274899,0.0080554843167655,,
0.040771484375,0.326310516488049,0.00799594727443109,,
0.041015625,0.323194199852298,0.00795509288669471,,
0.041259765625,0.320388107017332,0.00790533021332207,,
0.04150390625,0.317544471174627,0.00784135140078845,,
0.041748046875,0.314547452385833,0.00776720229548733,,
0.0419921875,0.311168334695914,0.00772240104230937,,
0.042236328125,0.307769951515181,0.00762385003930532,,
0.04248046875,0.304801089982192,0.0075879446991447,,
0.042724609375,0.301405670723123,0.00751704031315992,,
0.04296875,0.297776101652633,0.00744853312209504,,
0.043212890625,0.2941724668967,0.00735808927765103,,
0.04345703125,0.290883501824047,0.007293578442503,,
0.043701171875,0.287293451709071,0.00723644168824311,,
0.0439453125,0.283574964988675,0.00715850656154648,,
0.044189453125,0.279674197085971,0.00705230000057444,,
0.04443359375,0.275961885202374,0.00699353006061409,,
0.044677734375,0.271967259780324,0.00690082202690423,,
0.044921875,0.268093167172592,0.00680093478105537,,
0.045166015625,0.264091131946383,0.0067205653415825,,
0.04541015625,0.259945346519491,0.00666243877780692,,
0.045654296875,0.255862050441007,0.00656470746080817,,
0.0458984375,0.251664643378475,0.00646577599977194,,
0.046142578125,0.247304992479049,0.00638040492909298,,
0.04638671875,0.243212032780974,0.00632921940454256,,
0.046630859375,0.238600170672489,0.00622334690428161,,
0.046875,0.234355834850285,0.00610541110055562,,
0.047119140625,0.229631096725114,0.00600885208920099,,
0.04736328125,0.225201515798937,0.00591427888318607,,
0.047607421875,0.220499717192475,0.00580490493176589,,
0.0478515625,0.215968899816978,0.00571983080394123,,
0.048095703125,0.211288126529816,0.00559828219548475,,
0.04833984375,0.206475736596282,0.00549963530468434,,
0.048583984375,0.201602277526805,0.00540200296863702,,
0.048828125,0.196768368287026,0.0052715491676989,,
0.049072265625,0.191850759134436,0.00517941955392454,,
0.04931640625,0.186831079929557,0.0050713416343382,,
0.049560546875,0.181925326463622,0.00495285215591412,,
0.0498046875,0.176890580656953,0.00483894982596178,,
0.050048828125,0.171807948990908,0.00474713262081572,,
0.05029296875,0.166605309371673,0.00461464971037184,,
0.050537109375,0.16153598447893,0.00448410311479197,,
0.05078125,0.156324638339809,0.00439739580126775,,
0.051025390625,0.15098766514601,0.00428733826265093,,
0.05126953125,0.145744209855534,0.00417571558773799,,
0.051513671875,0.140449132929417,0.00403677107705347,,
0.0517578125,0.135163009516658,0.00390994245346477,,
0.052001953125,0.129855613791128,0.00382097095067468,,
0.05224609375,0.124462511330826,0.00368288943016104,,
0.052490234375,0.118966906579659,0.00356821690467957,,
0.052734375,0.113509091829703,0.00342354696458091,,
0.052978515625,0.108008794202569,0.00331203255008417,,
0.05322265625,0.102431465486367,0.00319639805348038,,
0.053466796875,0.0969185403179794,0.00305792679547023,,
0.0537109375,0.0912932639940326,0.00293664729147558,,
0.053955078125,0.0858394011396279,0.00279714601293835,,
0.05419921875,0.0802030101094428,0.00267376625687898,,
0.054443359375,0.0745550103860755,0.00253808811759448,,
0.0546875,0.0689035527541007,0.00239332847600826,,
0.054931640625,0.0632592888069968,0.00226181990930607,,
0.05517578125,0.0575386112545045,0.00213706679254422,,
0.055419921875,0.0518313330978662,0.00201691938318271,,
0.0556640625,0.0461720334231566,0.00189346229825471,,
0.055908203125,0.0404615134771988,0.0017871443837123,,
0.05615234375,0.0347801696351165,0.00162768607082642,,
0.056396484375,0.0290467410446342,0.00150502392666541,,
0.056640625,0.0232979679847062,0.00135135599944336,,
0.056884765625,0.017609152590097,0.00122221369611308,,
0.05712890625,0.0118495426915867,0.00111298512296498,,
0.057373046875,0.00608669100375677,0.000954269167216193,,
0.0576171875,0.000349032650067059,0.000839438890843258,,
0.057861328125,-0.00543746866270324,0.000701781132528279,,
0.05810546875,-0.0111799433890962,0.000561389025427683,,
0.058349609375,-0.0169466852241095,0.000417074798123362,,
0.05859375,-0.0226731671231929,0.000294115711108045,,
0.058837890625,-0.0284249658531525,0.000151620258787677,,
0.05908203125,-0.0342122698947067,1.23911778673325E-05,,
0.059326171875,-0.0399059016620191,-0.000100334206708297,,
0.0595703125,-0.0455870602589974,-0.000245564007813837,,
0.059814453125,-0.0512283911586217,-0.000391525340014187,,
0.06005859375,-0.0569937745295392,-0.000514892723454619,,
0.060302734375,-0.0627088947289123,-0.000628263030792553,,
0.060546875,-0.0682874275382902,-0.000778839349857119,,
0.060791015625,-0.0739219043690675,-0.000895684816539788,,
0.06103515625,-0.0796654905660843,-0.00106245380064074,,
0.061279296875,-0.0852218557113535,-0.0012101720447304,,
0.0615234375,-0.0909555621694919,-0.00132048631519055,,
0.061767578125,-0.0964291845016536,-0.00144252828182712,,
0.06201171875,-0.101997405333577,-0.00158340601422102,,
0.062255859375,-0.107456702044365,-0.00172570195806099,,
0.0625,-0.1130036814377,-0.00183066971056167,,
0.062744140625,-0.118474339848198,-0.00195485523342942,,
0.06298828125,-0.123889980462816,-0.00208893730487114,,
0.063232421875,-0.129416150656138,-0.00220896408119842,,
0.0634765625,-0.134673159713389,-0.00234163567408086,,
0.063720703125,-0.139982593135063,-0.00249082471324691,,
0.06396484375,-0.145394158357395,-0.00260831355611435,,
0.064208984375,-0.150578242592048,-0.00272493940881047,,
0.064453125,-0.155826421632676,-0.0028696371873016,,
0.064697265625,-0.160982163366422,-0.00299247254812762,,
0.06494140625,-0.166123579478794,-0.00313020454215662,,
0.065185546875,-0.171344836230978,-0.00324560395900031,,
0.0654296875,-0.176497552294693,-0.00336846406506419,,
0.065673828125,-0.181451006374902,-0.00349672945902757,,
0.06591796875,-0.186488499983945,-0.00362920463658423,,
0.066162109375,-0.191529328004861,-0.00374550725461065,,
0.06640625,-0.196171323316925,-0.00388015846652356,,
0.066650390625,-0.201152440665993,-0.00398579743360195,,
0.06689453125,-0.205974000232174,-0.00409639472771994,,
0.067138671875,-0.210667617179878,-0.00421241122893345,,
0.0673828125,-0.21550449034132,-0.00432047522932377,,
0.067626953125,-0.22010943663259,-0.00444463446037657,,
0.06787109375,-0.22475093795771,-0.00460786642203859,,
0.068115234375,-0.229333593088135,-0.00467009914872385,,
0.068359375,-0.233881051648805,-0.00481906702732671,,
0.068603515625,-0.238369231776204,-0.0049054650253777,,
0.06884765625,-0.242850372589652,-0.00501628502663642,,
0.069091796875,-0.247046544684824,-0.00510102509374954,,
0.0693359375,-0.251389739644181,-0.00524098725234223,,
0.069580078125,-0.255573747310859,-0.00533193682758526,,
0.06982421875,-0.259766955484367,-0.00544260990399437,,
0.070068359375,-0.263870752021024,-0.00553224952820708,,
0.0703125,-0.26794293339327,-0.0056399794678863,,
0.070556640625,-0.27179529057547,-0.00575923759526153,,
0.07080078125,-0.275810169462221,-0.00584552423974216,,
0.071044921875,-0.279417509120234,-0.00596975770650809,,
0.0712890625,-0.283364650047299,-0.00606862730444968,,
0.071533203125,-0.287245040988567,-0.00616820214167069,,
0.07177734375,-0.290863927591394,-0.00625055429332821,,
0.072021484375,-0.294571793592495,-0.00633536704957782,,
0.072265625,-0.29804600376912,-0.00642296673824294,,
0.072509765625,-0.301410116605618,-0.00649634874117,,
0.07275390625,-0.304648139274679,-0.00659912808669594,,
0.072998046875,-0.308040841605556,-0.00670033610961696,,
0.0732421875,-0.311272257199242,-0.00676172904479211,,
0.073486328125,-0.314403393443311,-0.00687628712354815,,
0.07373046875,-0.317549102302226,-0.00695209415978715,,
0.073974609375,-0.320652575277435,-0.00701611009017755,,
0.07421875,-0.323285525688556,-0.00710915063802098,,
0.074462890625,-0.326336636047709,-0.00717923224484629,,
0.07470703125,-0.329016947457079,-0.00725347878452176,,
0.074951171875,-0.33174974497924,-0.00731868248633027,,
0.0751953125,-0.334217209764146,-0.00739477409280465,,
0.075439453125,-0.337009038726106,-0.00747138534927494,,
0.07568359375,-0.339446802546009,-0.00755334003054919,,
0.075927734375,-0.341988859359447,-0.00760223971375096,,
0.076171875,-0.344017169751204,-0.00769099933544171,,
0.076416015625,-0.345995525713255,-0.00773332606483201,,
0.07666015625,-0.348348262030435,-0.00780271171184177,,
0.076904296875,-0.350678583690033,-0.0078605150409472,,
0.0771484375,-0.352436991965302,-0.0079348868533895,,
0.077392578125,-0.354060418308144,-0.00795623116763666,,
0.07763671875,-0.356064523339648,-0.00802433160885396,,
0.077880859375,-0.35774234999469,-0.00806874776426758,,
0.078125,-0.359367752285307,-0.00814428260289013,,
0.078369140625,-0.361199702866853,-0.00818159842161004,,
0.07861328125,-0.362459678315702,-0.00823847535087241,,
0.078857421875,-0.36388501589403,-0.00828231153977343,,
0.0791015625,-0.36535944342491,-0.00831979902858082,,
0.079345703125,-0.366615096488,-0.00835550640683902,,
0.07958984375,-0.367551510488578,-0.0083813064104814,,
0.079833984375,-0.368701944332611,-0.0084194388220511,,
0.080078125,-0.369545180045891,-0.00849356163553727,,
0.080322265625,-0.370538093803181,-0.00850764167589002,,
0.08056640625,-0.371238073302723,-0.00854186433987492,,
0.080810546875,-0.371970655940564,-0.00854910232195438,,
0.0810546875,-0.372599254326708,-0.00856280035769741,,
0.081298828125,-0.372873417080587,-0.00863181327956131,,
0.08154296875,-0.373387657489213,-0.00862243483440572,,
0.081787109375,-0.373879668485362,-0.00865549292563328,,
0.08203125,-0.374061455680726,-0.00868792155987252,,
0.082275390625,-0.374337347388909,-0.00870687795866409,,
0.08251953125,-0.374216814574591,-0.00870841216341267,,
0.082763671875,-0.374494682230549,-0.00868902426953522,,
0.0830078125,-0.374350376294555,-0.00871628114905798,,
0.083251953125,-0.374314376996016,-0.00873889674990069,,
0.08349609375,-0.373984887704418,-0.00873594124055188,,
0.083740234375,-0.373485960891054,-0.00871928769546004,,
0.083984375,-0.372982835188666,-0.00874271988915298,,
0.084228515625,-0.372763010998619,-0.00873645934396983,,
0.08447265625,-0.371871858551778,-0.00875533996047073,,
0.084716796875,-0.371142486829073,-0.00874379785357826,,
0.0849609375,-0.370442260336059,-0.00872723091681893,,
0.085205078125,-0.369518010763976,-0.00872674683810271,,
0.08544921875,-0.368466621302199,-0.00873579276912473,,
0.085693359375,-0.367345456184593,-0.0086960766623303,,
0.0859375,-0.366096224951775,-0.00870526951820194,,
0.086181640625,-0.364903184733827,-0.00868207085769157,,
0.08642578125,-0.363654879726529,-0.00864694499252394,,
0.086669921875,-0.362357917005254,-0.0086358467533354,,
0.0869140625,-0.360755855597737,-0.0085939283203702,,
0.087158203125,-0.359189237753446,-0.00856784683964706,,
0.08740234375,-0.357680354633227,-0.00856665906822895,,
0.087646484375,-0.355997341115274,-0.00851997872354948,,
0.087890625,-0.353944578369794,-0.00852148663648267,,
0.088134765625,-0.352233654589509,-0.00848039871556372,,
