Time domain (s),Current (AC) (A),Potential (AC) (V),Frequency (Hz),Column 5
0,-0.27494776088068,-0.0106333062266835,0.031623,0.4
0.0772034990355121,-0.270869898658578,-0.0105914759523147,,
0.154406998071024,-0.266808770244202,-0.0104746847757027,,
0.231610497106536,-0.262773205654175,-0.010352968176806,,
0.308813996142049,-0.258459958653293,-0.0103013672153636,,
0.386017495177561,-0.254507877856788,-0.0102150427090053,,
0.463220994213073,-0.25031775710168,-0.0101371483835173,,
0.540424493248585,-0.246106827146559,-0.0100183942010017,,
0.617627992284097,-0.241571039027439,-0.00991075973915656,,
0.694831491319609,-0.237065137118426,-0.009799110580615,,
0.772034990355121,-0.232788692144867,-0.00970034290216937,,
0.849238489390633,-0.228245494221588,-0.00960052464888728,,
0.926441988426146,-0.2235993000205,-0.00950417192818209,,
1.00364548746166,-0.218877834558833,-0.00938699872435667,,
1.08084898649717,-0.214275296453915,-0.00923847029591096,,
1.15805248553268,-0.209591065258145,-0.00916026557331229,,
1.23525598456819,-0.204790747130553,-0.00901961133970319,,
1.31245948360371,-0.2000544003122,-0.00889631205663699,,
1.38966298263922,-0.195011534595141,-0.00880493933353277,,
1.46686648167473,-0.190099822411694,-0.00865540296721656,,
1.54406998071024,-0.185345383321519,-0.00853239020456043,,
1.62127347974575,-0.180175377714767,-0.0084168798423998,,
1.69847697878127,-0.175263171544376,-0.00826764534580082,,
1.77568047781678,-0.169832279082864,-0.00814564222649405,,
1.85288397685229,-0.164972929515473,-0.00800520799962801,,
1.9300874758878,-0.159810518957984,-0.00787926010824913,,
2.00729097492332,-0.1545333181844,-0.00775504668863736,,
2.08449447395883,-0.149375538754511,-0.00758402129157743,,
2.16169797299434,-0.144023684204026,-0.00747379109125657,,
2.23890147202985,-0.138866707502921,-0.00731431007904604,,
2.31610497106536,-0.133416055563651,-0.00719623638250377,,
2.39330847010088,-0.127975530356733,-0.00702671010115985,,
2.47051196913639,-0.122614537047786,-0.00686838881441787,,
2.5477154681719,-0.117080833553569,-0.00671837661956376,,
2.62491896720741,-0.11157670752762,-0.00657320457306243,,
2.70212246624292,-0.106127537549183,-0.0063876757857293,,
2.77932596527844,-0.100582719348728,-0.00625553700692194,,
2.85652946431395,-0.0950233902817949,-0.00610412973054775,,
2.93373296334946,-0.0895273532920525,-0.00594718476506051,,
3.01093646238497,-0.0839155381123277,-0.00580700806546774,,
3.08813996142049,-0.0782525952839066,-0.00561738442394288,,
3.165343460456,-0.0726388041564061,-0.00547173825438252,,
3.24254695949151,-0.0669814804294722,-0.00529888458423056,,
3.31975045852702,-0.0613083491203327,-0.00515218613435531,,
3.39695395756253,-0.0556052081043498,-0.00497586693162644,,
3.47415745659805,-0.0499502925637675,-0.00480870103270714,,
3.55136095563356,-0.0442101642753582,-0.0046279220033596,,
3.62856445466907,-0.0385621645519909,-0.00446519205435791,,
3.70576795370458,-0.0328003008380489,-0.00432064762399298,,
3.78297145274009,-0.0271000002469935,-0.00412083545312969,,
3.86017495177561,-0.0213481397686659,-0.00394208764883119,,
3.93737845081112,-0.0156004164309937,-0.00379353363820556,,
4.01458194984663,-0.0098457155277386,-0.00360819586447914,,
4.09178544888214,-0.00405149566896947,-0.00343156285368229,,
4.16898894791766,0.00170616915594921,-0.00326671811117896,,
4.24619244695317,0.00741764620161089,-0.00307885793455798,,
4.32339594598868,0.0132148608562276,-0.00289521029015427,,
4.40059944502419,0.0189862955672082,-0.00271706281433337,,
4.4778029440597,0.0247392983903435,-0.00253635029865285,,
4.55500644309522,0.0304110403612033,-0.00234902052588559,,
4.63220994213073,0.0361856859873194,-0.00217143415253451,,
4.70941344116624,0.041884350246623,-0.00198567000915029,,
4.78661694020175,0.0475726099059202,-0.00183161924089914,,
4.86382043923726,0.0532295013942782,-0.00164374371497011,,
4.94102393827278,0.0589609849111688,-0.00146651037569567,,
5.01822743730829,0.0646289911057651,-0.00124149634711035,,
5.0954309363438,0.0702471354932089,-0.00109448408916712,,
5.17263443537931,0.0759617617056381,-0.000927510909332963,,
5.24983793441482,0.0815458209939511,-0.000747669893232494,,
5.32704143345034,0.0872076832259323,-0.000564230317221526,,
5.40424493248585,0.0925995198446905,-0.000382264274747079,,
5.48144843152136,0.0981403244012261,-0.000226286315643698,,
5.55865193055687,0.103818951315117,-3.22847104743396E-05,,
5.63585542959239,0.109353581034853,0.000191879989752675,,
5.7130589286279,0.114754587286258,0.000354640637369563,,
5.79026242766341,0.120257848835055,0.000545217641449103,,
5.86746592669892,0.125723320382642,0.000712327259573264,,
5.94466942573443,0.131092711469636,0.000891934625101953,,
6.02187292476995,0.136365775102564,0.00109593715695988,,
6.09907642380546,0.141772493078008,0.00128820940679786,,
6.17627992284097,0.147079857929355,0.00146013188561733,,
6.25348342187648,0.152327975221615,0.00162737794203238,,
6.33068692091199,0.15752690993877,0.00183060277563474,,
6.40789041994751,0.162744924901635,0.0019973440103751,,
6.48509391898302,0.167888069968311,0.00217024202297145,,
6.56229741801853,0.172957857973814,0.00234011792743472,,
6.63950091705404,0.178202764350938,0.00253219575270869,,
6.71670441608956,0.183209105908331,0.00273241894392173,,
6.79390791512507,0.188172408853234,0.00287983710577899,,
6.87111141416058,0.193082392082377,0.00304591320385361,,
6.94831491319609,0.197841215306679,0.00322774451351604,,
7.0255184122316,0.202841845140033,0.00340379083966402,,
7.10272191126712,0.207621168822508,0.00358076494618675,,
7.17992541030263,0.21233973211088,0.00377930653547054,,
7.25712890933814,0.217027668208729,0.00394988850808664,,
7.33433240837365,0.221682754174807,0.00410346344779988,,
7.41153590740916,0.226422311908296,0.00430467922757583,,
7.48873940644468,0.230809656950767,0.00445237367697127,,
7.56594290548019,0.235372614351803,0.00463945786081554,,
7.6431464045157,0.239881233189007,0.00480844009447612,,
7.72034990355121,0.24400083730787,0.00495180603910805,,
7.79755340258673,0.248318314071959,0.00510505352692414,,
7.87475690162224,0.252690561638456,0.00528643459022815,,
7.95196040065775,0.256902325196545,0.00543075901385004,,
8.02916389969326,0.260984355433486,0.00555936574641391,,
8.10636739872877,0.265256601518022,0.00574941064116041,,
8.18357089776429,0.268821952285801,0.00591252261737507,,
8.2607743967998,0.273276973539589,0.00608611305429552,,
8.33797789583531,0.276909753525214,0.00626314173613451,,
8.41518139487082,0.280650716651559,0.00640528314710931,,
8.49238489390634,0.284371179319731,0.00654598854507737,,
8.56958839294185,0.287913559694617,0.00667282499082278,,
8.64679189197736,0.291616732819752,0.00682240228862652,,
8.72399539101287,0.295253464700928,0.00696713602711974,,
8.80119889004838,0.298855123509086,0.00711889633757057,,
8.8784023890839,0.302127293025645,0.00730237855054705,,
8.95560588811941,0.305617310784476,0.00742691942205598,,
9.03280938715492,0.308737826309251,0.00756017870032366,,
9.11001288619043,0.312078660011016,0.00772857083837808,,
9.18721638522594,0.315171512266931,0.0078552947225341,,
9.26441988426146,0.318015642096579,0.00798803553529792,,
9.34162338329697,0.320831614670424,0.00811857969158591,,
9.41882688233248,0.324080813794091,0.00826969874207162,,
9.49603038136799,0.326868629112133,0.00837955885352981,,
9.5732338804035,0.329282002326678,0.00850160290432367,,
9.65043737943902,0.332181952680991,0.00862997769179374,,
9.72764087847453,0.33476822132591,0.00876030354681667,,
9.80484437751004,0.337404629645638,0.00886718930354347,,
9.88204787654555,0.339858015802642,0.00901369673981245,,
9.95925137558107,0.342257063395814,0.00911262473324914,,
10.0364548746166,0.344241408949561,0.00923094742967168,,
10.1136583736521,0.346551044905883,0.00933330343515593,,
10.1908618726876,0.348542553270317,0.00947300260073192,,
10.2680653717231,0.350558760981947,0.00957988835745871,,
10.3452688707586,0.352620415492419,0.00970025421728016,,
10.4224723697941,0.3543498637831,0.00976810497911318,,
10.4996758688297,0.356268756066777,0.00985093666523618,,
10.5768793678652,0.358157762140347,0.0099794478909967,,
10.6540828669007,0.359646144802393,0.0100783485967755,,
10.7312863659362,0.36113971432735,0.0101610199679074,,
10.8084898649717,0.362604138622616,0.0102850014424254,,
10.8856933640072,0.36391345101749,0.0103724856742522,,
10.9628968630427,0.365164225959508,0.0104340602747253,,
11.0401003620782,0.366725965682727,0.0105518065193708,,
11.1173038611137,0.367517579760367,0.0106199438016139,,
11.1945073601493,0.368591754369932,0.0107157200705417,,
11.2717108591848,0.369545890152123,0.0108121989966654,,
11.3489143582203,0.37045408514853,0.0108587653851906,,
11.4261178572558,0.371152088700296,0.0109435072073798,,
11.5033213562913,0.371338074784683,0.0109760306848621,,
11.5805248553268,0.371987914609417,0.011067543257214,,
11.6577283543623,0.372799782151758,0.0111208769849451,,
11.7349318533978,0.373048998564968,0.0112033130000255,,
11.8121353524334,0.373349095633402,0.0112747520888972,,
11.8893388514689,0.373747496103678,0.0113140872480297,,
11.9665423505044,0.373885565454505,0.0113528800649574,,
12.0437458495399,0.373814184341108,0.0114238518526846,,
12.1209493485754,0.373968308267612,0.0114839529196211,,
12.1981528476109,0.373594113157589,0.0115191949300404,,
12.2753563466464,0.373521744070304,0.0115540105708019,,
12.3525598456819,0.373485683023398,0.0116101310506149,,
12.4297633447175,0.373038871832617,0.0116650201748572,,
12.506966843753,0.372262077363295,0.0116900941216818,,
12.5841703427885,0.372060777683646,0.0117330346626385,,
12.661373841824,0.371182715890819,0.0117421214527815,,
12.7385773408595,0.37041259024524,0.0117561609528676,,
12.815780839895,0.369703965974179,0.0117754942586221,,
12.8929843389305,0.36885826032618,0.0118246222760501,,
12.970187837966,0.367844599117245,0.0118084031742747,,
13.0473913370016,0.36669484450526,0.0118424138291231,,
13.1245948360371,0.365618693947919,0.0118695138845606,,
13.2017983350726,0.364258747891293,0.0118628011206714,,
13.2790018341081,0.362977345758752,0.0118606590395114,,
13.3562053331436,0.361551699438584,0.011866212077932,,
13.4334088321791,0.360190024427654,0.0119061339217135,,
13.5106123312146,0.358310898092963,0.0118706974867302,,
13.5878158302501,0.356689138956057,0.0118786688938486,,
13.6650193292856,0.355045150406675,0.0118964161044772,,
13.7422228283212,0.352906433932951,0.0118705746922689,,
13.8194263273567,0.351363465713601,0.0118534414539475,,
13.8966298263922,0.349622655723209,0.0118419942813799,,
13.9738333254277,0.347367605324191,0.0118388937212299,,
14.0510368244632,0.345163435580398,0.0118261810835185,,
14.1282403234987,0.34297383845145,0.0117671817557774,,
14.2054438225342,0.340320387582156,0.0117472651763308,,
14.2826473215697,0.338134248361816,0.0117443556297876,,
14.3598508206053,0.335631463510419,0.0116785957847552,,
14.4370543196408,0.333025435387743,0.0117106178515201,,
14.5142578186763,0.3304613961553,0.0116138831036019,,
14.5914613177118,0.327418683574193,0.0115604265814095,,
14.6686648167473,0.324785239176129,0.0115484609433385,,
14.7458683157828,0.321912458103732,0.011482752262665,,
14.8230718148183,0.319185403179794,0.0114602126570853,,
14.9002753138538,0.315831972810959,0.0113951588802061,,
14.9774788128894,0.312896702390156,0.01135430925605,,
15.0546823119249,0.309551916792839,0.011284070824134,,
15.1318858109604,0.306193299561093,0.011222850963216,,
15.2090893099959,0.303139472273748,0.0111787541077475,,
15.2862928090314,0.299999197271216,0.0110943704360706,,
15.3634963080669,0.296119423813629,0.0110375677648054,,
15.4406998071024,0.292742035078013,0.0109719000156194,,
15.5179033061379,0.289021078422897,0.0108891774801285,,
15.5951068051735,0.285544151318081,0.0108335106576312,,
15.672310304209,0.281652275180367,0.010755914790904,,
15.7495138032445,0.278030856894452,0.0106800994438663,,
15.82671730228,0.274281742983533,0.0105775524247758,,
15.9039208013155,0.270197211937688,0.0105010651191582,,
15.981124300351,0.266157139716797,0.010422326581748,,
16.0583277993865,0.262160538346971,0.0103151713593976,,
16.135531298422,0.257999933311763,0.0102298701402179,,
16.2127347974575,0.253982306622636,0.0101613644745906,,
16.2899382964931,0.249679495095945,0.0100647184115612,,
16.3671417955286,0.245103910153655,0.00996892849880426,,
16.4443452945641,0.240854140475067,0.00985834185344947,,
16.5215487935996,0.236480133080083,0.00972339415133794,,
16.5987522926351,0.232059443918897,0.00965198576108151,,
16.6759557916706,0.227616278351763,0.00951743031905483,,
16.7531592907061,0.223001452321615,0.00942137776258889,,
16.8303627897416,0.218345131388177,0.00930921184402234,,
16.9075662887772,0.213702395095698,0.00918988973712276,,
16.9847697878127,0.208875895660078,0.00908660595126332,,
17.0619732868482,0.2039821831259,0.00896864481631088,,
17.1391767858837,0.199289338032796,0.00885051313349505,,
17.2163802849192,0.194415909837503,0.00871280937791674,,
17.2935837839547,0.189540999681378,0.00859492669498074,,
17.3707872829902,0.184541357821913,0.0084524578321088,,
17.4479907820257,0.179512539858572,0.00834326626827409,,
17.5251942810613,0.174359051940257,0.00820057910413707,,
17.6023977800968,0.169343602498586,0.00805444005125278,,
17.6796012791323,0.164185143836648,0.00793577967006165,,
17.7568047781678,0.158962219878529,0.00780524915760239,,
17.8340082772033,0.153873166382213,0.00765226431349531,,
17.9112117762388,0.148544282224621,0.0075222897870697,,
17.9884152752743,0.143270477611277,0.00736541304072791,,
18.0656187743098,0.13793761068395,0.00724074937475772,,
18.1428222733453,0.132494893409967,0.0070825355331694,,
18.2200257723809,0.127221582783567,0.00691455270998631,,
18.2972292714164,0.121817365617027,0.00676545294619935,,
18.3744327704519,0.116276067073547,0.00661807571582873,,
18.4516362694874,0.110881482652414,0.00650819854958451,,
18.5288397685229,0.105280658682191,0.00632785441728778,,
18.6060432675584,0.0997341424016163,0.00619338083823529,,
18.6832467665939,0.0942173270860451,0.00602676239795619,,
18.7604502656294,0.0887106076286404,0.00586876685763293,,
18.837653764665,0.0830845903242777,0.00567578853964168,,
18.9148572637005,0.0774227898406645,0.00555594114532409,,
18.992060762736,0.071769572380202,0.00536888424913773,,
19.0692642617715,0.0661519528538861,0.00518968619848081,,
19.146467760807,0.0605042001239907,0.00504233284481126,,
19.2236712598425,0.0548016148433197,0.00488421792098359,,
19.300874758878,0.04914324139413,0.00469217761623941,,
19.3780782579135,0.043407311994744,0.0045375930331768,,
19.4552817569491,0.0377472404654345,0.00437221618134087,,
19.5324852559846,0.0319831229360608,0.00419774230649006,,
19.6096887550201,0.0262345968696047,0.00401108108134629,,
19.6868922540556,0.0205619286732252,0.00387140238151362,,
19.7640957530911,0.0148257522803672,0.00368230232192834,,
19.8412992521266,0.00903100756047018,0.00350584668090903,,
19.9185027511621,0.00330174698482719,0.00332011323614045,,
19.9957062501976,-0.00249296686088587,0.00316631999516215,,
20.0729097492332,-0.0082330951492952,0.00298440682252554,,
20.1501132482687,-0.0139670486009055,0.00281553715045435,,
20.2273167473042,-0.0197662083291139,0.0026508970653869,,
20.3045202463397,-0.0254717575314484,0.00243364637552768,,
20.3817237453752,-0.0312081809177783,0.00224379249438744,,
20.4589272444107,-0.0369410846471328,0.00206920264698995,,
20.5361307434462,-0.0427319083456624,0.00188604788591018,,
20.6133342424817,-0.0484130051942727,0.00171116128523119,,
20.6905377415173,-0.0540516191657055,0.0015467872548296,,
20.7677412405528,-0.0597796447739886,0.0013778868841432,,
20.8449447395883,-0.0654763022113325,0.00119133139867467,,
20.9221482386238,-0.0711356636344101,0.00100356843433547,,
20.9993517376593,-0.0768568351738464,0.000819622331171388,,
21.0765552366948,-0.082397022246702,0.000619794811000496,,
21.1537587357303,-0.0880122335866663,0.000474355004354443,,
21.2309622347658,-0.0936474513978596,0.000264127475495091,,
21.3081657338013,-0.0990432090379851,9.06018467632386E-05,,
21.3853692328369,-0.104597783480583,-0.000113260835847395,,
21.4625727318724,-0.110195458284038,-0.000282933788353201,,
21.5397762309079,-0.115565034616135,-0.000473063957031616,,
21.6169797299434,-0.120999631979727,-0.000636610830297091,,
21.6941832289789,-0.126393043181869,-0.000819726365368201,,
21.7713867280144,-0.131884696037484,-0.00100297492777246,,
21.8485902270499,-0.137361035297837,-0.00119642907430118,,
21.9257937260854,-0.142585441216789,-0.00138337852533343,,
22.002997225121,-0.147864185699572,-0.0015459583922155,,
22.0802007241565,-0.153118971815575,-0.00173448882193838,,
22.157404223192,-0.158464157542316,-0.00188532135201402,,
22.2346077222275,-0.163524312802413,-0.002082979503367,,
22.311811221263,-0.168576317277934,-0.00226497624445665,,
22.3890147202985,-0.173713040514339,-0.00246939832405779,,
22.466218219334,-0.178776406689571,-0.00264758843684421,,
22.5434217183695,-0.183827361442837,-0.00280119236969423,,
22.6206252174051,-0.18883076995275,-0.00301140113828824,,
22.6978287164406,-0.193833128740407,-0.00313953033683578,,
22.7750322154761,-0.198646228780173,-0.00337474994954512,,
22.8522357145116,-0.203567450212291,-0.0035205496121824,,
22.9294392135471,-0.208392405938711,-0.00370536721492698,,
23.0066427125826,-0.213015629746906,-0.00387523288651792,,
23.0838462116181,-0.217639594535516,-0.00405163395222141,,
23.1610497106536,-0.222289555387051,-0.00420298494780047,,
23.2382532096892,-0.227023370522317,-0.00439339652045279,,
23.3154567087247,-0.231448505565998,-0.00455329025849194,,
23.3926602077602,-0.235935141984197,-0.00471094299761043,,
23.4698637067957,-0.240432646115163,-0.00488890287078192,,
23.5470672058312,-0.244733790435919,-0.00504917522507675,,
23.6242707048667,-0.249007518481287,-0.00521476867269888,,
23.7014742039022,-0.253597645164238,-0.00538147238690945,,
23.7786777029377,-0.257435923718536,-0.00555833563732122,,
23.8558812019732,-0.261782453089765,-0.00567931376397146,,
23.9330847010088,-0.265763555619225,-0.00588406841190547,,
24.0102882000443,-0.269827339213425,-0.00602128440059557,,
24.0874916990798,-0.273745149665694,-0.00614545688872026,,
24.1646951981153,-0.277724214499011,-0.00634430205320013,,
24.2418986971508,-0.281473822396874,-0.00648517458807385,,
24.3191021961863,-0.285304197160069,-0.00663873758943678,,
24.3963056952218,-0.289075540483465,-0.00680133110014802,,
24.4735091942573,-0.292364505556118,-0.00695726471680702,,
24.5507126932929,-0.296022664120987,-0.0070928860829782,,
24.6279161923284,-0.299563377289938,-0.00724781005628827,,
24.7051196913639,-0.302856047264671,-0.00737220084567758,,
24.7823231903994,-0.306474995615866,-0.00752547562115202,,
24.8595266894349,-0.309776001620277,-0.00768448080482464,,
24.9367301884704,-0.312720657793015,-0.00780746627982243,,
25.0139336875059,-0.315672106286231,-0.00794963327297671,,
25.0911371865414,-0.318843749459702,-0.00809001804096221,,
25.168340685577,-0.321925178267538,-0.00822165199809533,,
25.2455441846125,-0.324747325678182,-0.00832660033109756,,
25.322747683648,-0.327703281802262,-0.008468061256099,,
25.3999511826835,-0.33035599169114,-0.00861699558845919,,
25.477154681719,-0.33300586115509,-0.00871894057359324,,
25.5543581807545,-0.335315744104883,-0.00886519048258894,,
25.63156167979,-0.338041749306566,-0.00899094565488268,,
25.7087651788255,-0.340279016175603,-0.00911110685726868,,
25.7859686778611,-0.343057939728653,-0.00921336565047071,,
25.8631721768966,-0.344995541767831,-0.00934178307490674,,
25.9403756759321,-0.347399035243499,-0.009446349380696,,
26.0175791749676,-0.349425925422791,-0.00957874909773393,,
26.0947826740031,-0.351440712921958,-0.00966714746610631,,
26.1719861730386,-0.353290138291645,-0.00979797984828279,,
26.2491896720741,-0.35513993415154,-0.00987540687262589,,
26.3263931711096,-0.356935020957396,-0.0100001387577415,,
26.4035966701451,-0.358673855000012,-0.0101013469761075,,
26.4808001691807,-0.360067886155769,-0.01017904858251,,
26.5580036682162,-0.361709651763904,-0.0102627278915124,,
26.6352071672517,-0.363184141043152,-0.0103832574772822,,
