Time domain (s),Current (AC) (A),Potential (AC) (V),Frequency (Hz),Column 5
0,0.2229077552532,0.00324705078494469,0.031623,0.5
0.0772034990355121,0.228872355783443,0.00346093655605273,,
0.154406998071024,0.2351964139449,0.00366501063704305,,
0.231610497106536,0.241097778855966,0.00388854312659692,,
0.308813996142049,0.246902978837193,0.0041049818343093,,
0.386017495177561,0.25310598899445,0.00434574149057942,,
0.463220994213073,0.258891126553898,0.00454526647774989,,
0.540424493248585,0.264570670554192,0.00475743241918991,,
0.617627992284097,0.27025336924625,0.00497390824552824,,
0.694831491319609,0.27602936174418,0.00519318859026852,,
0.772034990355121,0.281695329936097,0.00540994074415524,,
0.849238489390633,0.287220081364109,0.00559329850759349,,
0.926441988426146,0.292768404365413,0.0058222915594488,,
1.00364548746166,0.297981479336344,0.00603065077958664,,
1.08084898649717,0.30335679053428,0.00621368684826695,,
1.15805248553268,0.308660926214666,0.00644497300634539,,
1.23525598456819,0.313797473325841,0.00664569816242011,,
1.31245948360371,0.318899425165536,0.00685345111166802,,
1.38966298263922,0.324105162819668,0.00704042587898712,,
1.46686648167473,0.329126014268848,0.00726242825629475,,
1.54406998071024,0.333956591724896,0.00741563744690632,,
1.62127347974575,0.338763349485828,0.00761475412919133,,
1.69847697878127,0.343344387278751,0.00783366328767254,,
1.77568047781678,0.347891964071393,0.00802464686659077,,
1.85288397685229,0.352725093637632,0.00821174536266245,,
1.9300874758878,0.357007818106002,0.0083969384359377,,
2.00729097492332,0.361459832550379,0.00857218784175906,,
2.08449447395883,0.365771480934248,0.00878267107215791,,
2.16169797299434,0.369825366188822,0.0089390023516378,,
2.23890147202985,0.374134178894701,0.00910076119908521,,
2.31610497106536,0.378153752445595,0.00930471155132295,,
2.39330847010088,0.382146954191182,0.00947136593309894,,
2.47051196913639,0.385606197771242,0.00964216110381066,,
2.5477154681719,0.389438900142592,0.00982319689098343,,
2.62491896720741,0.393414804252439,0.00999129477487859,,
2.70212246624292,0.39690807596838,0.0101302132945125,,
2.77932596527844,0.400702213119066,0.0103120945614976,,
2.85652946431395,0.403987913206135,0.0104811740268334,,
2.93373296334946,0.407369459209268,0.0106268275149253,,
3.01093646238497,0.410534359413962,0.0107856952338428,,
3.08813996142049,0.413366918158221,0.0109494254927553,,
3.165343460456,0.41643625601465,0.0110940644050719,,
3.24254695949151,0.419269381894508,0.0112610446058978,,
3.31975045852702,0.422647808651852,0.0113881387810322,,
3.39695395756253,0.425066074841766,0.0115516587010642,,
3.47415745659805,0.427644556838117,0.0116616618111101,,
3.55136095563356,0.430178518690024,0.011813105804845,,
3.62856445466907,0.432760119932165,0.0119169719687395,,
3.70576795370458,0.434835836220881,0.0120665847769286,,
3.78297145274009,0.43720391091037,0.0121827413302933,,
3.86017495177561,0.439529733997808,0.0123205957826507,,
3.93737845081112,0.441461681412428,0.0124326569142892,,
4.01458194984663,0.443328975368876,0.0125679666786258,,
4.09178544888214,0.44530260724995,0.0126867462815548,,
4.16898894791766,0.446492741302373,0.0127973102952814,,
4.24619244695317,0.448446523437517,0.0128997040870145,,
4.32339594598868,0.449886764288662,0.0130123962352933,,
4.40059944502419,0.451299215495506,0.0131085953407908,,
4.4778029440597,0.452792767092864,0.0132041964239815,,
4.55500644309522,0.453742435651732,0.0133313730849509,,
4.63220994213073,0.454554290260283,0.0134310324712419,,
4.70941344116624,0.455925057000672,0.0135014794989372,,
4.78661694020175,0.456793625169024,0.0135650224622124,,
4.86382043923726,0.457352820868662,0.013675339018433,,
4.94102393827278,0.458264207774663,0.0137404698340391,,
5.01822743730829,0.458740601676992,0.0138566758789045,,
5.0954309363438,0.4592226669353,0.013909730768213,,
5.17263443537931,0.459316811444569,0.013999359876923,,
5.24983793441482,0.45952183096325,0.0140811363341062,,
5.32704143345034,0.459759177211017,0.01413021540615,,
5.40424493248585,0.459862112322056,0.0141721347076835,,
5.48144843152136,0.459673539735718,0.0142563527455937,,
5.55865193055687,0.459258963613572,0.0143136144125058,,
5.63585542959239,0.459314826469976,0.0143748518966822,,
5.7130589286279,0.458534447887115,0.0144039858937344,,
5.79026242766341,0.457787530304536,0.0145150943139738,,
5.86746592669892,0.457404997343679,0.0144946873183041,,
5.94466942573443,0.456991839060529,0.0145396256014121,,
6.02187292476995,0.455921370619285,0.0145717662071632,,
6.09907642380546,0.455158856807761,0.0146128895203854,,
6.17627992284097,0.453695646964896,0.0146568214763021,,
6.25348342187648,0.452504662209075,0.0146626614734462,,
6.33068692091199,0.451549038726429,0.0147082596432373,,
6.40789041994751,0.450147646663747,0.0147124994151753,,
6.48509391898302,0.44849671493794,0.0147165742154423,,
6.56229741801853,0.44709759141765,0.0147156008825848,,
6.63950091705404,0.445475583607343,0.0147439265184501,,
6.71670441608956,0.443269426131085,0.0147476383810417,,
6.79390791512507,0.441464517090419,0.0147486117138991,,
6.87111141416058,0.439783243610119,0.0147460381558355,,
6.94831491319609,0.437286996275479,0.0147482487762236,,
7.0255184122316,0.435170446223706,0.0147263075440156,,
7.10272191126712,0.432706525618153,0.0147286336445731,,
7.17992541030263,0.430460385082235,0.014676469602287,,
7.25712890933814,0.42769219622835,0.0146989882353421,,
7.33433240837365,0.425581601100356,0.0146423864551131,,
7.41153590740916,0.422600736397217,0.0146219134707746,,
7.48873940644468,0.419925841349204,0.0146065381110625,,
7.56594290548019,0.416716988135665,0.0145733293137433,,
7.6431464045157,0.413842177789354,0.0145529759338663,,
7.72034990355121,0.41082558354354,0.0145058229060786,,
7.79755340258673,0.407647922787891,0.0144340932236431,,
7.87475690162224,0.404116085851285,0.0143973705297378,,
7.95196040065775,0.400851653349141,0.0143254428812973,,
8.02916389969326,0.397178032513033,0.0143021653785564,,
8.10636739872877,0.393540708355198,0.0142046671211524,,
8.18357089776429,0.390107553012646,0.0141940759398911,,
8.2607743967998,0.386341489074062,0.0141169351866557,,
8.33797789583531,0.382249038598823,0.0140433908158419,,
8.41518139487082,0.378444125871776,0.0139711827155615,,
8.49238489390634,0.374530323109911,0.0139172204820643,,
8.56958839294185,0.37050110825385,0.0138391228931383,,
8.64679189197736,0.366316214676137,0.0137411792122233,,
8.72399539101287,0.361769205019093,0.0136312090965114,,
8.80119889004838,0.357201494912723,0.0135662762469102,,
8.8784023890839,0.352671782891419,0.0134759748786415,,
8.95560588811941,0.348236782514983,0.0133677163440136,,
9.03280938715492,0.34370962260387,0.0132962712377105,,
9.11001288619043,0.339009486335364,0.0132106303191399,,
9.18721638522594,0.334245830879881,0.0131243336381788,,
9.26441988426146,0.329183294964247,0.0129821569280479,,
9.34162338329697,0.324439489254694,0.0128721249479593,,
9.41882688233248,0.319275436067017,0.0127859231257088,,
9.49603038136799,0.314284359236732,0.0126421503146634,,
9.5732338804035,0.308982775666537,0.0125385233596913,,
9.65043737943902,0.303503111518567,0.012418452853439,,
9.72764087847453,0.298442844145325,0.0122860960820086,,
9.80484437751004,0.2930357733539,0.0121514503286466,,
9.88204787654555,0.287405818272457,0.0120227188096802,,
9.95925137558107,0.281996727060464,0.0119042361557589,,
10.0364548746166,0.276231545584871,0.0117803259338696,,
10.1136583736521,0.271093013499103,0.0116257474783912,,
10.1908618726876,0.265160491576122,0.0114991977097705,,
10.2680653717231,0.259251789348258,0.0113488590262301,,
10.3452688707586,0.253415077895365,0.0111891705732505,,
10.4224723697941,0.247506127545677,0.0110660687125486,,
10.4996758688297,0.241559710800545,0.0108979873258201,,
10.5768793678652,0.235325756307221,0.010746196891577,,
10.6540828669007,0.22944456015586,0.0105943280957908,,
10.7312863659362,0.223175159687661,0.0104204479548362,,
10.8084898649717,0.217041588195186,0.0102563671311233,,
10.8856933640072,0.210700445073839,0.0100963776048446,,
10.9628968630427,0.204534830420076,0.00992127667352705,,
11.0401003620782,0.198054171941619,0.00975303856371168,,
11.1173038611137,0.191775449182027,0.00960761603595905,,
11.1945073601493,0.185255055765734,0.00943436278735321,,
11.2717108591848,0.178854363406596,0.00924901711528259,,
11.3489143582203,0.172294589512217,0.00908432589638819,,
11.4261178572558,0.165678952761433,0.00890072892402749,,
11.5033213562913,0.159112089672078,0.00872206460462177,,
11.5805248553268,0.152445127149674,0.00851233611961666,,
11.6577283543623,0.14567296097384,0.0083296134971107,,
11.7349318533978,0.139079442511379,0.00816409741986268,,
11.8121353524334,0.132169745953027,0.0079597635084907,,
11.8893388514689,0.125420229755138,0.00777060699082632,,
11.9665423505044,0.118514574037922,0.0075893484918983,,
12.0437458495399,0.111796533865722,0.00738749327987875,,
12.1209493485754,0.104934476697603,0.00720416026219128,,
12.1981528476109,0.0980168402408795,0.00697800059878118,,
12.2753563466464,0.0911060094113317,0.00678732634174573,,
12.3525598456819,0.0841378978863849,0.00656129453138021,,
12.4297633447175,0.0771811290733983,0.00636900767626347,,
12.506966843753,0.0701373049461172,0.00616726382012223,,
12.5841703427885,0.0631833718111206,0.00599678209558485,,
12.661373841824,0.0562132398656059,0.00576836644457712,,
12.7385773408595,0.0491841967098479,0.00552162656524269,,
12.815780839895,0.0420782712345847,0.00533840902772464,,
12.8929843389305,0.0350846740537024,0.00512840421517113,,
12.970187837966,0.0279883544376305,0.00491347912253781,,
13.0473913370016,0.0209972739209643,0.00468261776651158,,
13.1245948360371,0.0139029747254603,0.00449452119183169,,
13.2017983350726,0.00680442201297124,0.00426297932766362,,
13.2790018341081,-0.000215298851394452,0.00404284113023534,,
13.3562053331436,-0.00736914728468945,0.00383867219053391,,
13.4334088321791,-0.0144713863785656,0.00363755935103294,,
13.5106123312146,-0.0215103898532636,0.00340300262958237,,
13.5878158302501,-0.0286809687866999,0.00317647590420478,,
13.6650193292856,-0.0357196886935989,0.00293810833716002,,
13.7422228283212,-0.0427348724731805,0.00272862730966095,,
13.8194263273567,-0.0498155604143323,0.00252115893654503,,
13.8966298263922,-0.0567699897929771,0.00226421143508393,,
13.9738333254277,-0.0637747524559453,0.0020387487769824,,
14.0510368244632,-0.0708083681424622,0.00183571814180894,,
14.1282403234987,-0.0777625848452578,0.00159824142178655,,
14.2054438225342,-0.0846824898443737,0.0013474844822694,,
14.2826473215697,-0.0917668641669125,0.00115320971852073,,
14.3598508206053,-0.0986294175786798,0.000936985473980023,,
14.4370543196408,-0.105589660097204,0.000691557119428143,,
14.5142578186763,-0.112395287273321,0.000463170338462771,,
14.5914613177118,-0.119285063193793,0.000247288410139657,,
14.6686648167473,-0.126089130747015,1.88480133811453E-05,,
14.7458683157828,-0.132868315225875,-0.000219882491339085,,
14.8230718148183,-0.139543217646651,-0.000413637594325333,,
14.9002753138538,-0.146317935932676,-0.000677889216508021,,
14.9774788128894,-0.153081311506742,-0.000899858599481718,,
15.0546823119249,-0.159570760586968,-0.00110123745580193,,
15.1318858109604,-0.166384682121206,-0.00134457273228161,,
15.2090893099959,-0.172861866894126,-0.00156322618467319,,
15.2862928090314,-0.179246395888721,-0.00178123624754933,,
15.3634963080669,-0.185881315249837,-0.00202445398171358,,
15.4406998071024,-0.192131078647954,-0.00224467260283134,,
15.5179033061379,-0.198701131875048,-0.00246987749269723,,
15.5951068051735,-0.205116286191935,-0.00269301817453327,,
15.672310304209,-0.211311108328996,-0.00288478124459512,,
15.7495138032445,-0.217565763271646,-0.00314563445036109,,
15.82671730228,-0.223687141348765,-0.00335298734330758,,
15.9039208013155,-0.229875937670096,-0.00356888576879832,,
15.981124300351,-0.236145763489994,-0.00381340677916109,,
16.0583277993865,-0.241935012782527,-0.00400276126283083,,
16.135531298422,-0.248044764579887,-0.00424122781287783,,
16.2127347974575,-0.253926031623197,-0.00445480013781108,,
16.2899382964931,-0.259788441407874,-0.00467092952364068,,
16.3671417955286,-0.265460648091369,-0.00486160378067568,,
16.4443452945641,-0.271236144345651,-0.00510248097926169,,
16.5215487935996,-0.276947412493458,-0.00533607880287601,,
16.5987522926351,-0.282629544049918,-0.00554211192245679,,
16.6759557916706,-0.288120905369597,-0.00574240402789572,,
16.7531592907061,-0.29346580392109,-0.0059419042693154,,
16.8303627897416,-0.298951706560639,-0.00615542710274708,,
16.9075662887772,-0.304321559078444,-0.00634588689661042,,
16.9847697878127,-0.309728700761819,-0.00657750712232197,,
17.0619732868482,-0.314893321085095,-0.00676429011007373,,
17.1391767858837,-0.319820595160604,-0.00696979325816249,,
17.2163802849192,-0.32500499433786,-0.0071668519188548,,
17.2935837839547,-0.329804733795766,-0.00733789454707257,,
17.3707872829902,-0.334696845464198,-0.00756684223171833,,
17.4479907820257,-0.339425622080404,-0.0077355608215246,,
17.5251942810613,-0.344642418878696,-0.00795566396247338,,
17.6023977800968,-0.348927979025057,-0.00811558750008334,,
17.6796012791323,-0.353407499545937,-0.00831167282791867,,
17.7568047781678,-0.358130888373961,-0.00853499497859245,,
17.8340082772033,-0.362400285155779,-0.00872072008550573,,
17.9112117762388,-0.366740928347096,-0.00887564498149285,,
17.9884152752743,-0.370843870830898,-0.00908514044401265,,
18.0656187743098,-0.375148642695641,-0.00924541248427779,,
18.1428222733453,-0.379086761396271,-0.00940416472302585,,
18.2200257723809,-0.383225504314697,-0.0095743000070545,,
18.2972292714164,-0.386839292345215,-0.00975177653043069,,
18.3744327704519,-0.390620952512744,-0.00991374777890419,,
18.4516362694874,-0.394456490562084,-0.0100954970685527,,
18.5288397685229,-0.397966138318417,-0.0102774401999142,,
18.6060432675584,-0.40172412057473,-0.0104262962005639,,
18.6832467665939,-0.404862578082166,-0.0105958045922439,,
18.7604502656294,-0.408398668535757,-0.0107312277746043,,
18.837653764665,-0.411126874329982,-0.0108851154112117,,
18.9148572637005,-0.414560313240334,-0.0110462267448512,,
18.992060762736,-0.417391099685849,-0.011189702606889,,
19.0692642617715,-0.420478656773364,-0.0113703960778451,,
19.146467760807,-0.423542961301361,-0.011497327343454,,
19.2236712598425,-0.425984692726642,-0.0116379821899226,,
19.300874758878,-0.428450881874587,-0.0117933999387758,,
19.3780782579135,-0.430891266352823,-0.0119030071168122,,
19.4552817569491,-0.433511716383427,-0.0120377229831341,,
19.5324852559846,-0.435649179560376,-0.0121933758166182,,
19.6096887550201,-0.438179242355048,-0.0123197585514223,,
19.6868922540556,-0.440239716874567,-0.0124250269745181,,
19.7640957530911,-0.442043704319886,-0.012564034166425,,
19.8412992521266,-0.44435364761058,-0.0126487450572017,,
19.9185027511621,-0.446023011243321,-0.0127848136912236,,
19.9957062501976,-0.447305021262623,-0.0129311600603321,,
20.0729097492332,-0.44913233215941,-0.0130233936592941,,
20.1501132482687,-0.450753205698522,-0.013138545947613,,
20.2273167473042,-0.452065841040115,-0.0132425110945102,,
20.3045202463397,-0.453420657091811,-0.0133241906308368,,
20.3817237453752,-0.4545920756695,-0.0134345546164125,,
20.4589272444107,-0.455618165750199,-0.013548038628711,,
20.5361307434462,-0.456509632018321,-0.0136258227714623,,
20.6133342424817,-0.457276115779031,-0.0136851816407386,,
20.6905377415173,-0.458179846354459,-0.0137899365895091,,
20.7677412405528,-0.458987447446025,-0.0138678857039314,,
20.8449447395883,-0.459441226816383,-0.0139580757163222,,
20.9221482386238,-0.459578686306951,-0.0140147909145747,,
20.9993517376593,-0.460303202033408,-0.0140822333957171,,
21.0765552366948,-0.460403585034256,-0.014159209177282,,
21.1537587357303,-0.460560681594904,-0.0142310893963669,,
21.2309622347658,-0.460430240407362,-0.0142861218835781,,
21.3081657338013,-0.460150358989744,-0.014374596190593,,
21.3853692328369,-0.459803626463511,-0.0144145688264121,,
21.4625727318724,-0.459460438534765,-0.014497170141949,,
21.5397762309079,-0.458843395004131,-0.014518665950646,,
21.6169797299434,-0.458620794281912,-0.0145703165186069,,
21.6941832289789,-0.457932291665928,-0.0145849330086341,,
21.7713867280144,-0.457359201144139,-0.0146146774008677,,
21.8485902270499,-0.456179842668078,-0.0146688396625159,,
21.9257937260854,-0.45550098135726,-0.0146959259487045,,
22.002997225121,-0.45438400779698,-0.0147302441805088,,
22.0802007241565,-0.453045284217878,-0.0147801646080734,,
22.157404223192,-0.451355999947256,-0.0147698353193393,,
22.2346077222275,-0.450433624789043,-0.0147665193887576,,
22.311811221263,-0.448857838529973,-0.0148228077228123,,
22.3890147202985,-0.447174863642879,-0.0148384800315324,,
22.466218219334,-0.445440562984165,-0.0148088016279671,,
22.5434217183695,-0.443472673351021,-0.0148364673771493,,
22.6206252174051,-0.44167790185917,-0.0148388759635418,,
22.6978287164406,-0.439401490460708,-0.0148394698615566,,
22.7750322154761,-0.437496694662843,-0.0148218508871221,,
22.8522357145116,-0.435053970750265,-0.0148067724764172,,
22.9294392135471,-0.432965281234745,-0.0147974680741876,,
23.0066427125826,-0.430000863463948,-0.0147601535444131,,
23.0838462116181,-0.427711337054783,-0.0147381937528928,,
23.1610497106536,-0.42499078759113,-0.0147251465558833,,
23.2382532096892,-0.42236920328933,-0.0147047045037336,,
23.3154567087247,-0.419364589783024,-0.0146614324344996,,
23.3926602077602,-0.416642835156225,-0.0146689716398525,,
23.4698637067957,-0.413440220434264,-0.0145894882888924,,
23.5470672058312,-0.410260858271822,-0.0145535079675052,,
23.6242707048667,-0.407062497066846,-0.0145165213189262,,
23.7014742039022,-0.403685559040446,-0.0144417396605823,,
23.7786777029377,-0.400377173529456,-0.0144249125501674,,
23.8558812019732,-0.396799540393311,-0.0143409770262433,,
23.9330847010088,-0.393177032652974,-0.0142808118579265,,
24.0102882000443,-0.389195740754945,-0.0142513458553872,,
24.0874916990798,-0.385713244615367,-0.0141754403275365,,
24.1646951981153,-0.381899895746299,-0.0141299906322487,,
24.2418986971508,-0.377654531335447,-0.0140335997471843,,
24.3191021961863,-0.373604261570311,-0.0139949468847314,,
24.3963056952218,-0.369556118563667,-0.0138800441160645,,
24.4735091942573,-0.365350240968826,-0.0138098837266467,,
24.5507126932929,-0.360943526480341,-0.013724525322063,,
24.6279161923284,-0.356408781130605,-0.0136357849982289,,
24.7051196913639,-0.351816400625721,-0.0135377423343113,,
24.7823231903994,-0.3472487614113,-0.0134599107622044,,
24.8595266894349,-0.34237019010527,-0.0133651840288684,,
24.9367301884704,-0.338126881560961,-0.0132455135789176,,
25.0139336875059,-0.333136939001873,-0.0131465491357896,,
25.0911371865414,-0.327992451992326,-0.0130154605840778,,
25.168340685577,-0.322996838077257,-0.0129325767545549,,
25.2455441846125,-0.317973718085685,-0.0128199361599228,,
25.322747683648,-0.31309387072456,-0.0126820384025015,,
25.3999511826835,-0.307743159033187,-0.0125831028294163,,
25.477154681719,-0.30230517935167,-0.0124542743895937,,
25.5543581807545,-0.297028833315587,-0.0123279576434578,,
25.63156167979,-0.291740577431945,-0.0122101348762191,,
25.7087651788255,-0.28613692326386,-0.0121124551499769,,
25.7859686778611,-0.280638047397507,-0.0119750976747772,,
25.8631721768966,-0.27504070261295,-0.0118310794683718,,
25.9403756759321,-0.269285410564347,-0.0116846671105946,,
26.0175791749676,-0.263488150481491,-0.0115496872895995,,
26.0947826740031,-0.257605536491135,-0.0114015262321128,,
26.1719861730386,-0.25169683426327,-0.0112700603077038,,
26.2491896720741,-0.2459321844773,-0.0110952583875394,,
26.3263931711096,-0.239873191315963,-0.0109472458045561,,
26.4035966701451,-0.233831212222566,-0.0108140786097932,,
26.4808001691807,-0.227846513824568,-0.0106632450112403,,
26.5580036682162,-0.221558681449434,-0.0104993786506995,,
26.6352071672517,-0.215326995498503,-0.0103192460834243,,
26.7124106662872,-0.209176409938087,-0.0101931087439806,,
26.7896141653227,-0.202943873283759,-0.0099906885039891,,
