Time domain (s),Current (AC) (A),Potential (AC) (V),Frequency (Hz),Column 5
0,-0.291337568448066,-0.00425438000445189,794.33,0.4
3.93413316883411E-05,-0.330140181145012,-0.00496850867942822,,
7.86826633766822E-05,-0.3559853310577,-0.00542981087240335,,
0.000118023995065023,-0.368114007246788,-0.00575768098784302,,
0.000157365326753364,-0.36673047331359,-0.00581461843228004,,
0.000196706658441706,-0.350515413627618,-0.00566642998766032,,
0.000236047990130047,-0.32121340482971,-0.0052980611922222,,
0.000275389321818388,-0.279377280058488,-0.00472771759985813,,
0.000314730653506729,-0.226842139062265,-0.00400683075104391,,
0.00035407198519507,-0.165878839822264,-0.00307308660785566,,
0.000393413316883411,-0.0984790759480227,-0.00203660733303135,,
0.000432754648571752,-0.0274488167777726,-0.000943358036806785,,
0.000472095980260093,0.0438406311671183,0.000157836367310704,,
0.000511437311948435,0.115255767915054,0.00128705167105059,,
0.000550778643636776,0.18195197088441,0.00241645209294594,,
0.000590119975325117,0.241146364626583,0.00340337142629377,,
0.000629461307013458,0.291145222281775,0.00426096394943709,,
0.000668802638701799,0.329567434157715,0.00498258174273269,,
0.00070814397039014,0.355701103319839,0.00547930547805997,,
0.000747485302078481,0.367811995978946,0.00578473137831148,,
0.000786826633766822,0.366054328684093,0.00582477679106175,,
0.000826167965455163,0.35036644568984,0.00569533836549807,,
0.000865509297143505,0.320881816093601,0.00531257663347162,,
0.000904850628831846,0.279579845579681,0.00474138095312737,,
0.000944191960520187,0.227401517527892,0.00399169053601911,,
0.000983533292208528,0.166419879022597,0.00309141738873642,,
0.00102287462389687,0.0990075802296545,0.00204748438582802,,
0.00106221595558521,0.028204153689218,0.000951269115627262,,
0.00110155728727355,-0.0434313321098923,-0.000185798736928255,,
0.00114089861896189,-0.115196458607599,-0.0013031977854645,,
0.00118023995065023,-0.181923782754422,-0.00240800879942826,,
0.00121958128233857,-0.24133620998397,-0.00339241678721125,,
0.00125892261402692,-0.291337074461122,-0.00425193535586921,,
0.00129826394571526,-0.330125608530167,-0.00496970241929828,,
0.0013376052774036,-0.356159708448906,-0.00543309671966297,,
0.00137694660909194,-0.368272577055788,-0.00573432887699488,,
0.00141628794078028,-0.366092427427143,-0.00585584805676032,,
0.00145562927246862,-0.350392904865524,-0.0056733991417488,,
0.00149497060415696,-0.321226680728828,-0.00532609298114739,,
0.0015343119358453,-0.279475645208697,-0.00476128115484142,,
0.00157365326753364,-0.226904875404143,-0.00397573634557613,,
0.00161299459922199,-0.165900636996164,-0.00307127081653658,,
0.00165233593091033,-0.0983829337390613,-0.00205536824139063,,
0.00169167726259867,-0.0274445561403812,-0.00094204179227475,,
0.00173101859428701,0.0438589395582275,0.000179971598519124,,
0.00177035992597535,0.115204084531046,0.00131808890767626,,
0.00180970125766369,0.181941936774611,0.00240768892614485,,
0.00184904258935203,0.241317716347757,0.00340396761564765,,
0.00188838392104037,0.290920890460865,0.00428291134016368,,
0.00192772525272871,0.329566662303115,0.00497569970307055,,
0.00196706658441706,0.355629351716234,0.00544934900478289,,
0.0020064079161054,0.367723942806192,0.00576174405912289,,
0.00204574924779374,0.36601922473689,0.00582123776750088,,
0.00208509057948208,0.350334089545013,0.00571285925444842,,
0.00212443191117042,0.321063726785701,0.00531407119034455,,
0.00216377324285876,0.279600191666934,0.00474960237709121,,
0.0022031145745471,0.227456473575403,0.00398744370774651,,
0.00224245590623544,0.166327534338267,0.00308203625397496,,
0.00228179723792378,0.0989305491405862,0.00206668767213269,,
0.00232113856961213,0.0281943665728915,0.000959365312603655,,
0.00236047990130047,-0.0434310233680524,-0.000170919865182029,,
0.00239982123298881,-0.115207264571997,-0.00131380668916847,,
0.00243916256467715,-0.181810597995895,-0.00242546435255919,,
0.00247850389636549,-0.241318611699093,-0.00341225301426817,,
0.00251784522805383,-0.291316759248053,-0.00425716766608719,,
0.00255718655974217,-0.330163028041169,-0.00495527681480068,,
0.00259652789143051,-0.356313029646626,-0.00544821923956951,,
0.00263586922311885,-0.368470295330094,-0.00574746001556736,,
0.0026752105548072,-0.366487308240443,-0.00583831491734399,,
0.00271455188649554,-0.35080143206815,-0.00567806793052306,,
0.00275389321818388,-0.321228224438028,-0.00532066057998204,,
0.00279323454987222,-0.279697939333463,-0.00474663504195227,,
0.00283257588156056,-0.227102099691505,-0.00398608935065337,,
0.0028719172132489,-0.165934783843663,-0.00309722410970137,,
0.00291125854493724,-0.0983834894743732,-0.00204695080996808,,
0.00295059987662558,-0.0274563500786674,-0.000950746429071003,,
0.00298994120831392,0.0438087381350511,0.000157293263310709,,
0.00302928254000227,0.115259503691317,0.00129701538353633,,
0.00306862387169061,0.182011434562785,0.00238844208262723,,
0.00310796520337895,0.241213083738197,0.00338857014083338,,
0.00314730653506729,0.291032315390904,0.00427973710826279,,
0.00318664786675563,0.329672560754219,0.00497283581631214,,
0.00322598919844397,0.355410577248443,0.00546426190560201,,
0.00326533053013231,0.367941976293567,0.00574982027204962,,
0.00330467186182065,0.366020490578434,0.00582302905788801,,
0.00334401319350899,0.350157211344904,0.00569571404646041,,
0.00338335452519734,0.32106070111567,0.00532488971313638,,
0.00342269585688568,0.279528409189145,0.0047352883879519,,
0.00346203718857402,0.227452182063828,0.00399620142989621,,
0.00350137852026236,0.166382027273019,0.00306438469338532,,
0.0035407198519507,0.0989563908325903,0.00204189817325373,,
0.00358006118363904,0.0281477156808746,0.000951201057481921,,
0.00361940251532738,-0.0434380626820033,-0.000175953445615384,,
0.00365874384701572,-0.115141070321511,-0.00132178310380882,,
0.00369808517870406,-0.181839743225587,-0.00241542033146169,,
0.00373742651039241,-0.241310831404726,-0.00339680925991503,,
0.00377676784208075,-0.291208884849173,-0.00425763182263861,,
0.00381610917376909,-0.330039593053556,-0.00497420514619762,,
0.00385545050545743,-0.35607844759663,-0.00545014256275822,,
0.00389479183714577,-0.368525498371078,-0.00573143096116402,,
0.00393413316883411,-0.366339050408898,-0.00582235119876007,,
0.00397347450052245,-0.350574383319049,-0.00567033516404303,,
0.00401281583221079,-0.32116270941959,-0.00530178805626402,,
0.00405215716389913,-0.279470828835994,-0.0047304943721902,,
0.00409149849558748,-0.226925931597628,-0.00399553582123424,,
0.00413083982727582,-0.16579381231954,-0.00307570820761649,,
0.00417018115896416,-0.0983613835586326,-0.00205159645897313,,
0.0042095224906525,-0.0274822226448555,-0.000957450156392259,,
0.00424886382234084,0.0438915426965265,0.000151829555398386,,
0.00428820515402918,0.115249994442647,0.00130273499007538,,
0.00432754648571752,0.181916064208423,0.00242031235095252,,
0.00436688781740586,0.241066554860955,0.00339196488112581,,
0.00440622914909421,0.29104889482771,0.00425217900402952,,
0.00444557048078255,0.329561166698364,0.00497234851999107,,
0.00448491181247089,0.355226906727855,0.00545119746401168,,
0.00452425314415923,0.367889027068015,0.00575265149089788,,
0.00456359447584757,0.365984089915504,0.00582623868002452,,
0.00460293580753591,0.350173512914054,0.00567701983508373,,
0.00464227713922425,0.320990956334024,0.00530561836868637,,
0.00468161847091259,0.279537702318528,0.00473805427098073,,
0.00472095980260093,0.227456720568875,0.00395646908461478,,
0.00476030113428927,0.166274615986899,0.00310257892458088,,
0.00479964246597762,0.0990163484979092,0.00205840363467491,,
0.00483898379766596,0.0282199612714236,0.000972949718424321,,
0.0048783251293543,-0.0434736914903339,-0.000175090468331529,,
0.00491766646104264,-0.11519244496368,-0.00131420414873773,,
0.00495700779273098,-0.181916558195367,-0.00241265308727012,,
0.00499634912441932,-0.241400490035048,-0.00340998395570091,,
0.00503569045610766,-0.291406603123479,-0.00426061957522128,,
0.005075031787796,-0.329828784125236,-0.00492801952756983,,
0.00511437311948435,-0.356016452235167,-0.00547741073929231,,
0.00515371445117269,-0.368156428375598,-0.00574019276680238,,
0.00519305578286103,-0.366281315684826,-0.00582698731962417,,
0.00523239711454937,-0.350578088221128,-0.00566002571617874,,
0.00527173844623771,-0.321287688116403,-0.00530455393929286,,
0.00531107977792605,-0.279430445403328,-0.00474632469680936,,
0.00535042110961439,-0.227101358711089,-0.00396926401594921,,
0.00538976244130273,-0.165998075920853,-0.00308898362945698,,
0.00542910377299107,-0.0984088063052494,-0.00205816815349236,,
0.00546844510467942,-0.0274701817130973,-0.000959076746067211,,
0.00550778643636776,0.0438908017161106,0.000160943902229427,,
0.0055471277680561,0.11516169427642,0.00129630757882415,,
0.00558646909974444,0.182057838461329,0.00241053103429634,,
0.00562581043143278,0.241318704321645,0.00340269628949175,,
0.00566515176312112,0.291157263213533,0.00428785780617114,,
0.00570449309480946,0.329802047081896,0.00493436390788338,,
0.0057438344264978,0.355487083476384,0.00546305591526552,,
0.00578317575818614,0.368038797734576,0.00576110431255605,,
0.00582251708987448,0.365674699717686,0.00584323960474409,,
0.00586185842156283,0.350221182654142,0.0056799599469648,,
0.00590119975325117,0.320861994867476,0.00531173543479468,,
0.00594054108493951,0.279618716177331,0.00473948076970832,,
0.00597988241662785,0.227286850808533,0.00399968872926593,,
0.00601922374831619,0.166300704672376,0.00308668598646822,,
0.00605856508000453,0.0989767369198432,0.00207341453922316,,
0.00609790641169287,0.0282144347924884,0.000941977817618067,,
0.00613724774338121,-0.0434722095295021,-0.00016543301750005,,
0.00617658907506956,-0.115222825160731,-0.00132942603353658,,
0.0062159304067579,-0.181848758487313,-0.00240371569161679,,
0.00625527173844624,-0.24120499470199,-0.00342522761910624,,
0.00629461307013458,-0.291319290931141,-0.00426390406131816,,
0.00633395440182292,-0.329981117349068,-0.00495976865239678,,
0.00637329573351126,-0.355919075058846,-0.00545300917184255,,
0.0064126370651996,-0.368473567993598,-0.00576746094333602,,
0.00645197839688794,-0.366444207879586,-0.00581972959899923,,
0.00649131972857628,-0.350635575951728,-0.00568380931566859,,
0.00653066106026463,-0.321261568556743,-0.00532771820965916,,
0.00657000239195297,-0.279411426905987,-0.00472892495135779,,
0.00660934372364131,-0.22696612978519,-0.00401342422417006,,
0.00664868505532965,-0.165879580802679,-0.00308162654394017,,
0.00668802638701799,-0.0983932457165157,-0.00206381970188563,,
0.00672736771870633,-0.0274488167777726,-0.000971466050855074,,
0.00676670905039467,0.0438767539623928,0.000178155807200042,,
0.00680605038208301,0.115205844359534,0.00129417327538484,,
0.00684539171377135,0.181997633802539,0.00240681505955775,,
0.00688473304545969,0.24118900187468,0.00338375979111705,,
0.00692407437714804,0.291149482919166,0.00427498937203996,,
0.00696341570883638,0.329849716821984,0.00496228135912435,,
0.00700275704052472,0.355484613541664,0.00545390617819841,,
0.00704209837221306,0.367635611765781,0.00574476219068387,,
0.0070814397039014,0.366082702059185,0.00584369151082953,,
0.00712078103558974,0.350350144120691,0.00569375669419925,,
0.00716012236727808,0.320974129903747,0.00531184705015297,,
0.00719946369896642,0.279602661601654,0.00472968856374889,,
0.00723880503065477,0.227293365261356,0.00400109344938704,,
0.00727814636234311,0.166254022906175,0.00308353353317381,,
0.00731748769403145,0.0990143416759495,0.0020601078106357,,
0.00735682902571979,0.0282157006340322,0.000964159328364911,,
0.00739617035740813,-0.0434626385324636,-0.000163055065899975,,
0.00743551168909647,-0.115209302268141,-0.00132169462821974,,
0.00747485302078481,-0.181969476546735,-0.00241687949809899,,
0.00751419435247315,-0.241367331161437,-0.00339849029610662,,
0.00755353568416149,-0.291422101963845,-0.00426991087323092,,
0.00759287701584983,-0.329819768863509,-0.00494136164639292,,
0.00763221834753818,-0.356236770412158,-0.00545387078796322,,
0.00767155967922652,-0.368516730102823,-0.00576899769625916,,
0.00771090101091486,-0.366383200492011,-0.00581518195372421,,
0.0077502423426032,-0.350451936305323,-0.00568596539771438,,
0.00778958367429154,-0.32095344420047,-0.00532780668524824,,
0.00782892500597988,-0.279613652811156,-0.00473599347033815,,
0.00786826633766822,-0.227105125361537,-0.00399738428046348,,
0.00790760766935656,-0.165879333809207,-0.00309699135084429,,
0.00794694900104491,-0.0984173275800321,-0.00203899617393466,,
0.00798629033273325,-0.0274501134935004,-0.000947108040618261,,
0.00802563166442159,0.0438679856941381,0.00015790170313057,,
0.00806497299610993,0.115253483225438,0.00130796730029337,,
0.00810431432779827,0.181907048946696,0.0024010954530187,,
0.00814365565948661,0.241302155759023,0.00338900299063827,,
0.00818299699117495,0.291134447191561,0.00426323164684161,,
0.00822233832286329,0.329483116761224,0.00495969514959915,,
0.00826167965455163,0.355639663693689,0.00546058948807637,,
0.00830102098623998,0.367762813403842,0.00576526130407684,,
0.00834036231792832,0.366060627017628,0.00582975592497847,,
0.00837970364961666,0.350174006900998,0.00569917684489818,,
0.008419044981305,0.321058200306766,0.00530569731613495,,
0.00845838631299334,0.279307133912451,0.00472831923386341,,
0.00849772764468168,0.227393490240053,0.0040042785705916,,
0.00853706897637002,0.166298203863472,0.00308150540044094,,
0.00857641030805836,0.0989995529418157,0.00204900072130743,,
0.0086157516397467,0.0281677839004715,0.000965120309377898,,
0.00865509297143504,-0.0434912280268433,-0.000178962976804531,,
0.00869443430312339,-0.11524437534116,-0.00134122867711106,,
0.00873377563481173,-0.181865060056463,-0.00241634864456497,,
0.00877311696650007,-0.241507314711672,-0.00341261780592728,,
0.00881245829818841,-0.291687866939677,-0.00424172391173405,,
0.00885179962987675,-0.329951539880801,-0.00496278907288916,,
0.00889114096156509,-0.356076162907014,-0.00546355001740118,,
0.00893048229325343,-0.368440717861827,-0.00577154307089689,,
0.00896982362494177,-0.366646927771699,-0.00583142198837816,,
0.00900916495663012,-0.350360795714169,-0.00569373219326685,,
0.00904850628831846,-0.321322081957374,-0.00531357028239476,,
0.0090878476200068,-0.279406610533284,-0.004743724875655,,
0.00912718895169514,-0.227168540935463,-0.00398414288769544,,
0.00916653028338348,-0.165696373394851,-0.003076647410023,,
0.00920587161507182,-0.098417821566976,-0.00203235914359556,,
0.00924521294676016,-0.0274398015160459,-0.000944916568336396,,
0.0092845542784485,0.043848658454957,0.000176729308472456,,
0.00932389561013684,0.115293403545344,0.00131421776036644,,
0.00936323694182519,0.181795130029713,0.00239909454354414,,
0.00940257827351353,0.241172947299003,0.00339813911607578,,
0.00944191960520187,0.29095454332142,0.0042476898887589,,
0.00948126093689021,0.329761385781574,0.00493512615911174,,
0.00952060226857855,0.35569708967592,0.00546064393459256,,
0.00955994360026689,0.36761304273728,0.00574774858210381,,
0.00959928493195523,0.365939414971262,0.00586308535994151,,
0.00963862626364357,0.35036721754444,0.0056655152861862,,
0.00967796759533191,0.320881816093601,0.00532694779145304,,
0.00971730892702025,0.279322416633528,0.00474536643812185,,
0.0097566502587086,0.227312939494009,0.00399813972587681,,
0.00979599159039694,0.166268842514492,0.00307373043791115,,
0.00983533292208528,0.0989608984634536,0.00204839092032438,,
0.00987467425377362,0.02820440068269,0.000973072223085847,,
0.00991401558546196,-0.0433851443306353,-0.000181882671241862,,
0.0099533569171503,-0.115131499324473,-0.00133739155887369,,
0.00999269824883864,-0.181994052397195,-0.00234145882253545,,
0.010032039580527,-0.241302804116887,-0.00337445215915277,,
0.0100713809122153,-0.291114533342884,-0.00425222256124247,,
0.0101107222439037,-0.330130857141446,-0.00496100731064297,,
0.010150063575592,-0.356068382612648,-0.00543530860938812,,
0.0101894049072803,-0.368579960431646,-0.00575920821262566,,
0.0102287462389687,-0.366616053587704,-0.00583562525943782,,
0.010268087570657,-0.350624029006913,-0.00567257019353784,,
0.0103074289023454,-0.321145913863497,-0.00531703171966935,,
0.0103467702340337,-0.279329116331455,-0.00475957697888063,,
0.0103861115657221,-0.227061469265367,-0.00399616740082376,,
0.0104254528974104,-0.165918976261457,-0.00308131619879681,,
0.0104647942290987,-0.0984208472370075,-0.0020528133386124,,
0.0105041355607871,-0.0274681440169536,-0.000969851711646097,,
0.0105434768924754,0.043835876542783,0.000170612242364587,,
0.0105828182241638,0.115212605805829,0.00130564515637266,,
0.0106221595558521,0.181910815597144,0.0024105201449931,,
0.0106615008875404,0.241155873875253,0.00339208738578733,,
0.0107008422192288,0.291053649452045,0.00428582150646095,,
0.0107401835509171,0.329611862108484,0.00495994832589997,,
0.0107795248826055,0.355510918346428,0.00545926099307836,,
0.0108188662142938,0.367450428410177,0.0057591905175074,,
0.0108582075459821,0.366085202868088,0.0058003166936067,,
0.0108975488776705,0.350244523537243,0.00570067956874842,,
0.0109368902093588,0.321251380076025,0.00530965557787111,,
0.0109762315410472,0.279543197923279,0.00474694810942067,,
0.0110155728727355,0.227422326727905,0.00397000721089658,,
0.0110549142044239,0.166337074461122,0.0030797821681996,,
0.0110942555361122,0.0990281424361954,0.0020343328298118,,
0.0111335968678005,0.0281888709681403,0.000956027741153331,,
0.0111729381994889,-0.0434518943164332,-0.000195611360330972,,
0.0112122795311772,-0.115188184326288,-0.00130906031410882,,
0.0112516208628656,-0.181833938878995,-0.00239978873662761,,
0.0112909621945539,-0.24128427960649,-0.00341435328863504,,
0.0113303035262422,-0.291252293951871,-0.00425491085798591,,
0.0113696448579306,-0.330036320390052,-0.00494888343262234,,
0.0114089861896189,-0.356000644652962,-0.00543017566406245,,
0.0114483275213073,-0.368430652877844,-0.00575659750216806,,
0.0114876688529956,-0.366375420197644,-0.0058153275981554,,
0.0115270101846839,-0.350718133519731,-0.00567795767632751,,
0.0115663515163723,-0.321012907878845,-0.00529555937479742,,
0.0116056928480606,-0.279520783265698,-0.0047346881151098,,
0.011645034179749,-0.227028125146652,-0.00400051495515141,,
0.0116843755114373,-0.165862785246586,-0.00305846227357343,,
0.0117237168431257,-0.0983458229698989,-0.00205666406847893,,
0.011763058174814,-0.0274874712561347,-0.000973943367347463,,
0.0118023995065023,0.043835351681655,0.000179184846358371,,
0.0118417408381907,0.115206091353006,0.00131427492920855,,
0.011881082169879,0.18164434051508,0.00239160542522487,,
0.0119204235015674,0.24116365416962,0.00338023982383717,,
0.0119597648332557,0.291045128177262,0.00425210277890642,,
0.011999106164944,0.329820355473005,0.0049472949555085,,
0.0120384474966324,0.355651457631975,0.0054568490124054,,
0.0120777888283207,0.367683806366998,0.00575014150649578,,
0.0121171301600091,0.366066369615851,0.00584631311059036,,
0.0121564714916974,0.350547862394997,0.00567883290407689,,
0.0121958128233857,0.32126595269087,0.00532055304811196,,
0.0122351541550741,0.279671943270539,0.00472556424013781,,
0.0122744954867624,0.227251222000203,0.0039805725573876,,
0.0123138368184508,0.166345101748961,0.00310103264351769,,
0.0123531781501391,0.0989390704153689,0.0020567103480178,,
0.0123925194818275,0.0282184484364078,0.000954623021032219,,
0.0124318608135158,-0.0434904870464274,-0.000198841399911665,,
0.0124712021452041,-0.11522683880465,-0.00133783393681863,,
0.0125105434768925,-0.181996337086811,-0.00241459002208799,,
0.0125498848085808,-0.241320402401765,-0.00340187550825855,,
0.0125892261402692,-0.291184247250345,-0.004243494784677,,
0.0126285674719575,-0.329993652267771,-0.00492440291772356,,
0.0126679088036458,-0.355972549145526,-0.00549105095279234,,
0.0127072501353342,-0.368635163472629,-0.00577273681076695,,
0.0127465914670225,-0.366539485611395,-0.00582489521223462,,
0.0127859327987109,-0.350323931938479,-0.00567578798265211,,
0.0128252741303992,-0.321355734817929,-0.00530127898133648,,
