Time domain (s),Current (AC) (A),Potential (AC) (V),Frequency (Hz),Column 5
0,-0.114943074179549,-0.00133106719098519,63.096,0.4
0.000236030463500063,-0.147543495550413,-0.00202956999102311,,
0.000472060927000127,-0.178732163983906,-0.00269067690033964,,
0.00070809139050019,-0.208531123647402,-0.00332287729514213,,
0.000944121854000254,-0.236054285460235,-0.00392635099822769,,
0.00118015231750032,-0.261892087317132,-0.00448911514051309,,
0.00141618278100038,-0.285199626298877,-0.00504151916943485,,
0.00165221324450044,-0.306269219179537,-0.0055415556096543,,
0.00188824370800051,-0.324556307101803,-0.00598758430324731,,
0.00212427417150057,-0.339967526533274,-0.00636267145349523,,
0.00236030463500063,-0.352207473281481,-0.00669049421197965,,
0.0025963350985007,-0.361889864375885,-0.0069681638124881,,
0.00283236556200076,-0.367943921367158,-0.00722354553753579,,
0.00306839602550082,-0.371002935517414,-0.00734266073791279,,
0.00330442648900089,-0.37083621492384,-0.00743706045507819,,
0.00354045695250095,-0.367289573911561,-0.00746441672306508,,
0.00377648741600101,-0.360218459551114,-0.00738909997507076,,
0.00401251787950108,-0.350606646841324,-0.00730714863600124,,
0.00424854834300114,-0.337766258962776,-0.00712260259087749,,
0.0044845788065012,-0.321676610212192,-0.00688567590539746,,
0.00472060927000127,-0.30306120621732,-0.00658846072707231,,
0.00495663973350133,-0.281599943438495,-0.00625127558170702,,
0.0051926701970014,-0.25788461823454,-0.00584347083380976,,
0.00542870066050146,-0.231793462823778,-0.00538896001492795,,
0.00566473112400152,-0.203780389459307,-0.00487950463065756,,
0.00590076158750159,-0.173831751751801,-0.00434048869896086,,
0.00613679205100165,-0.142479141401293,-0.00374235167241244,,
0.00637282251450171,-0.109825122447014,-0.0031229389987244,,
0.00660885297800178,-0.0761930093437631,-0.00248651566857516,,
0.00684488344150184,-0.0419204421677135,-0.00184740224739954,,
0.0070809139050019,-0.00712887995870269,-0.00113519956061037,,
0.00731694436850197,0.0275489417564694,-0.000440641260621266,,
0.00755297483200203,0.0619892174999815,0.000241800753371546,,
0.00778900529550209,0.096037761596961,0.00093932612950054,,
0.00802503575900216,0.12927320318424,0.00163786518413467,,
0.00826106622250222,0.161183740913728,0.00233221320746679,,
0.00849709668600228,0.191747978975916,0.00297843833020117,,
0.00873312714950235,0.220514814668448,0.00357175204529314,,
0.00896915761300241,0.247315335330687,0.00420656712156209,,
0.00920518807650247,0.272044074750104,0.00474486666244056,,
0.00944121854000254,0.294389574158555,0.00526847584100443,,
0.0096772490035026,0.314235252637273,0.00573170806550971,,
0.00991327946700266,0.331220499717192,0.00614903907106212,,
0.0101493099305027,0.345352972195945,0.00652134186833431,,
0.0103853403940028,0.356091754369932,0.00682987138099067,,
0.0106213708575029,0.3646080892832,0.00709063763864215,,
0.0108574013210029,0.369246626686657,0.00728988129699992,,
0.011093431784503,0.370710803988451,0.00739790259098916,,
0.011329462248003,0.369204637796423,0.00747342816545649,,
0.0115654927115031,0.364289714697841,0.00745734852702151,,
0.0118015231750032,0.356307132677483,0.00736351583173844,,
0.0120375536385032,0.344985198916193,0.00726130397421842,,
0.0122735841020033,0.330974000232174,0.00703026358495107,,
0.0125096145655034,0.314087550541039,0.00679402283642805,,
0.0127456450290034,0.294214208793462,0.00647623535012665,,
0.0129816754925035,0.271845738992118,0.00606642499797694,,
0.0132177059560036,0.247185910751379,0.00565163761488252,,
0.0134537364195036,0.22042765684703,0.00517641817074344,,
0.0136897668830037,0.191384651578659,0.00466728762765323,,
0.0139257973465037,0.161130174204496,0.00408808420133999,,
0.0141618278100038,0.129056867776985,0.00348689598798879,,
0.0143978582735039,0.0959234036194423,0.00284560439068349,,
0.0146338887370039,0.0618857272352292,0.00219749692932281,,
0.014869919200504,0.0274531082893479,0.00152637505039666,,
0.0151059496640041,-0.00720847360504262,0.000830820474108318,,
0.0153419801275041,-0.0417366790245734,0.000143154897918052,,
0.0155780105910042,-0.0762969935954593,-0.000555184031346023,,
0.0158140410545042,-0.110052912176531,-0.00125811859320368,,
0.0160500715180043,-0.142813385317226,-0.00194472698537362,,
0.0162861019815044,-0.174196746354994,-0.00259522144933744,,
0.0165221324450044,-0.204170947886847,-0.00324824503392085,,
0.0167581629085045,-0.232294365584918,-0.00385372579144283,,
0.0169941933720046,-0.257986441293357,-0.00443740738545895,,
0.0172302238355046,-0.282054102685066,-0.00496904478176985,,
0.0174662542990047,-0.303431881670367,-0.00545224748795681,,
0.0177022847625048,-0.321966333554804,-0.00591269680966988,,
0.0179383152260048,-0.33774829018769,-0.00630003511301114,,
0.0181743456895049,-0.35042269845308,-0.00666196764563276,,
0.0184103761530049,-0.360619329956109,-0.00695417243878493,,
0.018646406616505,-0.366994478460934,-0.00717150279001455,,
0.0188824370800051,-0.370752484136844,-0.00731466493885202,,
0.0191184675435051,-0.370759955689371,-0.00743671241095623,,
0.0193544980070052,-0.367975289538097,-0.00747142401138756,,
0.0195905284705053,-0.361814037379992,-0.00742296611832227,,
0.0198265589340053,-0.351867301522221,-0.00732547750957435,,
0.0200625893975054,-0.340107263090037,-0.00717777918568085,,
0.0202986198610055,-0.324332284022733,-0.00693680503709881,,
0.0205346503245055,-0.305920711390598,-0.00665888020423422,,
0.0207706807880056,-0.285043526424597,-0.00631976921472699,,
0.0210067112515056,-0.261591249268282,-0.00591145545230143,,
0.0212427417150057,-0.235868546369319,-0.00546660865853932,,
0.0214787721785058,-0.207889681600715,-0.0049593923581206,,
0.0217148026420058,-0.178332960784846,-0.00441549220724546,,
0.0219508331055059,-0.14708661937565,-0.00383026616743853,,
0.022186863569006,-0.114721027048255,-0.0032297290866321,,
0.022422894032506,-0.0812275390311434,-0.00259150897870297,,
0.0226589244960061,-0.0469062523927493,-0.00191636138943307,,
0.0228949549595062,-0.0122525125410935,-0.00123641224146365,,
0.0231309854230062,0.0224442967972356,-0.000551784800421284,,
0.0233670158865063,0.0568554581852402,0.000140009449165923,,
0.0236030463500063,0.0911643334016682,0.000866448590727487,,
0.0238390768135064,0.124302984422122,0.00153083001515819,,
0.0240751072770065,0.156662803277109,0.00220425188565665,,
0.0243111377405065,0.187430039099067,0.002874109204273,,
0.0245471682040066,0.216546339680242,0.00349760414547484,,
0.0247831986675067,0.243694194912429,0.00410763267952419,,
0.0250192291310067,0.26871089784597,0.0046791443307419,,
0.0252552595945068,0.291382181643939,0.00519059806834576,,
0.0254912900580068,0.311454106142975,0.00567419087398635,,
0.0257273205215069,0.328893574217833,0.00609988363956893,,
0.025963350985007,0.343380976315796,0.00646688166434872,,
0.026199381448507,0.354961759235703,0.00677853487300029,,
0.0264354119120071,0.363418815715701,0.00705352453376928,,
0.0266714423755072,0.368788453796166,0.00724567969350964,,
0.0269074728390072,0.37076860046089,0.00739130425450973,,
0.0271435033025073,0.36968627506675,0.00743690673559128,,
0.0273795337660074,0.365256941134046,0.0074502484269332,,
0.0276155642295074,0.357652012132319,0.00739560840015185,,
0.0278515946930075,0.346938917279416,0.00727938196598732,,
0.0280876251565075,0.333509388221869,0.00708866248825002,,
0.0283236556200076,0.316931433377216,0.00686199585344882,,
0.0285596860835077,0.297364363534872,0.00653618014940083,,
0.0287957165470077,0.275541996300038,0.00614154452096871,,
0.0290317470105078,0.25097923649378,0.00571778920099852,,
0.0292677774740079,0.224611201400947,0.00523992462153222,,
0.0295038079375079,0.195961687607597,0.00470899491493615,,
0.029739838401008,0.165558767156784,0.00416595327289571,,
0.0299758688645081,0.13383541960486,0.00356117150398516,,
0.0302118993280081,0.100862285084805,0.00293802170653734,,
0.0304479297915082,0.0670088658306761,0.00228359144362766,,
0.0306839602550082,0.0325829465827218,0.00163021981492228,,
0.0309199907185083,-0.00209203470752268,0.000949549925583604,,
0.0311560211820084,-0.0366498484695049,0.000246209312249945,,
0.0313920516455084,-0.071215535148406,-0.000443158779770414,,
0.0316280821090085,-0.105075623226278,-0.00115347042683034,,
0.0318641125725086,-0.137941624327869,-0.00183603280608224,,
0.0321001430360086,-0.169685719331438,-0.00250445154232715,,
0.0323361734995087,-0.199727473577873,-0.00314087487247638,,
0.0325722039630088,-0.228119928915279,-0.00376400001679889,,
0.0328082344265088,-0.25444622211135,-0.0043438081697742,,
0.0330442648900089,-0.27858514111972,-0.0048959323132145,,
0.0332802953535089,-0.300558421365923,-0.00538138280435563,,
0.033516325817009,-0.319414890989431,-0.00585872676782273,,
0.0337523562805091,-0.335583021915731,-0.00628760993785704,,
0.0339883867440091,-0.34888096520109,-0.00660081484321839,,
0.0342244172075092,-0.359395971289479,-0.00692999642396241,,
0.0344604476710093,-0.366657517616809,-0.00714225548229797,,
0.0346964781345093,-0.370435344518844,-0.00732339069502652,,
0.0349325085980094,-0.371160517352526,-0.00739242959717101,,
0.0351685390615094,-0.36865742375929,-0.00745669014355732,,
0.0354045695250095,-0.362757799436361,-0.00741618940923061,,
0.0356405999885096,-0.35387399998518,-0.00733496751263329,,
0.0358766304520096,-0.341712720657793,-0.00718450803870541,,
0.0361126609155097,-0.326599251856773,-0.00696930220680381,,
0.0363486913790098,-0.308890807890947,-0.00671564620052756,,
0.0365847218425098,-0.288504398953736,-0.00638126861107935,,
0.0368207523060099,-0.265078488350553,-0.0059815283355249,,
0.03705678276951,-0.239788394517733,-0.00556601005977431,,
0.03729281323301,-0.21230024402955,-0.00505083515043303,,
0.0375288436965101,-0.182618297523396,-0.00449949845681852,,
0.0377648741600101,-0.151951341051056,-0.00393804528072605,,
0.0380009046235102,-0.119613967727833,-0.00332223921425179,,
0.0382369350870103,-0.0862115585535074,-0.00267609530181279,,
0.0384729655505103,-0.0520397647140186,-0.00200150458313786,,
0.0387089960140104,-0.0174100449775112,-0.00133784244989288,,
0.0389450264775105,0.0173160330872455,-0.000671094325432886,,
0.0391810569410105,0.0518037007031904,4.09459407659796E-05,,
0.0394170874045106,0.0861471241315092,0.000761445129312754,,
0.0396531178680107,0.119615264443561,0.00142757982600772,,
0.0398891483315107,0.15192818541306,0.00208304842054785,,
0.0401251787950108,0.18277890502854,0.00277134047615801,,
0.0403612092585108,0.212218056951755,0.00341345577788532,,
0.0405972397220109,0.239692128812036,0.0040105399709649,,
0.040833270185511,0.265089232566583,0.00460636830483763,,
0.041069300649011,0.287925754997295,0.00511070744051523,,
0.0413053311125111,0.308883398086789,0.00558215640666626,,
0.0415413615760112,0.32638362655575,0.00602267585184491,,
0.0417773920395112,0.341372919388741,0.00642846049365087,,
0.0420134225030113,0.353471894612825,0.00673537740187591,,
0.0422494529665114,0.362276964894818,0.00701860410686495,,
0.0424854834300114,0.368192458548321,0.00720703519449994,,
0.0427215138935115,0.370460599601353,0.00735138359371978,,
0.0429575443570115,0.369949076120918,0.00747229122132476,,
0.0431935748205116,0.366243186067592,0.00746623525360279,,
0.0434296052840117,0.358874382825062,0.00739914394835717,,
0.0436656357475117,0.348946480219528,0.00729231470548619,,
0.0439016662110118,0.335740233260635,0.00711466428452878,,
0.0441376966745119,0.319325047114005,0.00688483914932059,,
0.0443737271380119,0.300212692253544,0.00656602783322757,,
0.044609757601512,0.278652385092462,0.00620603709677026,,
0.044845788065012,0.254745639947736,0.00578079388817798,,
0.0450818185285121,0.228567789828315,0.00534491793166003,,
0.0453178489920122,0.200202318527721,0.00481850119717908,,
0.0455538794555122,0.170228425737708,0.00424943455591809,,
0.0457899099190123,0.138588314985835,0.00366363279312543,,
0.0460259403825124,0.105830064786388,0.0030470030222296,,
0.0462619708460124,0.072072972986324,0.00237968932607169,,
0.0464980013095125,0.0376494619247213,0.00172051116126459,,
0.0467340317730126,0.00301384521907086,0.00102397045996394,,
0.0469700622365126,-0.0315985849743991,0.000346459071032257,,
0.0472060927000127,-0.06628412523557,-0.000338596174243477,,
0.0474421231635127,-0.100242022728339,-0.00105102944026347,,
0.0476781536270128,-0.133338653984375,-0.00171254675160659,,
0.0479141840905129,-0.165171234399275,-0.00241279992354171,,
0.0481502145540129,-0.195388601004275,-0.00306702861089736,,
0.048386245017513,-0.224066827788742,-0.00370060958071727,,
0.0486222754810131,-0.250849935411207,-0.00426641475851852,,
0.0488583059445131,-0.275226276894502,-0.00483243746389617,,
0.0490943364080132,-0.297450687753323,-0.00533142832156619,,
0.0493303668715133,-0.316928345958816,-0.00575289815180202,,
0.0495663973350133,-0.333472771439651,-0.00622553046796792,,
0.0498024277985134,-0.347301935934833,-0.00657656921957184,,
0.0500384582620134,-0.35805609345245,-0.00686655813181414,,
0.0502744887255135,-0.36550881272708,-0.00710255524945191,,
0.0505105191890136,-0.370115487972653,-0.00729995427396313,,
0.0507465496525136,-0.371117293494933,-0.00740929813561575,,
0.0509825801160137,-0.369081882040858,-0.00745920766270647,,
0.0512186105795138,-0.363842039029908,-0.0074271527990728,,
0.0514546410430138,-0.35518374461863,-0.00738086293085072,,
0.0516906715065139,-0.34390725765618,-0.00722173715828545,,
0.051926701970014,-0.329141493915316,-0.00701437247041525,,
0.052162732433514,-0.311497515245672,-0.00671788528437878,,
0.0523987628970141,-0.291754894793131,-0.00642919428667454,,
0.0526347933605141,-0.26880370564306,-0.0060523089084632,,
0.0528708238240142,-0.243522441826863,-0.00561466662802612,,
0.0531068542875143,-0.216435408737147,-0.00514168626773825,,
0.0533428847510143,-0.187089805591438,-0.00460712530080309,,
0.0535789152145144,-0.156379193022928,-0.00402861796273335,,
0.0538149456780145,-0.124465907491065,-0.0034133223609718,,
0.0540509761415145,-0.0911674208200677,-0.00276808481343327,,
0.0542870066050146,-0.0570910282091244,-0.00212207866845926,,
0.0545230370685146,-0.0225359005011498,-0.00142604843187089,,
0.0547590675320147,0.0121807609374884,-0.000745214671758365,,
0.0549950979955148,0.0467349006715752,-4.55546250144323E-05,,
0.0552311284590148,0.0811719654999518,0.000647702860068655,,
0.0554671589225149,0.114683051801941,0.00133820209548574,,
0.055703189386015,0.147150343691416,0.00201753201495469,,
0.055939219849515,0.178370071554009,0.00267609240144528,,
0.0561752503130151,0.20804658420378,0.00331781615353499,,
0.0564112807765152,0.235685894696803,0.00393286812441174,,
0.0566473112400152,0.261526351733524,0.0044976857270167,,
0.0568833417035153,0.284813390257096,0.00502981038509853,,
0.0571193721670153,0.305874523611341,0.00552465951771675,,
0.0573554026305154,0.324018417068237,0.00599823445337977,,
0.0575914330940155,0.339327566447419,0.00637263421648671,,
0.0578274635575155,0.351795549918616,0.00670254523970293,,
0.0580634940210156,0.361384083493673,0.00696730240328636,,
0.0582995244845157,0.367581149705213,0.00717456267792027,,
0.0585355549480157,0.370535932610301,0.00734608752233035,,
0.0587715854115158,0.370209901227311,0.00745335762108956,,
0.0590076158750159,0.366859434780139,0.00745770817261437,,
0.0592436463385159,0.360122440838889,0.00743861505215637,,
0.059479676802016,0.350410904514794,0.00733486019902951,,
0.059715707265516,0.33786660006076,0.0071444336584281,,
0.0599517377290161,0.321800662683485,0.00691711444089815,,
0.0601877681925162,0.303379395557575,0.00661661314598838,,
0.0604237986560162,0.281904548137793,0.00626331355777587,,
0.0606598291195163,0.258360389409908,0.00585199501443023,,
0.0608958595830164,0.232566120152444,0.00541074467659541,,
0.0611318900465164,0.204533102065112,0.00491429454101633,,
0.0613679205100165,0.174730838863929,0.00432517185722681,,
0.0616039509735166,0.143315029058782,0.00377875418720297,,
0.0618399814370166,0.110698800105713,0.00314519787050838,,
0.0620760119005167,0.0770447045834579,0.00250256920370129,,
0.0623120423640167,0.0427311364910625,0.00180482194944442,,
0.0625480728275168,0.00816612904420936,0.00112764410279631,,
0.0627841032910169,-0.0264857583564066,0.000427124097034159,,
0.0630201337545169,-0.0610868885985343,-0.000274834491098108,,
0.063256164218017,-0.0952450977970652,-0.000947046908272853,,
0.0634921946815171,-0.128422495918433,-0.001624491588748,,
0.0637282251450171,-0.160420561959547,-0.00233081232987598,,
0.0639642556085172,-0.1911378433518,-0.00296036613916773,,
0.0642002860720172,-0.219981000027169,-0.00359497818969912,,
0.0644363165355173,-0.246864263502516,-0.00418904310002066,,
0.0646723469990174,-0.271801774154109,-0.00475724833207991,,
0.0649083774625174,-0.294247244170337,-0.00526931404726483,,
0.0651444079260175,-0.314163809775508,-0.00573434740010104,,
0.0653804383895176,-0.331546222358343,-0.00616190800247152,,
0.0656164688530176,-0.345490979798404,-0.00652681051160053,,
0.0658524993165177,-0.356235195828774,-0.00682148641801916,,
0.0660885297800178,-0.3645272606695,-0.00706212412394969,,
0.0663245602435178,-0.369465462902815,-0.00726752816326615,,
0.0665605907070179,-0.371163234280718,-0.00739582882809531,,
0.0667966211705179,-0.369575560242943,-0.00745537917736483,,
0.067032651634018,-0.365076759396249,-0.00744010149059404,,
0.0672686820975181,-0.356792660094994,-0.00737317260593917,,
0.0675047125610181,-0.345500859537282,-0.00725265507778738,,
0.0677407430245182,-0.331508926344077,-0.00705987343862757,,
0.0679767734880183,-0.314232473960713,-0.00678692563670724,,
0.0682128039515183,-0.294619216339112,-0.00647394115928934,,
0.0684488344150184,-0.27222950509918,-0.00610986235458233,,
0.0686848648785185,-0.24757338176052,-0.00568310370387604,,
0.0689208953420185,-0.220540131499324,-0.00520764062885171,,
0.0691569258055186,-0.191644179969323,-0.00467504176065381,,
0.0693929562690186,-0.160995315768804,-0.00412867919761606,,
0.0696289867325187,-0.129292653920157,-0.00352719224639353,,
0.0698650171960188,-0.0961214923839563,-0.00291850803276539,,
0.0701010476595188,-0.0621827986336321,-0.00226375582904303,,
0.0703370781230189,-0.027657248393925,-0.00156567068195113,,
0.070573108586519,0.00706253133729676,-0.000876092313273791,,
0.070809139050019,0.0415982083093544,-0.000158587754359729,,
0.0710451695135191,0.0760475919371451,0.000557872672187987,,
0.0712811999770192,0.109757754977536,0.00125871461876281,,
0.0715172304405192,0.142547342473738,0.00191693856260189,,
0.0717532609040193,0.173977539648627,0.00258903496506946,,
0.0719892913675193,0.203536730399216,0.00322812518330329,,
0.0722253218310194,0.231722637445692,0.00383938637361769,,
0.0724613522945195,0.258084003714782,0.00442312307461989,,
0.0726973827580195,0.281660765580966,0.00498241837715652,,
0.0729334132215196,0.302759935929893,0.00547991264510195,,
0.0731694436850197,0.321397816330714,0.00591686173766259,,
0.0734054741485197,0.337417318935261,0.00631487049371016,,
0.0736415046120198,0.350031275548387,0.00664131557754555,,
0.0738775350755198,0.360106880250155,0.00694753639752621,,
0.0741135655390199,0.366878206284008,0.00717296167495896,,
0.07434959600252,0.37018964776261,0.00733888590937326,,
0.07458562646602,0.37013802612697,0.00744043648306159,,
0.0748216569295201,0.367487045192396,0.00745993565499514,,
0.0750576873930202,0.361630829972164,0.0074288089090202,,
0.0752937178565202,0.352458727390835,0.00734742169146463,,
0.0755297483200203,0.340043600522638,0.00717727742207153,,
0.0757657787835204,0.324567730549882,0.00694944773982931,,
0.0760018092470204,0.306408770491196,0.00666923741723036,,
0.0762378397105205,0.28541803027646,0.00632491736736451,,
0.0764738701740205,0.261979831748047,0.00590027163451534,,
0.0767099006375206,0.23643304994949,0.00545933163602275,,
0.0769459311010207,0.208828781655301,0.00498675732721043,,
0.0771819615645207,0.179169620296936,0.0044434981575936,,
0.0774179920280208,0.148180553462972,0.00385430586497959,,
0.0776540224915209,0.115688593100484,0.00322269569500033,,
0.0778900529550209,0.0821164685367366,0.0025947428886699,,
