Time domain (s),Current (AC) (A),Potential (AC) (V),Frequency (Hz),Column 5
0,-0.0339571329697894,0.00084663142141661,0.050119,0.3
0.048712189987829,-0.0382482002812543,0.000706766653215229,,
0.0974243799756579,-0.042593137924802,0.000563796649390547,,
0.146136569963487,-0.0469120661608792,0.000442191615623422,,
0.194848759951316,-0.0512047645707786,0.000315061476706457,,
0.243560949939145,-0.0555661013661552,0.00016602202888949,,
0.292273139926974,-0.0597683399385473,6.02937643581214E-05,,
0.340985329914803,-0.064145370545889,-6.86591847744999E-05,,
0.389697519902632,-0.0684286791188542,-0.000189441779225419,,
0.438409709890461,-0.0726513725472908,-0.0003159287284209,,
0.48712189987829,-0.0767265176930096,-0.000448953015771192,,
0.535834089866119,-0.08089344518848,-0.000593513859747041,,
0.584546279853948,-0.0851455865562222,-0.000736827864631806,,
0.633258469841777,-0.0893980805938962,-0.000838820883935831,,
0.681970659829606,-0.0934724763160099,-0.000961142916081403,,
0.730682849817434,-0.0975749092977019,-0.00108609042758223,,
0.779395039805263,-0.101808888163956,-0.00123616319659137,,
0.828107229793092,-0.105774308877143,-0.00135151690074808,,
0.876819419780921,-0.109755379318554,-0.00145574526793713,,
0.92553160976875,-0.113855784448138,-0.0015972562327824,,
0.974243799756579,-0.117991853324575,-0.00173801065889778,,
1.02295598974441,-0.121950441057833,-0.00187154106275012,,
1.07166817973224,-0.125804021318897,-0.00199258725954587,,
1.12038036972007,-0.12964530221609,-0.00210782366065976,,
1.1690925597079,-0.133478824374782,-0.00223685173646038,,
1.21780474969572,-0.137340560128019,-0.00235640067193721,,
1.26651693968355,-0.14130280681182,-0.00249989524442817,,
1.31522912967138,-0.144915557593204,-0.00262497851113697,,
1.36394131965921,-0.148766713248487,-0.00271281213048225,,
1.41265350964704,-0.152410102230196,-0.00286256989468869,,
1.46136569963487,-0.156096384692362,-0.00295828786017127,,
1.5100778896227,-0.159695469513889,-0.00309774536274965,,
1.55879007961053,-0.163216482029263,-0.00320288052200501,,
1.60750226959836,-0.166837123800371,-0.00332465426127326,,
1.65621445958619,-0.170369730339753,-0.00345566462670766,,
1.70492664957401,-0.173798519667961,-0.00355353490533661,,
1.75363883956184,-0.177421101123695,-0.0036728927291132,,
1.80235102954967,-0.180747528004197,-0.00377903089529141,,
1.8510632195375,-0.184023831670642,-0.00390900793953364,,
1.89977540952533,-0.187311949779802,-0.00403320682037522,,
1.94848759951316,-0.190582742978562,-0.00412385439475305,,
1.99719978950099,-0.19387407920085,-0.00423415615996925,,
2.04591197948882,-0.196902103235306,-0.00435114156264138,,
2.09462416947665,-0.200280989768164,-0.00445641511312811,,
2.14333635946447,-0.203013344148545,-0.00456307916598409,,
2.1920485494523,-0.206336552915919,-0.00465767023144181,,
2.24076073944013,-0.209407779017021,-0.0047741626977289,,
2.28947292942796,-0.212299143452903,-0.00488773181401081,,
2.33818511941579,-0.215088586278495,-0.0049959142163738,,
2.38689730940362,-0.217995688610084,-0.00510539486028572,,
2.43560949939145,-0.220683518411575,-0.00519192892007059,,
2.48432168937928,-0.223644314740281,-0.00530016404290246,,
2.53303387936711,-0.226283035253768,-0.00539798028305061,,
2.58174606935494,-0.22886122879021,-0.00551607545159483,,
2.63045825934276,-0.231609761903712,-0.00559207727968802,,
2.67917044933059,-0.23386032507351,-0.00568440136497905,,
2.72788263931842,-0.236463337756402,-0.00580319244371408,,
2.77659482930625,-0.238951291874044,-0.00587233929282682,,
2.82530701929408,-0.241029046777258,-0.00597482788453929,,
2.87401920928191,-0.243428083988344,-0.00605935988451423,,
2.92273139926974,-0.245683055532289,-0.00618037576704067,,
2.97144358925757,-0.248004108604706,-0.00622343652809798,,
3.0201557792454,-0.249872068982239,-0.00632744346931702,,
3.06886796923322,-0.25237972853232,-0.00641368361248729,,
3.11758015922105,-0.254089340110474,-0.00651742695136148,,
3.16629234920888,-0.256017871548794,-0.0065849091516661,,
3.21500453919671,-0.257919467821073,-0.00665890760193744,,
3.26371672918454,-0.259748766757332,-0.006736025785961,,
3.31242891917237,-0.261357162065059,-0.00683592184861048,,
3.3611411091602,-0.26303053680772,-0.00690540742673651,,
3.40985329914803,-0.264806053579379,-0.00696534137389371,,
3.45856548913586,-0.266348808196049,-0.00700575556740812,,
3.50727767912369,-0.267844657711789,-0.0070938936474616,,
3.55598986911151,-0.269486997500452,-0.00715341637496092,,
3.60470205909934,-0.270828774339736,-0.00725251899455204,,
3.65341424908717,-0.272100193527625,-0.0073161842329017,,
3.702126439075,-0.273206871773621,-0.00737275329612563,,
3.75083862906283,-0.274683104024405,-0.00742928018297473,,
3.79955081905066,-0.27574464051913,-0.00749931405397808,,
3.84826300903849,-0.276871420951239,-0.0075771821866728,,
3.89697519902632,-0.27777266896196,-0.00760350024479139,,
3.94568738901415,-0.27867180095309,-0.00766198833308662,,
3.99439957900198,-0.279804753109006,-0.00773176914583873,,
4.0431117689898,-0.280434401188498,-0.00777961824349216,,
4.09182395897763,-0.281248539726064,-0.00781717498758727,,
4.14053614896546,-0.282041562151463,-0.00787460998451461,,
4.18924833895329,-0.282532963617688,-0.00790646369187664,,
4.23796052894112,-0.282835951172848,-0.00795308967464958,,
4.28667271892895,-0.283323341018599,-0.00797416863616274,,
4.33538490891678,-0.283794331712521,-0.00807480937543703,,
4.38409709890461,-0.284171908958257,-0.00808258169057741,,
4.43280928889244,-0.284291596316363,-0.00812903896784967,,
4.48152147888027,-0.284722206303093,-0.00813539705640931,,
4.53023366886809,-0.284617286998382,-0.0082101876317271,,
4.57894585885592,-0.284873369452612,-0.00821938076350692,,
4.62765804884375,-0.285058477083067,-0.00825576843120235,,
4.67637023883158,-0.284905594667631,-0.0082492943576109,,
4.72508242881941,-0.284803717141081,-0.00829559347347564,,
4.77379461880724,-0.284544460657465,-0.00830183557700392,,
4.82250680879507,-0.284520479102102,-0.00834716463623986,,
4.8712189987829,-0.28389858976111,-0.00835942741732598,,
4.91993118877073,-0.283546052080532,-0.00838208667489715,,
4.96864337875855,-0.283031815236223,-0.00839110187509418,,
5.01735556874638,-0.282543411464418,-0.00840950000075891,,
5.06606775873421,-0.281870517234539,-0.00842724702863196,,
5.11477994872204,-0.281390180787424,-0.008437780578336,,
5.16349213870987,-0.280273583699596,-0.00842542290040527,,
5.2122043286977,-0.279814098862199,-0.0084274895427896,,
5.26091651868553,-0.278887458616388,-0.00844317915435999,,
5.30962870867336,-0.277786246754335,-0.00845902692733791,,
5.35834089866119,-0.276785193152913,-0.00844642673524998,,
5.40705308864902,-0.275896288589805,-0.00843853843507736,,
5.45576527863684,-0.274879364841453,-0.00846634321042172,,
5.50447746862467,-0.273621391194713,-0.00843068440321026,,
5.5531896586125,-0.272377171675314,-0.00843278267787584,,
5.60190184860033,-0.271153054342028,-0.00840090788232573,,
5.65061403858816,-0.26972809148258,-0.00840027523669784,,
5.69932622857599,-0.268201912352705,-0.00840002086043512,,
5.74803841856382,-0.266978103605609,-0.00836036584167399,,
5.79675060855165,-0.26541176418725,-0.00834418065769471,,
5.84546279853948,-0.263572414157934,-0.0083318137536823,,
5.8941749885273,-0.261945724097496,-0.00830510424608111,,
5.94288717851513,-0.259895257030255,-0.00829518225381776,,
5.99159936850296,-0.258247054103976,-0.00824840865373178,,
6.04031155849079,-0.256168064856,-0.00823365746650895,,
6.08902374847862,-0.254346745076948,-0.00822182831127982,,
6.13773593846645,-0.252437742736101,-0.00816995927786612,,
6.18644812845428,-0.250349936739831,-0.00814913469261613,,
6.23516031844211,-0.248368637062965,-0.00809845977782508,,
6.28387250842994,-0.246400562508541,-0.00809594105741906,,
6.33258469841777,-0.243776874550897,-0.00801780932237905,,
6.3812968884056,-0.241396528846196,-0.00799290417282927,,
6.43000907839342,-0.239193928787124,-0.00790438650539871,,
6.47872126838125,-0.236652941928487,-0.00789008871420904,,
6.52743345836908,-0.234525416481148,-0.00786624851813311,,
6.57614564835691,-0.231886255130245,-0.00780206661918736,,
6.62485783834474,-0.2291400143713,-0.00775550390097735,,
6.67357002833257,-0.226704343571048,-0.00771888426321832,,
6.7222822183204,-0.224057687984095,-0.00764440078463213,,
6.77099440830823,-0.22141724820469,-0.00761619533372393,,
6.81970659829606,-0.218459229151697,-0.00756398098123823,,
6.86841878828388,-0.215728858539682,-0.00748690365557803,,
6.91713097827171,-0.212679277555645,-0.00743476311174929,,
6.96584316825954,-0.209999735497551,-0.00737216282687303,,
7.01455535824737,-0.206918987308291,-0.00728812639930654,,
7.0632675482352,-0.203725208405888,-0.00721861973299287,,
7.11197973822303,-0.200793286927848,-0.00711912566391915,,
7.16069192821086,-0.197650821500522,-0.00708721923608779,,
7.20940411819869,-0.194393738345361,-0.00702531486140234,,
7.25811630818652,-0.191196829497313,-0.00695818061619358,,
7.30682849817434,-0.187742030761635,-0.00688482535564372,,
7.35554068816217,-0.184699723594941,-0.0068246396682472,,
7.40425287815,-0.181093541291036,-0.00671190221736362,,
7.45296506813783,-0.177877147429257,-0.00665092572293258,,
7.50167725812566,-0.174538597519849,-0.00655359451109883,,
7.55038944811349,-0.171100418354707,-0.00649580101498293,,
7.59910163810132,-0.167513192059637,-0.00636936678625633,,
7.64781382808915,-0.163906304415868,-0.00629741389018168,,
7.69652601807698,-0.160387540171309,-0.00622523956813748,,
7.74523820806481,-0.156844662120163,-0.00612664174703648,,
7.79395039805264,-0.153072989450761,-0.00603540370340605,,
7.84266258804046,-0.149312293632985,-0.00592610494511225,,
7.89137477802829,-0.145686846734056,-0.0058359516251314,,
7.94008696801612,-0.141784906608594,-0.00573228209491417,,
7.98879915800395,-0.138050484700738,-0.00566575808913328,,
8.03751134799178,-0.134126150034606,-0.00555108184300313,,
8.08622353797961,-0.130281871442993,-0.00546257471966616,,
8.13493572796744,-0.126514122226582,-0.00537483599716504,,
8.18364791795527,-0.122508497141169,-0.00526833142372762,,
8.2323601079431,-0.118559475579811,-0.00516818493884985,,
8.28107229793092,-0.114575187025273,-0.00506945927061198,,
8.32978448791875,-0.110541172010351,-0.00493445269362791,,
8.37849667790658,-0.106561997169824,-0.00484754827254852,,
8.42720886789441,-0.102536975238162,-0.0047569006981707,,
8.47592105788224,-0.0983750732892202,-0.00464282414737482,,
8.52463324787007,-0.0942365357232599,-0.00453857469199859,,
8.5733454378579,-0.0901831238620884,-0.00441655843857314,,
8.62205762784573,-0.085958138079095,-0.00431527187355396,,
8.67076981783356,-0.0817770597026111,-0.00420310380373534,,
8.71948200782139,-0.0775242129950053,-0.00408350214778963,,
8.76819419780921,-0.0732055933451184,-0.00395744750643967,,
8.81690638779704,-0.0691664646161849,-0.00388011712252867,,
8.86561857778487,-0.0649093858693975,-0.00375017171056724,,
8.9143307677727,-0.0606247988679295,-0.00360633972707491,,
8.96304295776053,-0.0563308661132688,-0.00352253526957202,,
9.01175514774836,-0.0520143183992312,-0.0033880783034772,,
9.06046733773619,-0.0476879840945861,-0.00328006328860342,,
9.10917952772402,-0.0433854550103376,-0.00314937979007635,,
9.15789171771185,-0.0390662622718115,-0.0030370865091438,,
9.20660390769967,-0.0346977398265746,-0.00290807820351935,,
9.2553160976875,-0.030469580014195,-0.00279406491728595,,
9.30402828767533,-0.0260146093519249,-0.00266962352228717,,
9.35274047766316,-0.021678929294087,-0.00254555117057143,,
9.40145266765099,-0.0172959473816462,-0.00242334512345765,,
9.45016485763882,-0.0129448820980334,-0.00232068782624451,,
9.49887704762665,-0.00854426668900243,-0.00218257074159034,,
9.54758923761448,-0.00418927795239838,-0.00203706356519584,,
9.59630142760231,0.000257140464025462,-0.00191407593712922,,
9.64501361759014,0.00456853038031044,-0.00182858442461864,,
9.69372580757796,0.00897143814389815,-0.00165977480093149,,
9.74243799756579,0.0133517750318505,-0.00155424819219396,,
9.79115018755362,0.0177277035456553,-0.0014026346674787,,
9.83986237754145,0.0220283370290203,-0.001280006856613,,
9.88857456752928,0.0264363805484899,-0.00114453633950218,,
9.93728675751711,0.0308205527219506,-0.00103863146139949,,
9.98599894750494,0.0351173068360658,-0.000891371329410973,,
10.0347111374928,0.0394262721465696,-0.000785225255162558,,
10.0834233274806,0.0437852504617772,-0.000678371408618261,,
10.1321355174684,0.0481359630754581,-0.000522907971655329,,
10.1808477074563,0.05244576597705,-0.000398141027760701,,
10.2295598974441,0.0567083111077803,-0.000257187581874874,,
10.2782720874319,0.0609752646126582,-0.000162227473134102,,
10.3269842774197,0.0652617692568804,-1.75730503251259E-05,,
10.3756964674076,0.0694559184627118,0.000119120581666188,,
10.4244086573954,0.0737131735444651,0.000231204298734244,,
10.4731208473832,0.0778577505830075,0.000390694261516167,,
10.5218330373711,0.082088357043039,0.000513140186763739,,
10.5705452273589,0.0862449469011334,0.000656236719713821,,
10.6192574173467,0.0904404847448213,0.00075770253432772,,
10.6679696073345,0.0945519108097743,0.000903537895641904,,
10.7166817973224,0.0986799123615219,0.00102635550019592,,
10.7653939873102,0.102768943885805,0.00115081798338235,,
10.814106177298,0.106782151374751,0.00125922971978554,,
10.8628183672859,0.110893577439704,0.00140995226857443,,
10.9115305572737,0.114847558421978,0.00152113710164636,,
10.9602427472615,0.118934980889698,0.00166166878378027,,
11.0089549372493,0.122814350139525,0.00178727002909662,,
11.0576671272372,0.126769719759655,0.00190418294112416,,
11.106379317225,0.130645584352035,0.00203630307243108,,
11.1550915072128,0.134507121728435,0.00218300041341291,,
11.2038036972007,0.13832935844931,0.00227107522890391,,
11.2525158871885,0.142098165675517,0.00240594473266853,,
11.3012280771763,0.145853924114247,0.00251507610347312,,
11.3499402671641,0.149630490078954,0.00265670437136212,,
11.398652457152,0.153364934028681,0.00278466749368933,,
11.4473646471398,0.157069709620395,0.00289951376333208,,
11.4960768371276,0.16068935950732,0.00298831612129513,,
11.5447890271155,0.164228909235985,0.00314479047325111,,
11.5935012171033,0.167742559766532,0.00325831873116922,,
11.6422134070911,0.171175625217663,0.0033465411639737,,
11.690925597079,0.174784672964764,0.00348222256296049,,
11.7396377870668,0.178058860611618,0.00359684740663369,,
11.7883499770546,0.181703329644994,0.00373016692861006,,
11.8370621670424,0.184808963106317,0.00382951338037074,,
11.8857743570303,0.188365110363647,0.00395801425148168,,
11.9344865470181,0.191444976878078,0.00407198272531595,,
11.9831987370059,0.194682134182092,0.00417743684340888,,
12.0319109269938,0.197799912714192,0.00429683816157223,,
12.0806231169816,0.20076586684065,0.00439136596246748,,
12.1293353069694,0.203833037237536,0.00452872387236836,,
12.1780474969572,0.206897209940002,0.00462358908426497,,
12.2267596869451,0.209894551690391,0.00472632809820484,,
12.2754718769329,0.212722435538549,0.00481265786617247,,
12.3241840669207,0.215468147292597,0.00491803290356163,,
12.3728962569086,0.218450500570884,0.0050400069806118,,
12.4216084468964,0.221480816959897,0.0051219978539816,,
12.4703206368842,0.223962202600059,0.00520992505215956,,
12.519032826872,0.226709677703766,0.00535558907194966,,
12.5677450168599,0.229382739451863,0.00542032980786633,,
12.6164572068477,0.231977332140133,0.00552158737662767,,
12.6651693968355,0.234336693983892,0.00562477187853094,,
12.7138815868234,0.236743313598512,0.00572463499088727,,
12.7625937768112,0.239048011602841,0.00582430830955571,,
12.811305966799,0.241364347714919,0.00592345178751064,,
12.8600181567868,0.243705723392156,0.00601289733519561,,
12.9087303467747,0.245894569323888,0.0060968098696601,,
12.9574425367625,0.24829290119511,0.00618371692676289,,
13.0061547267503,0.250383528550835,0.00630520597549822,,
13.0548669167382,0.252228873968992,0.0063652519536519,,
13.103579106726,0.254442935800847,0.00645221963929421,,
13.1522912967138,0.256127463730102,0.00652805276188628,,
13.2010034867017,0.257805467265618,0.00662303395881469,,
13.2497156766895,0.259819565246142,0.00667646088208684,,
13.2984278666773,0.261653801561446,0.00676840274397827,,
13.3471400566651,0.263071534687292,0.00683935658716539,,
13.395852246653,0.265163043717846,0.0069060163481538,,
13.4445644366408,0.26618508118021,0.00697136864151071,,
13.4932766266286,0.26780612852174,0.00703816811174196,,
13.5419888166165,0.269259657645664,0.00709184545724195,,
13.5907010066043,0.27059433700257,0.00716102789267081,,
13.6394131965921,0.272016831172495,0.00726055095800282,,
13.6881253865799,0.273282034552837,0.00729454511640615,,
13.7368375765678,0.274303543010302,0.00737997072833041,,
13.7855497665556,0.275566630371053,0.00742501773305726,,
13.8342619565434,0.276486040883262,0.00745804974290154,,
13.8829741465313,0.27727901922492,0.00752817851074905,,
13.9316863365191,0.27817903289088,0.00758994054016826,,
13.9803985265069,0.279333674247601,0.00763543566888103,,
14.0291107164947,0.280005334132719,0.00767479677102756,,
14.0778229064826,0.280778739293161,0.00776271342511148,,
14.1265350964704,0.281428180972576,0.00779022296582932,,
14.1752472864582,0.282229799727563,0.0078589810014833,,
14.2239594764461,0.282449689430041,0.00789795988022934,,
14.2726716664339,0.282951891412928,0.00792235100520644,,
14.3213838564217,0.2832654149823,0.00797645275048176,,
14.3700960464095,0.283983627298416,0.00802105426724564,,
14.4188082363974,0.284033882763698,0.00803218883029588,,
14.4675204263852,0.283978160914473,0.00806898771764919,,
14.516232616373,0.284366097839456,0.00810989616556013,,
14.5649448063609,0.284509281831768,0.00814521887978215,,
14.6136569963487,0.28463395065266,0.00817859357267459,,
14.6623691863365,0.284295740188061,0.00820263410653332,,
14.7110813763243,0.284017659946835,0.00819488156156867,,
14.7597935663122,0.284098950366115,0.00823574256105752,,
14.8085057563,0.283648590863204,0.00827708858886123,,
14.8572179462878,0.283640303119806,0.0083060716666874,,
14.9059301362757,0.283230324324086,0.00830399711623242,,
14.9546423262635,0.282700966756451,0.0083100046136737,,
15.0033545162513,0.281719486336244,0.00835211772430133,,
15.0520667062392,0.281300867127195,0.00835136118557145,,
15.100778896227,0.280761282131537,0.00835979382458607,,
15.1494910862148,0.280073399429556,0.00837687789256147,,
15.1982032762026,0.279119603598997,0.00835850744514266,,
15.2469154661905,0.278407739341653,0.00837664328647447,,
15.2956276561783,0.277387994233847,0.0083676096341132,,
15.3443398461661,0.276437196097707,0.00834016072193489,,
15.393052036154,0.275020344646691,0.00836746201680016,,
15.4417642261418,0.274245352471555,0.00833301182633983,,
15.4904764161296,0.272978738411486,0.00834889123159899,,
15.5391886061174,0.271670685634431,0.0083361987786903,,
15.5879007961053,0.270572471466798,0.00832143704737387,,
15.6366129860931,0.269000621580755,0.0083180181249598,,
15.6853251760809,0.267700151207233,0.00830006416924611,,
15.7340373660688,0.266062175708977,0.00827880464012676,,
15.7827495560566,0.264788508250272,0.00828687087188174,,
15.8314617460444,0.262919710281651,0.00823426638792579,,
15.8801739360322,0.261198681014455,0.00823665198914769,,
15.9288861260201,0.25977918453895,0.00820009297992819,,
15.9775983160079,0.257524212995005,0.00818072347962184,,
16.0263105059957,0.255742877169471,0.00813378117403518,,
16.0750226959836,0.253885011968736,0.00813265295599885,,
16.1237348859714,0.251775516771659,0.00811397672985992,,
16.1724470759592,0.249576619746871,0.00804356590750333,,
16.221159265947,0.247742207096601,0.0080124502867065,,
16.2698714559349,0.2454539082441,0.00800134735593794,,
16.3185836459227,0.243139511816647,0.0079494493262664,,
16.3672958359105,0.240893886025895,0.00790806375811082,,
16.4160080258984,0.238553215688522,0.00787244580926272,,
16.4647202158862,0.236077120097337,0.00782370309965996,,
16.513432405874,0.233670500482717,0.0077626712487362,,
16.5621445958618,0.231376558911308,0.00772801281242375,,
16.6108567858497,0.228664350800781,0.00765908607126908,,
