Time domain (s),Current (AC) (A),Potential (AC) (V),Frequency (Hz),Column 5
0,0.283412654678828,0.00726715551475499,0.50119,0.3
0.0048712189987829,0.283251484519994,0.00728993075735751,,
0.00974243799756579,0.282494125841448,0.0072857658403076,,
0.0146136569963487,0.282088026414978,0.00726036511834938,,
0.0194848759951316,0.281686335362655,0.00726328846835456,,
0.0243560949939145,0.280814182621307,0.00724065029897147,,
0.0292273139926974,0.280113780136748,0.00721402382610892,,
0.0340985329914803,0.279413553987154,0.0072306624061218,,
0.0389697519902632,0.278682469218528,0.00716594539441573,,
0.0438409709890461,0.277812256161805,0.00720359571734353,,
0.048712189987829,0.276881383876812,0.00714106660510039,,
0.0535834089866119,0.275619001855926,0.00715456568118444,,
0.0584546279853947,0.274466476518795,0.0071123576737131,,
0.0633258469841776,0.273408643058354,0.00707677135714624,,
0.0681970659829605,0.272216089683964,0.00706538109982136,,
0.0730682849817434,0.270872064573865,0.00704187040667614,,
0.0779395039805263,0.269605097843864,0.00700983744971939,,
0.0828107229793092,0.267903465422917,0.00701881047354114,,
0.0876819419780921,0.266538103781944,0.00698025072252362,,
0.092553160976875,0.265186319933345,0.00692571666940234,,
0.0974243799756579,0.263410979496652,0.006912768522219,,
0.102295598974441,0.261961858746876,0.00686050144926442,,
0.107166817973224,0.260033283224814,0.00683670342956333,,
0.112038036972007,0.258137858676342,0.00678898086103574,,
0.116909255970789,0.256431994216213,0.0067614818644115,,
0.121780474969572,0.254537275007604,0.00671684871536637,,
0.126651693968355,0.252392689152314,0.00667964915244879,,
0.131522912967138,0.250572383299315,0.00662791192020773,,
0.136394131965921,0.248337690276449,0.00657364146943173,,
0.141265350964704,0.246269986466291,0.00652040170382406,,
0.146136569963487,0.244036880458118,0.00648883532301792,,
0.15100778896227,0.241769741801526,0.00643579589519261,,
0.155879007961053,0.239475623895151,0.00638225298688866,,
0.160750226959836,0.23695632623732,0.00633318077435474,,
0.165621445958618,0.234729391952954,0.00627610559462877,,
0.170492664957401,0.232137267954206,0.00619695108249019,,
0.175363883956184,0.229584466652854,0.0061564090418389,,
0.180235102954967,0.227075220088079,0.00610014575733508,,
0.18510632195375,0.224492089172592,0.0060365437835479,,
0.189977540952533,0.221688539549729,0.00597957404475968,,
0.194848759951316,0.218821685674107,0.00588357007073315,,
0.199719978950099,0.216017783381311,0.00583282398330898,,
0.204591197948882,0.213277009006308,0.00576506763656592,,
0.209462416947665,0.210394461318721,0.00570056677878261,,
0.214333635946447,0.207500628193316,0.00564149612930542,,
0.21920485494523,0.204443685224452,0.0055592205654027,,
0.224076073944013,0.201293637393593,0.00547943604366008,,
0.228947292942796,0.198255738601047,0.00542057891208225,,
0.233818511941579,0.195140957763367,0.00536296598357255,,
0.238689730940362,0.192042047072619,0.00525520798098489,,
0.243560949939145,0.188548851398116,0.00517705515775724,,
0.248432168937928,0.185556623361738,0.00503753307260446,,
0.253303387936711,0.181940676509097,0.00503922012761215,,
0.258174606935493,0.1785698793428,0.00494015836638395,,
0.263045825934276,0.175417891827315,0.0048562590120369,,
0.267917044933059,0.171754003905819,0.00475817785153199,,
0.272788263931842,0.168353207753448,0.00469201366295247,,
0.277659482930625,0.164827919115151,0.00460496162455959,,
0.282530701929408,0.161224690421925,0.0045433735726883,,
0.287401920928191,0.157798479992594,0.0044161169046455,,
0.292273139926974,0.153919309119604,0.00432472860767863,,
0.297144358925757,0.150249778479199,0.00425165803766125,,
0.30201557792454,0.14668320541701,0.00416195152365528,,
0.306886796923322,0.142791162091509,0.004090557464552,,
0.311758015922105,0.139006484718371,0.00399943540595338,,
0.316629234920888,0.135211932587143,0.00387780928399861,,
0.321500453919671,0.131314224500862,0.00379585004291005,,
0.326371672918454,0.12736537927447,0.00368420917778156,,
0.331242891917237,0.123502739804533,0.00362056502761954,,
0.33611411091602,0.119526783077133,0.00348748538377697,,
0.340985329914803,0.115658148218356,0.0033962183438887,,
0.345856548913586,0.111520624578449,0.00326363690847842,,
0.350727767912368,0.107582535784977,0.00321495482741518,,
0.355598986911151,0.103405160442777,0.00313232340034686,,
0.360470205909934,0.0992490995895804,0.00299675271434507,,
0.365341424908717,0.0952382064970618,0.00290323714645435,,
0.3702126439075,0.0910659669107437,0.0027997495018548,,
0.375083862906283,0.0869457020556249,0.00270217445785192,,
0.379955081905066,0.0827577466154708,0.00261626118158942,,
0.384826300903849,0.0785927367627545,0.00247580330811248,,
0.389697519902632,0.074372137312038,0.00235930161574327,,
0.394568738901415,0.0701905299306563,0.00227900834147476,,
0.399439957900197,0.0659002781684087,0.00216880938117292,,
0.40431117689898,0.0616615602999458,0.00204365362381953,,
0.409182395897763,0.0574043052181925,0.00196940211529695,,
0.414053614896546,0.0530433651764893,0.00184207427462102,,
0.418924833895329,0.0487899894639858,0.00175533592301891,,
0.423796052894112,0.0444913177071164,0.00160417579433725,,
0.428667271892895,0.0401622722523706,0.00152062439508516,,
0.433538490891678,0.0358454159521427,0.00138435252684577,,
0.438409709890461,0.0314611776530698,0.00127318614593808,,
0.443280928889244,0.0271112144629939,0.00119674146590576,,
0.448152147888026,0.0228052688887811,0.00105620978377186,,
0.453023366886809,0.0184256373406924,0.000972766461481367,,
0.457894585885592,0.0140147945036391,0.000864539246719698,,
0.462765804884375,0.00968171538654829,0.00073450948200815,,
0.467637023883158,0.00527263589915403,0.000651569640196747,,
0.472508242881941,0.000962303992664466,0.000547647051727829,,
0.477379461880724,-0.00345594491295665,0.000410405126858748,,
0.482250680879507,-0.00780771553643301,0.000301231579678873,,
0.48712189987829,-0.0122046279111801,0.000196897771552074,,
0.491993118877072,-0.0165904311830754,8.42130411373709E-05,,
0.496864337875855,-0.0209543689191989,-1.43531476819447E-05,,
0.501735556874638,-0.0252885060460851,-0.000116905003956891,,
0.506606775873421,-0.0297101493997999,-0.00024721945920092,,
0.511477994872204,-0.0340516485115125,-0.000376870954547748,,
0.516349213870987,-0.0383290057793785,-0.000478228692200044,,
0.52122043286977,-0.0426887555600619,-0.000558786886825313,,
0.526091651868553,-0.0470246119528657,-0.000692761460628688,,
0.530962870867336,-0.0513163846041941,-0.000808934968078656,,
0.535834089866119,-0.0556590298931851,-0.000909114403249145,,
0.540705308864901,-0.0598856026908716,-0.0010160012000866,,
0.545576527863684,-0.0641966840209662,-0.00115205032434496,,
0.550447746862467,-0.068468178151216,-0.00123124701285837,,
0.55531896586125,-0.0726605419655177,-0.00135870533669502,,
0.560190184860033,-0.0769072610330584,-0.00143735241431919,,
0.565061403858816,-0.0810318681367125,-0.00155184941085507,,
0.569932622857599,-0.0852767797708527,-0.00168730147580209,,
0.574803841856382,-0.0894934778104487,-0.00177011347047618,,
0.579675060855165,-0.0935146203728603,-0.00188834439422836,,
0.584546279853947,-0.0977072927733523,-0.00201518061653116,,
0.58941749885273,-0.101830577364762,-0.00212382564100944,,
0.594288717851513,-0.105877464832195,-0.00219776082671785,,
0.599159936850296,-0.109795495523296,-0.00230285380959794,,
0.604031155849079,-0.113883424954043,-0.00241294469293818,,
0.608902374847862,-0.117842497608457,-0.00250973947400013,,
0.613773593846645,-0.121933336566141,-0.00266951280930261,,
0.618644812845428,-0.125870499601042,-0.00273618443239654,,
0.623516031844211,-0.129700671395383,-0.00285568064740405,,
0.628387250842994,-0.133549534696109,-0.0029760203899154,,
0.633258469841776,-0.137402101031119,-0.00304990417316686,,
0.638129688840559,-0.141272653532651,-0.00316462391368422,,
0.643000907839342,-0.144929311720544,-0.00323645950671514,,
0.647872126838125,-0.148740792008499,-0.00335578569821049,,
0.652743345836908,-0.152420197406994,-0.00345469193405501,,
0.657614564835691,-0.15612680247398,-0.00354111000880808,,
0.662485783834474,-0.159728400068771,-0.00362617975756674,,
0.667357002833257,-0.163338461741925,-0.0037362073763445,,
0.67222822183204,-0.166948214828889,-0.00385183390892863,,
0.677099440830823,-0.17047002085161,-0.003924683052976,,
0.681970659829605,-0.173872051348742,-0.0040208979088785,,
0.686841878828388,-0.177391168263233,-0.00411682939226043,,
0.691713097827171,-0.180860029712442,-0.00418736806175435,,
0.696584316825954,-0.184059980338651,-0.0042961198451823,,
0.701455535824737,-0.187485639721214,-0.00436784077119334,,
0.70632675482352,-0.190845746580204,-0.00445762504789116,,
0.711197973822303,-0.193894930810568,-0.00456180992069344,,
0.716069192821086,-0.197339590285707,-0.00462998803118841,,
0.720940411819869,-0.200245546440017,-0.00474213501281895,,
0.725811630818652,-0.203274848902976,-0.00484075524011951,,
0.730682849817434,-0.206412024281325,-0.00492247064903895,,
0.735554068816217,-0.209126172076476,-0.00498008357754864,,
0.740425287815,-0.212060385909073,-0.00505080149663728,,
0.745296506813783,-0.215219823576867,-0.00513574735229394,,
0.750167725812566,-0.217961259207992,-0.00521761037852642,,
0.755038944811349,-0.220761282131537,-0.00527240803399209,,
0.759910163810132,-0.223713085376982,-0.00537188101487818,,
0.764781382808915,-0.226092417155629,-0.0054303691031734,,
0.769652601807698,-0.228872690562993,-0.00551655652587479,,
0.77452382080648,-0.231446475725288,-0.00557525549604554,,
0.779395039805263,-0.233923276656336,-0.00565785792685558,,
0.784266258804046,-0.236362297820941,-0.00570774203461211,,
0.789137477802829,-0.238889221966047,-0.00578490371302243,,
0.794008696801612,-0.241100638773414,-0.00588328010815387,,
0.798879915800395,-0.243565625261747,-0.00593309040725343,,
0.803751134799178,-0.245562398331871,-0.00599978180052307,,
0.808622353797961,-0.247853562627567,-0.00601848570490837,,
0.813493572796744,-0.250102362447706,-0.00610897511787867,,
0.818364791795526,-0.252279393936722,-0.00615665814605482,,
0.823236010794309,-0.254250642520532,-0.00623645584791488,,
0.828107229793092,-0.256019987568385,-0.00628031796010076,,
0.832978448791875,-0.257886272763742,-0.00632248379119726,,
0.837849667790658,-0.259791968823978,-0.00639575338098464,,
0.842720886789441,-0.261545620059866,-0.00643685557661966,,
0.847592105788224,-0.262887881820306,-0.00649901169154443,,
0.852463324787007,-0.264793004791903,-0.00654595663315449,,
0.85733454378579,-0.266557236125744,-0.00655966395509155,,
0.862205762784573,-0.268106867806084,-0.0066188888119405,,
0.867076981783355,-0.269395171066959,-0.0066786527355851,,
0.871948200782138,-0.27082859800477,-0.00673525211307879,,
0.876819419780921,-0.271869900062158,-0.00675603583996542,,
0.881690638779704,-0.273148460816166,-0.00680838726567012,,
0.886561857778487,-0.274906344091236,-0.00684465763032227,,
0.89143307677727,-0.27559493213308,-0.00688619345181429,,
0.896304295776053,-0.276828395219559,-0.00694213909549246,,
0.901175514774836,-0.2777941818278,-0.00697488905082766,,
0.906046733773619,-0.278604440996116,-0.00698516954228001,,
0.910917952772402,-0.279387544579684,-0.00701208861374525,,
0.915789171771184,-0.280305368077199,-0.00703006629366998,,
0.920660390769967,-0.281000083759109,-0.00705298915358599,,
0.92553160976875,-0.28182872584762,-0.00708422075941417,,
0.930402828767533,-0.282306549521471,-0.00712352914109182,,
0.935274047766316,-0.282839125202234,-0.00712793525428745,,
0.940145266765099,-0.283496898708787,-0.00716938540501744,,
0.945016485763882,-0.283948845226392,-0.00715427440059369,,
0.949887704762665,-0.284108075700601,-0.00718132000118432,,
0.954758923761448,-0.284830343720932,-0.00719280251932997,,
0.959630142760231,-0.284722911642957,-0.0072023462422286,,
0.964501361759013,-0.284813195145498,-0.00723320880477374,,
0.969372580757796,-0.285011087060981,-0.00723417886140343,,
0.974243799756579,-0.284750772567569,-0.00723802745563917,,
0.979115018755362,-0.284871914689143,-0.00724281447422337,,
0.983986237754145,-0.284704043801606,-0.00725935947540357,,
0.988857456752928,-0.284472383740153,-0.00726100303602406,,
0.993728675751711,-0.284347670835519,-0.00725318986252033,,
0.998599894750494,-0.283361473454975,-0.00725195752155772,,
1.00347111374928,-0.28342795173712,-0.00726314348706536,,
1.00834233274806,-0.282794688790827,-0.00728398916050299,,
1.01321355174684,-0.282521016923748,-0.007269439629074,,
1.01808477074563,-0.281913190296287,-0.00724798239819613,,
1.02295598974441,-0.28101476364502,-0.00723587646050472,,
1.02782720874319,-0.280403233983275,-0.00721434542096988,,
1.03269842774197,-0.279742330531077,-0.00721789878057999,,
1.03756964674076,-0.279215573904188,-0.00717059665779241,,
1.04244086573954,-0.278042064706116,-0.0071752782354384,,
1.04731208473832,-0.277014252273619,-0.00716365996208523,,
1.05218330373711,-0.275736220524508,-0.00715352708794592,,
1.05705452273589,-0.274646250016531,-0.0071418758642996,,
1.06192574173467,-0.273469743124038,-0.00709453288314821,,
1.06679696073345,-0.272209168536552,-0.00707900143298446,,
1.07166817973224,-0.271068193139688,-0.00702892753154005,,
1.07653939873102,-0.269742330531077,-0.00704180187006687,,
1.0814106177298,-0.268228715267522,-0.00698850147592012,,
1.08628183672859,-0.266720522304169,-0.0069470737313897,,
1.09115305572737,-0.265039565157974,-0.00691659207423267,,
1.09602427472615,-0.263528859421357,-0.00690718674256496,,
1.10089549372493,-0.261881185499976,-0.00686811955703348,,
1.10576671272372,-0.260002556857006,-0.00680622440843015,,
1.1106379317225,-0.258147292597017,-0.00677095441467701,,
1.11550915072128,-0.256264035161192,-0.00675081519552379,,
1.12038036972007,-0.254410225664673,-0.00672087128715049,,
1.12525158871885,-0.252395775014217,-0.00665581422841965,,
1.13012280771763,-0.250590678052028,-0.00662896896561094,,
1.13499402671641,-0.248043960306999,-0.0065573640246317,,
1.1398652457152,-0.245952671695152,-0.00655106920063453,,
1.14473646471398,-0.243822545307065,-0.00647049123583354,,
1.14960768371276,-0.241471471206704,-0.00640705796754748,,
1.15447890271155,-0.239015477801632,-0.00637427637993104,,
1.15935012171033,-0.236854669129478,-0.00633396630934291,,
1.16422134070911,-0.234126414537055,-0.00627921083025207,,
1.16909255970789,-0.231848872117474,-0.00619553290187458,,
1.17396377870668,-0.229305416569315,-0.00617234643961373,,
1.17883499770546,-0.226484277533603,-0.00608653860428943,,
1.18370621670424,-0.224128927310319,-0.00603715006894179,,
1.18857743570303,-0.221130527550134,-0.00592509798415497,,
1.19344865470181,-0.218212712869367,-0.00589000723999655,,
1.19831987370059,-0.215503149783328,-0.00591519839809074,,
1.20319109269938,-0.212772382417641,-0.00578447008716498,,
1.20806231169816,-0.209783725164322,-0.00570586518591609,,
1.21293353069694,-0.206794142152433,-0.00563957446821073,,
1.21780474969572,-0.203773876856477,-0.00555171053459569,,
1.22267596869451,-0.200709351484079,-0.00544202032681973,,
1.22754718769329,-0.197418896936621,-0.00540813160935461,,
1.23241840669207,-0.194430239683302,-0.00534167086813664,,
1.23728962569086,-0.191226982776482,-0.00525184836909887,,
1.24216084468964,-0.187782367385085,-0.00519426575485848,,
1.24703206368842,-0.184555128922902,-0.00509237817649266,,
1.2519032826872,-0.181263484114424,-0.00502939830423976,,
1.25677450168599,-0.177894031502242,-0.00491991897833977,,
1.26164572068477,-0.174436323239626,-0.0048368433813204,,
1.26651693968355,-0.170842087629661,-0.00477307006600958,,
1.27138815868234,-0.167417177670703,-0.00464806060795731,,
1.27625937768112,-0.163907186090698,-0.00458043210835157,,
1.2811305966799,-0.160266927054633,-0.00448396287618591,,
1.28600181567868,-0.15653378357528,-0.00442334356293195,,
1.29087303467747,-0.153046318787168,-0.00432525317634491,,
1.29574425367625,-0.149342270577188,-0.00423871779854856,,
1.30061547267503,-0.14557910606989,-0.00415081168855824,,
1.30548669167382,-0.141728126749574,-0.00407311094335228,,
1.3103579106726,-0.137946094400924,-0.00398262153038154,,
1.31522912967138,-0.134061082432188,-0.00387551594359792,,
1.32010034867016,-0.130265472291164,-0.00376816652464473,,
1.32497156766895,-0.126469685815175,-0.00366545518895123,,
1.32984278666773,-0.12245352471555,-0.0035903087504674,,
1.33471400566651,-0.118472542441622,-0.0034612279541979,,
1.3395852246653,-0.114437293081938,-0.0033767789889616,,
1.34445644366408,-0.110529533902601,-0.00329761393272943,,
1.34932766266286,-0.106466599953271,-0.0031733214730556,,
1.35419888166165,-0.102345475465194,-0.00309801555515321,,
1.35907010066043,-0.0982486852024105,-0.00299171000148624,,
1.36394131965921,-0.0941531292843886,-0.00290714636923006,,
1.36881253865799,-0.0900182506689708,-0.00279804663070671,,
1.37368375765678,-0.0858819172900842,-0.00265036605297819,,
1.37855497665556,-0.0815924369933125,-0.00257642032317573,,
1.38342619565434,-0.077442569905793,-0.00246748006407094,,
1.38829741465313,-0.0732070040248456,-0.00235990790113672,,
1.39316863365191,-0.0689679114445801,-0.00228474828253589,,
1.39803985265069,-0.0647403247208397,-0.00215829428363357,,
1.40291107164947,-0.0605174108736957,-0.00205277953700111,,
1.40778229064826,-0.0561909002340847,-0.00192786233977005,,
1.41265350964704,-0.0519094431782614,-0.0018369735692465,,
1.41752472864582,-0.047600698286465,-0.00172944490069904,,
1.42239594764461,-0.0432800067007287,-0.00162882129557751,,
1.42726716664339,-0.038944062140442,-0.00148231243027208,,
1.43213838564217,-0.0346134517128738,-0.00138543329646001,,
1.43700960464095,-0.0302438712578414,-0.00128034031357993,,
1.44188082363974,-0.0259077944463302,-0.00119456411053642,,
1.44675204263852,-0.0215137034310376,-0.00105861910920479,,
1.4516232616373,-0.0171625058962004,-0.000953967660252353,,
1.45649448063609,-0.0128205659470731,-0.000840851940003606,,
1.46136569963487,-0.00842722435538549,-0.000731520231416649,,
1.46623691863365,-0.00405350002865443,-0.000623610657480622,,
1.47110813763243,0.000318328697193188,-0.000537962301574879,,
1.47597935663122,0.00469602056065702,-0.00041431171361106,,
1.48085057563,0.00912099223685313,-0.000284165963867711,,
1.48572179462878,0.0134600226590431,-0.00020861753180812,,
1.49059301362757,0.0178516670266839,-7.96948969452593E-05,,
1.49546423262635,0.0222064353445806,3.35592145339625E-05,,
1.50033545162513,0.0265804462156312,0.000138038003950847,,
1.50520667062391,0.0308859950361707,0.000270569354915651,,
1.5100778896227,0.0351887445391265,0.000381187442946018,,
1.51494910862148,0.0395156519324108,0.000503140431808546,,
1.51982032762026,0.0438656592062281,0.000607748386373785,,
1.52469154661905,0.0481622149435067,0.00068513149075411,,
1.52956276561783,0.0524916130681843,0.000835371647252448,,
1.53443398461661,0.0567992999501854,0.000962736392256414,,
1.5393052036154,0.0610830052768238,0.00104660411432222,,
1.54417642261418,0.0653368879523543,0.00116386498144472,,
1.54904764161296,0.0696052741788301,0.0012685889210422,,
1.55391886061174,0.0738470117835841,0.00136207285665124,,
1.55879007961053,0.07799826750896,0.00148284490700856,,
1.56366129860931,0.0821809549420078,0.0015697572361586,,
1.56853251760809,0.0864338016496136,0.00169755692503193,,
1.57340373660688,0.0906076502924956,0.00180675946846964,,
1.57827495560566,0.0946709369117576,0.00191682926362224,,
1.58314617460444,0.0987917087299033,0.00201909642936471,,
1.58801739360322,0.102849881635154,0.00212477988149784,,
1.59288861260201,0.106901508104796,0.00222392599547616,,
1.59775983160079,0.11095917404702,0.00232441120936677,,
1.60263105059957,0.114922853452418,0.00243533507611726,,
1.60750226959836,0.119034081140535,0.00257139606248113,,
1.61237348859714,0.122888410825204,0.00262556107231893,,
1.61724470759592,0.126863728338352,0.00275738069695253,,
1.6221159265947,0.13073357550002,0.00286919290360554,,
1.62698714559349,0.134692273442632,0.00297633934875297,,
1.63185836459227,0.138454732610066,0.00307055346285745,,
1.63672958359105,0.142181043109491,0.00318050727297825,,
