Time domain (s),Current (AC) (A),Potential (AC) (V),Frequency (Hz),Column 5
0,-0.444405824085597,-0.00898925417229179,79.433,0.5
0.000239736239975829,-0.428198152073724,-0.00881258577654265,,
0.000479472479951657,-0.405845991209115,-0.00848593775926521,,
0.000719208719927486,-0.378022460554656,-0.00804491949688257,,
0.000958944959903315,-0.344341411660053,-0.00752238491458535,,
0.00119868119987914,-0.306203314992641,-0.00686234251295303,,
0.00143841743985497,-0.263084279043758,-0.00614362010702463,,
0.0016781536798308,-0.216695351912601,-0.00530978496002099,,
0.00191788991980663,-0.167105936817975,-0.00438417092072241,,
0.00215762615978246,-0.115057634446228,-0.00342218827243945,,
0.00239736239975829,-0.0613067910092561,-0.00239435323050508,,
0.00263709863973412,-0.00662697946274394,-0.00134166739617925,,
0.00287683487970994,0.0479487627015334,-0.000276537146805644,,
0.00311657111968577,0.102214565261498,0.000809953555294562,,
0.0033563073596616,0.154771269250886,0.00188249507080052,,
0.00359604359963743,0.20505358226238,0.00292594839375493,,
0.00383577983961326,0.252373072571947,0.00393843294010088,,
0.00407551607958909,0.296071153966397,0.00488468623726979,,
0.00431525231956492,0.335470631095733,0.00577565401479507,,
0.00455498855954074,0.370092557947434,0.00652311923092785,,
0.00479472479951657,0.399418856152719,0.00726980239187913,,
0.0050344610394924,0.422563659907497,0.00785660547785794,,
0.00527419727946823,0.440287498048699,0.0083160157305926,,
0.00551393351944406,0.451641269153055,0.00870991592900694,,
0.00575366975941989,0.456896347604214,0.00895843298197274,,
0.00599340599939572,0.454847570256403,0.00906398913044315,,
0.00623314223937154,0.446754545272804,0.00901960673810454,,
0.00647287847934737,0.432654987170684,0.00889009596553514,,
0.0067126147193232,0.41205945792896,0.00862819572700158,,
0.00695235095929903,0.385431874466804,0.00823941692497421,,
0.00719208719927486,0.353420472772742,0.00772178768490805,,
0.00743182343925069,0.316422531333178,0.00711750551345869,,
0.00767155967922652,0.274981649618807,0.00636052478544036,,
0.00791129591920234,0.229383096835426,0.0055384235091851,,
0.00815103215917817,0.180454040252733,0.00465491416454444,,
0.008390768399154,0.12885179002882,0.00367234551117601,,
0.00863050463912983,0.0756346211895754,0.00266054564349139,,
0.00887024087910566,0.021177445811257,0.00159670715452576,,
0.00910997711908149,-0.0333886904938291,0.000549483534409312,,
0.00934971335905732,-0.0879559256241363,-0.000540867233833175,,
0.00958944959903315,-0.14119344045296,-0.00160802717506048,,
0.00982918583900897,-0.192160569699051,-0.00267692924310392,,
0.0100689220789848,-0.24050093953101,-0.0036596028805338,,
0.0103086583189606,-0.285097647280507,-0.00462624895125474,,
0.0105483945589365,-0.325920918328646,-0.00552415784889826,,
0.0107881307989123,-0.361806990428311,-0.0063323586268198,,
0.0110278670388881,-0.392785071062799,-0.00706349806064921,,
0.0112676032788639,-0.417970712267015,-0.00770624547929488,,
0.0115073395188398,-0.437232055014422,-0.00820140356569432,,
0.0117470757588156,-0.44981906247665,-0.0085802484410995,,
0.0119868119987914,-0.456480637210873,-0.00888406166426581,,
0.0122265482387673,-0.456567054497619,-0.00902666957887366,,
0.0124662844787431,-0.4502892178874,-0.00903450991030086,,
0.0127060207187189,-0.437246233404372,-0.00892965822009728,,
0.0129457569586947,-0.418075348784848,-0.00868728806000263,,
0.0131854931986706,-0.392993493395068,-0.0083059007445021,,
0.0134252294386464,-0.362194344041751,-0.00783888295108515,,
0.0136649656786222,-0.326517190518003,-0.00726851215297941,,
0.0139047019185981,-0.285742196887645,-0.00655411083015833,,
0.0141444381585739,-0.240969393534966,-0.00576601678225908,,
0.0143841743985497,-0.192768822627916,-0.00487960896461903,,
0.0146239106385255,-0.142054423182688,-0.00396717879332176,,
0.0148636468785014,-0.0889566363868245,-0.00294828109018086,,
0.0151033831184772,-0.0347370553780973,-0.00192310107994453,,
0.015343119358453,0.0199852913382656,-0.000829305617281673,,
0.0155828555984289,0.074505454213938,0.000249588194694006,,
0.0158225918384047,0.127990311055444,0.00131312542504869,,
0.0160623280783805,0.179535847719555,0.00238905990369842,,
0.0163020643183563,0.228549123938553,0.0034287246713931,,
0.0165418005583322,0.274318100969136,0.00440852722296947,,
0.016781536798308,0.316060982389447,0.00528843363634302,,
0.0170212730382838,0.352990867557249,0.00614701459167666,,
0.0172610092782597,0.385274777906155,0.00691713202094446,,
0.0175007455182355,0.411504799314106,0.00755436092957984,,
0.0177404817582113,0.4323084673203,0.0080939577041188,,
0.0179802179981871,0.44655349570331,0.00853567281722745,,
0.018219954238163,0.455157509860716,0.00883450918728013,,
0.0184596904781388,0.456599168550857,0.0090196310822348,,
0.0186994267181146,0.451853377866711,0.00906257717089254,,
0.0189391629580905,0.440849245858528,0.00896454335864849,,
0.0191788991980663,0.423283638549171,0.00877279681726773,,
0.0194186354380421,0.399718870884067,0.00845436037940228,,
0.0196583716780179,0.370170255524362,0.00798093095069863,,
0.0198981079179938,0.336152044516742,0.00742979201543692,,
0.0201378441579696,0.296920155956618,0.00674002238783578,,
0.0203775803979454,0.253109214578164,0.00597609445366709,,
0.0206173166379213,0.205899145993038,0.00513802342801206,,
0.0208570528778971,0.155660821436364,0.00418502072074967,,
0.0210967891178729,0.103126802870897,0.00321030913539788,,
0.0213365253578487,0.0491391803217559,0.00216347502136438,,
0.0215762615978246,-0.0055080209278707,0.0011284964987297,,
0.0218159978378004,-0.0600103190322058,4.23724800904246E-05,,
0.0220557340777762,-0.114147665379222,-0.00107383327591348,,
0.0222954703177521,-0.166404177407388,-0.00212266208711398,,
0.0225352065577279,-0.216241997893942,-0.00315460976554061,,
0.0227749427977037,-0.262651554582477,-0.00414570799352187,,
0.0230146790376796,-0.305506021774888,-0.00506359124997946,,
0.0232544152776554,-0.344127317971804,-0.00593115518935061,,
0.0234941515176312,-0.377456530119792,-0.00670921793410661,,
0.023733887757607,-0.405845140505718,-0.00737010020823003,,
0.0239736239975829,-0.428090679877901,-0.00795084160579318,,
0.0242133602375587,-0.444429005753165,-0.00840541954868712,,
0.0244530964775345,-0.454134893485554,-0.00874633474775965,,
0.0246928327175104,-0.457349488947023,-0.00894505588243755,,
0.0249325689574862,-0.454072295893924,-0.00905470184477863,,
0.025172305197462,-0.44476113453775,-0.00899432840192649,,
0.0254120414374378,-0.428751676417382,-0.00882467415868637,,
0.0256517776774137,-0.406590002221754,-0.00852033753672066,,
0.0258915139173895,-0.378633052917863,-0.00811150069293154,,
0.0261312501573653,-0.345295121060056,-0.00758403642427163,,
0.0263709863973412,-0.307088330093335,-0.00691732373096965,,
0.026610722637317,-0.264225639434753,-0.00617408526443963,,
0.0268504588772928,-0.217806157873253,-0.00533609944324009,,
0.0270901951172686,-0.168330453466028,-0.00442518925857138,,
0.0273299313572445,-0.116306750600845,-0.00348404670723257,,
0.0275696675972203,-0.0626029085265576,-0.00245215836762291,,
0.0278094038371961,-0.0079858363555753,-0.00138994180633079,,
0.028049140077172,0.0465130943811466,-0.00032275447795671,,
0.0282888763171478,0.100756459639015,0.000791427672226064,,
0.0285286125571236,0.153435983931347,0.00183164018284954,,
0.0287683487970994,0.203873621204746,0.00288856798185977,,
0.0290080850370753,0.25134655713955,0.00388661341599184,,
0.0292478212770511,0.295139350178868,0.00483818894862198,,
0.0294875575170269,0.33467068633474,0.00572413270628047,,
0.0297272937570028,0.369045625633508,0.00651409973069539,,
0.0299670299969786,0.398586017527042,0.00724325816093163,,
0.0302067662369544,0.422303911803609,0.0078205153048625,,
0.0304465024769302,0.440058658834902,0.00832586293125148,,
0.0306862387169061,0.451353731404864,0.00870482800579886,,
0.0309259749568819,0.45651551605015,0.00894527497960951,,
0.0311657111968577,0.454980847121936,0.00906065398460809,,
0.0314054474368336,0.447483314516247,0.00904227416632075,,
0.0316451836768094,0.432978538029348,0.00888865053280519,,
0.0318849199167852,0.412493316661437,0.00862550265759987,,
0.032124656156761,0.386018859810744,0.00823117339389112,,
0.0323643923967369,0.354356530077257,0.007740313567977,,
0.0326041286367127,0.317497536859206,0.00710760049549064,,
0.0328438648766885,0.275887365168829,0.00637262381814097,,
0.0330836011166644,0.230490110076766,0.00556498295521379,,
0.0333233373566402,0.181764123484135,0.00469029835776436,,
0.033563073596616,0.130303125470102,0.00372792924641496,,
0.0338028098365918,0.0769157805054795,0.00271406621369685,,
0.0340425460765677,0.0225357001225155,0.00166177901450304,,
0.0342822823165435,-0.0320436575311992,0.000582250733634826,,
0.0345220185565193,-0.0864966148385074,-0.000483973480088995,,
0.0347617547964952,-0.139781627273664,-0.00157322571945651,,
0.035001491036471,-0.190956540824476,-0.00261781104446435,,
0.0352412272764468,-0.239306835529401,-0.00365297062656733,,
0.0354809635164226,-0.283974151660849,-0.00459678038166933,,
0.0357206997563985,-0.324742056096233,-0.00548164082553493,,
0.0359604359963743,-0.361195618253656,-0.0063333567361572,,
0.0362001722363501,-0.392032198556441,-0.00702983012860692,,
0.036439908476326,-0.417249315786347,-0.00767637371005314,,
0.0366796447163018,-0.436709155993057,-0.00819578007162258,,
0.0369193809562776,-0.449988068884857,-0.00858118569011124,,
0.0371591171962534,-0.456532175658342,-0.00885795106313747,,
0.0373988534362293,-0.456740101746962,-0.00899387803551832,,
0.0376385896762051,-0.450677422204238,-0.00902393086422837,,
0.0378783259161809,-0.437556952820131,-0.00893368717364273,,
0.0381180621561568,-0.418680695143774,-0.00869288720994454,,
0.0383577983961326,-0.39341742725458,-0.00831327549443905,,
0.0385975346361084,-0.362854135418086,-0.00785351377332466,,
0.0388372708760842,-0.327326493016363,-0.00726641703627529,,
0.0390770071160601,-0.286789129201571,-0.00655042117292748,,
0.0393167433560359,-0.241981447009615,-0.00578280358152794,,
0.0395564795960117,-0.194031550036885,-0.00493002717973434,,
0.0397962158359876,-0.143255261919524,-0.00399012465752691,,
0.0400359520759634,-0.0903469693053454,-0.00296233982536087,,
0.0402756883159392,-0.0360530935332789,-0.00192904104770886,,
0.040515424555915,0.0186522745611186,-0.000857035103067005,,
0.0407551607958909,0.0730158371197905,0.000214946497444579,,
0.0409948970358667,0.126610186577687,0.00130446804375239,,
0.0412346332758425,0.17829183578532,0.00235368788254364,,
0.0414743695158184,0.227275053817624,0.00341585879859174,,
0.0417141057557942,0.273158308671206,0.00437699853136753,,
0.04195384199577,0.314833984523153,0.00529196657823583,,
0.0421935782357458,0.351910474243041,0.00611405263940989,,
0.0424333144757217,0.384088613802918,0.00687022088208344,,
0.0426730507156975,0.410878114478305,0.00750631778866495,,
0.0429127869556733,0.431749555188461,0.00805593521579029,,
0.0431525231956492,0.446260570166938,0.00851131955799644,,
0.043392259435625,0.455052589775084,0.00881724919898064,,
0.0436319956756008,0.456806740179728,0.0089836626298907,,
0.0438717319155766,0.452189405708532,0.00906217549274446,,
0.0441114681555525,0.441072130148546,0.00900563320738001,,
0.0443512043955283,0.423674962111797,0.0087604421712002,,
0.0445909406355041,0.400407089932251,0.0084588031831605,,
0.04483067687548,0.371317287271336,0.0080021225160225,,
0.0450704131154558,0.337052655846381,0.00744851265154711,,
0.0453101493554316,0.297605539326813,0.00674669267950589,,
0.0455498855954074,0.25443975013707,0.00597338008315162,,
0.0457896218353833,0.207180624322716,0.00517317330897882,,
0.0460293580753591,0.157058810685458,0.00421867952374333,,
0.0462690943153349,0.104473466348371,0.00322620585240685,,
0.0465088305553108,0.0505028578671703,0.00218389061753843,,
0.0467485667952866,-0.00411003167877667,0.00115096613088816,,
0.0469883030352624,-0.0586180011390919,6.62647223563795E-05,,
0.0472280392752382,-0.112792778435576,-0.00102018946354887,,
0.0474677755152141,-0.165131808693253,-0.0020843672488291,,
0.0477075117551899,-0.214791265034233,-0.00313849395136012,,
0.0479472479951657,-0.261524372581433,-0.00412498048817955,,
0.0481869842351416,-0.30442818057087,-0.00506538054354788,,
0.0484267204751174,-0.343062875346289,-0.00592881815285295,,
0.0486664567150932,-0.376704508316831,-0.0067083415454201,,
0.048906192955069,-0.404921772860208,-0.00736227357037622,,
0.0491459291950449,-0.427653418331836,-0.00793668549409254,,
0.0493856654350207,-0.443908658841991,-0.00843362222350308,,
0.0496254016749965,-0.453744775086073,-0.00875014460413315,,
0.0498651379149724,-0.457646384432582,-0.00898403083485944,,
0.0501048741549482,-0.4547201774227,-0.0090353254386617,,
0.050344610394924,-0.44516862146492,-0.00898981256577791,,
0.0505843466348998,-0.429103867623746,-0.00880096145438047,,
0.0508240828748757,-0.406976008888149,-0.00851616099688624,,
0.0510638191148515,-0.379195651431089,-0.00810315065627876,,
0.0513035553548273,-0.346230540337023,-0.00757086472833501,,
0.0515432915948032,-0.308018148906272,-0.00693912389954798,,
0.051783027834779,-0.26547163634358,-0.00620884868233995,,
0.0520227640747548,-0.219134176767942,-0.00535320119469285,,
0.0522625003147306,-0.169604736262806,-0.0044554261897658,,
0.0525022365547065,-0.117783288130263,-0.00349137429041724,,
0.0527419727946823,-0.064021031089381,-0.0024658534623585,,
0.0529817090346581,-0.00939311245008675,-0.00140222189849926,,
0.053221445274634,0.0450614753720658,-0.000321805056879398,,
0.0534611815146098,0.0994171689243153,0.000758587440610192,,
0.0537009177545856,0.152150287530659,0.00180060141686722,,
0.0539406539945614,0.20256183656655,0.00286553234867482,,
0.0541803902345373,0.250256522520175,0.0038600539699627,,
0.0544201264745131,0.293986363508114,0.00483159168934222,,
0.0546598627144889,0.33352223674877,0.00570961143262672,,
0.0548995989544648,0.36829558880514,0.00649249431515875,,
0.0551393351944406,0.398055745742903,0.00720737491304257,,
0.0553790714344164,0.421506802720606,0.00783566952590098,,
0.0556188076743922,0.439831521027899,0.00830909895460463,,
0.0558585439143681,0.451311763370612,0.00867893802335029,,
0.0560982801543439,0.456438952744419,0.00893967582966759,,
0.0563380163943197,0.455303830845002,0.00904414866434466,,
0.0565777526342956,0.447583697517095,0.00901040769991202,,
0.0568174888742714,0.433446424897706,0.00890370737732304,,
0.0570572251142472,0.413094763963127,0.00864533399464973,,
0.057296961354223,0.386654618816113,0.00824446833198689,,
0.0575366975941989,0.354998811142003,0.00775919244093348,,
0.0577764338341747,0.31839956602784,0.00711102997483026,,
0.0580161700741505,0.277226939451328,0.00640001096459608,,
0.0582559063141264,0.231697010075306,0.00559659380825561,,
0.0584956425541022,0.183004165469183,0.00470199875533339,,
0.058735378794078,0.131648087540782,0.00374652816187426,,
0.0589751150340538,0.0783310673903128,0.00270857661234114,,
0.0592148512740297,0.0239132724900812,0.00169377937362736,,
0.0594545875140055,-0.0306570818860151,0.00062497468210454,,
0.0596943237539813,-0.0851712898379084,-0.000474903770087742,,
0.0599340599939572,-0.13845793278791,-0.00155324071008511,,
0.060173796233933,-0.18965042754226,-0.00260711027774141,,
0.0604135324739088,-0.238054103885347,-0.00362602015294744,,
0.0606532687138846,-0.282840164032629,-0.00457218215962829,,
0.0608930049538605,-0.323754460344248,-0.00547316906823125,,
0.0611327411938363,-0.359999529277454,-0.00630067474138762,,
0.0613724774338121,-0.391154343542672,-0.00705780153418667,,
0.061612213673788,-0.416856007249127,-0.00764322917681026,,
0.0618519499137638,-0.43630081836249,-0.00817182544752315,,
0.0620916861537396,-0.449871806087265,-0.00859249201707302,,
0.0623314223937154,-0.456589810813489,-0.00885213433753185,,
0.0625711586336913,-0.456810710128914,-0.00901689541060557,,
0.0628108948736671,-0.450620141508839,-0.0090425419517528,,
0.0630506311136429,-0.438016403546469,-0.00897138558073785,,
0.0632903673536188,-0.419315957905494,-0.00869384880308655,,
0.0635301035935946,-0.394461878350265,-0.00835850688831785,,
0.0637698398335704,-0.363852081394734,-0.00788327447247239,,
0.0640095760735463,-0.328243338602496,-0.00729059075754668,,
0.0642493123135221,-0.287704486056759,-0.00660679000636444,,
0.0644890485534979,-0.24336185505517,-0.00580235191806411,,
0.0647287847934737,-0.195377291919012,-0.00491301063273708,,
0.0649685210334496,-0.144665586367875,-0.00397946192850673,,
0.0652082572734254,-0.0917259595119061,-0.00303702761676039,,
0.0654479935134012,-0.0375409737746575,-0.00197917626231137,,
0.0656877297533771,0.0171626574669711,-0.00091580183332729,,
0.0659274659933529,0.0717035207919708,0.000173914466022218,,
0.0661672022333287,0.125333280778768,0.00127880933054048,,
0.0664069384733045,0.176963356092957,0.0023198769287367,,
0.0666466747132804,0.22624173275805,0.0033438366894476,,
0.0668864109532562,0.271947474169455,0.00434717697189413,,
0.067126147193232,0.314010220067044,0.00527169704684294,,
0.0673658834332078,0.351269327449491,0.00611781685053936,,
0.0676056196731837,0.383827731427833,0.00685244358101755,,
0.0678453559131595,0.410514296992182,0.00754232275720446,,
0.0680850921531353,0.431076932369222,0.00808710787448863,,
0.0683248283931112,0.446327775735302,0.00851582322207989,,
0.068564564633087,0.455014591690017,0.00880749024579375,,
0.0688043008730628,0.456865438714122,0.00901016121559417,,
0.0690440371130387,0.452470421397346,0.00904189683230294,,
0.0692837733530145,0.441462319439976,0.00899155012806974,,
0.0695235095929903,0.424382463770315,0.0088035556257533,,
0.0697632458329661,0.401046251751208,0.00845707474991775,,
0.070002982072942,0.371975448132827,0.00801781230792464,,
0.0702427183129178,0.337929163913105,0.00746848701036162,,
0.0704824545528936,0.299038690982984,0.00679622081236175,,
0.0707221907928695,0.255555837547978,0.00603302015908191,,
0.0709619270328453,0.208382349208924,0.0051941731642775,,
0.0712016632728211,0.158221190539554,0.00423440583184087,,
0.0714413995127969,0.105886484690813,0.00324274768886568,,
0.0716811357527728,0.0519309053029589,0.00222610333927475,,
0.0719208719927486,-0.00264994108170056,0.00114640160647905,,
0.0721606082327244,-0.0572246198667316,8.00069838442496E-05,,
0.0724003444727002,-0.111347787823797,-0.00102089544332395,,
0.0726400807126761,-0.163749132105305,-0.00206905631245258,,
0.0728798169526519,-0.213705980175492,-0.00311116766523023,,
0.0731195531926277,-0.260286032003178,-0.00412281386059332,,
0.0733592894326036,-0.303521047181854,-0.00502662468829795,,
0.0735990256725794,-0.342249319330944,-0.00591107128195034,,
0.0738387619125552,-0.376226980143307,-0.00665988455429201,,
0.0740784981525311,-0.404321176261916,-0.00733672440575006,,
0.0743182343925069,-0.426928619037579,-0.00794240636468535,,
0.0745579706324827,-0.443732563238809,-0.00838372892869454,,
0.0747977068724585,-0.454027137721933,-0.00872918430804637,,
0.0750374431124344,-0.457616326245887,-0.00893446618580862,,
0.0752771793524102,-0.454724501831635,-0.00905729449464321,,
0.075516915592386,-0.445264112921235,-0.00902148427914495,,
0.0757566518323619,-0.429818742045037,-0.00885058848526521,,
0.0759963880723377,-0.407963675532083,-0.00855578106875798,,
0.0762361243123135,-0.380125186676227,-0.00812022806360169,,
0.0764758605522893,-0.347186801847217,-0.00760520212395699,,
0.0767155967922652,-0.308989014158115,-0.00698730245468671,,
0.076955333032241,-0.266687007930115,-0.00621217317761769,,
0.0771950692722168,-0.220394848310368,-0.00538244001655031,,
0.0774348055121927,-0.170866896536177,-0.00449096709832375,,
0.0776745417521685,-0.119098759149847,-0.00351960130936346,,
0.0779142779921443,-0.065375705357177,-0.00250620537964386,,
0.0781540142321201,-0.0108263349982071,-0.00142640779183534,,
0.078393750472096,0.0437525264118593,-0.000391745742893246,,
0.0786334867120718,0.0981331739304213,0.000719636832318571,,
0.0788732229520476,0.150709195976116,0.00178179557630154,,
0.0791129591920234,0.201313003979732,0.00283078414585614,,
