Time domain (s),Current (AC) (A),Potential (AC) (V),Frequency (Hz),Column 5
0,0.210716395762533,0.0067935952652336,0.19953,0.5
0.0122357853455621,0.20434547802229,0.00662492822907446,,
0.0244715706911241,0.19801085696032,0.00647787248178133,,
0.0367073560366862,0.191586947487639,0.00632611504187253,,
0.0489431413822483,0.185122984063348,0.00615584778050726,,
0.0611789267278103,0.178711516127848,0.00598932950035946,,
0.0734147120733724,0.172127957984326,0.0058291007651583,,
0.0856504974189345,0.165614972776782,0.00565548870316857,,
0.0978862827644966,0.158978600130696,0.00547231653286007,,
0.110122068110059,0.152275624497819,0.00530601271588438,,
0.122357853455621,0.145646376492683,0.00513031788655161,,
0.134593638801183,0.138926386791866,0.00492169471174053,,
0.146829424146745,0.132179458150143,0.00476009258738053,,
0.159065209492307,0.125342354948336,0.00460376130790063,,
0.171300994837869,0.118535912514797,0.00444377178162192,,
0.183536780183431,0.111746980392846,0.00423247606574506,,
0.195772565528993,0.104851745792244,0.00405174960045507,,
0.208008350874555,0.0979808980223556,0.00386922906824561,,
0.220244136220117,0.0910113686584138,0.00369412813692804,,
0.232479921565679,0.0840778524049456,0.00353116499628436,,
0.244715706911241,0.0770606836507709,0.00336082762195877,,
0.256951492256803,0.0701135915889254,0.00316727048497745,,
0.269187277602366,0.0631187892448972,0.00297768504096929,,
0.281423062947928,0.0561986006779823,0.00280971088582715,,
0.29365884829349,0.0491023165078852,0.00260572753925548,,
0.305894633639052,0.0420383945128497,0.00239328939455863,,
0.318130418984614,0.0350586212621688,0.00223658280452765,,
0.330366204330176,0.0279711276938409,0.00203064866794911,,
0.342601989675738,0.0209491382870832,0.00185830276353283,,
0.3548377750213,0.013832685357282,0.00164750608695963,,
0.367073560366862,0.00679286662516179,0.00147129159686443,,
0.379309345712424,-0.000291791265176016,0.00127519389615349,,
0.391545131057986,-0.00738913881451929,0.00107367687605953,,
0.403780916403548,-0.0144923703956919,0.000904997467024771,,
0.41601670174911,-0.0216302681402929,0.00070195445897614,,
0.428252487094672,-0.0286475077864173,0.000499105292640856,,
0.440488272440234,-0.0356578000214661,0.000330021703013106,,
0.452724057785797,-0.042746711428789,0.000125506322802948,,
0.464959843131359,-0.0498124411685432,-8.2308490821692E-05,,
0.477195628476921,-0.0568003315474706,-0.000229463221117054,,
0.489431413822483,-0.0638407528611636,-0.000425449565949698,,
0.501667199168045,-0.0708806070392587,-0.000613434784752176,,
0.513902984513607,-0.0777987397396309,-0.000807903390214193,,
0.526138769859169,-0.0848021554555538,-0.000980546243638081,,
0.538374555204731,-0.0917270937831021,-0.00119339269321994,,
0.550610340550293,-0.0986830118926917,-0.00138484025496188,,
0.562846125895855,-0.105584768552671,-0.00156776290561833,,
0.575081911241417,-0.112499569331405,-0.00177607263425505,,
0.587317696586979,-0.119324124658106,-0.00195254283044033,,
0.599553481932541,-0.126145702522917,-0.00213460556626321,,
0.611789267278103,-0.1328756170967,-0.00232259078506525,,
0.624025052623666,-0.139662245230283,-0.00254776061845119,,
0.636260837969228,-0.146429307185736,-0.00269514630908585,,
0.64849662331479,-0.153029064139775,-0.0029005360391503,,
0.660732408660352,-0.159746289054552,-0.00310109209926246,,
0.672968194005914,-0.166342572303054,-0.00325002852360212,,
0.685203979351476,-0.172845632637633,-0.00344952876502136,,
0.697439764697038,-0.179352450245548,-0.00363156056865632,,
0.7096755500426,-0.186015088359017,-0.00379987910216117,,
0.721911335388162,-0.192379484039883,-0.00396330003919099,,
0.734147120733724,-0.198640093906312,-0.00415105429765417,,
0.746382906079286,-0.205125005901755,-0.00434846146100121,,
0.758618691424848,-0.211175775596921,-0.00451191333021939,,
0.77085447677041,-0.217532585839163,-0.00470245354777221,,
0.783090262115972,-0.223851823348037,-0.00487810094774899,,
0.795326047461534,-0.22996320566024,-0.00504818674027652,,
0.807561832807097,-0.236057148552805,-0.00523061035162931,,
0.819797618152659,-0.242059428154341,-0.00541572712550664,,
0.832033403498221,-0.248000669787141,-0.0056004788995625,,
0.844269188843783,-0.253883921805045,-0.00573629801393238,,
0.856504974189345,-0.259781564888749,-0.00591018021703293,,
0.868740759534907,-0.265712881648584,-0.00608445628999732,,
0.880976544880469,-0.271307178079302,-0.00624609347083727,,
0.893212330226031,-0.276933163211558,-0.00641411917962653,,
0.905448115571593,-0.282685336014372,-0.00657363028805991,,
0.917683900917155,-0.288148269662201,-0.00675122229160596,,
0.929919686262717,-0.293409303037139,-0.00688790132080941,,
0.942155471608279,-0.299137868820685,-0.00706046168839825,,
0.954391256953841,-0.304206146984249,-0.00719879043430938,,
0.966627042299403,-0.309780522777087,-0.00734757838414479,,
0.978862827644966,-0.314733885090104,-0.00751400180558193,,
0.991098612990528,-0.319831512520865,-0.00765892941832247,,
1.00333439833609,-0.325126006896085,-0.00780664505229867,,
1.01557018368165,-0.330017126077221,-0.00794893311830736,,
1.02780596902721,-0.334914271074085,-0.00809714366729519,,
1.04004175437278,-0.339688985673729,-0.00826708098531936,,
1.05227753971834,-0.344298663814353,-0.00839758801189161,,
1.0645133250639,-0.349292930782376,-0.0085275877505766,,
1.07674911040946,-0.353556301748465,-0.00865976305316929,,
1.08898489575502,-0.357927499370125,-0.00880432772823392,,
1.10122068110059,-0.362507190216004,-0.00892911229997795,,
1.11345646644615,-0.36675978560573,-0.00907390793538188,,
1.12569225179171,-0.370921710191724,-0.00919451872385579,,
1.13792803713727,-0.375065202870784,-0.00932202532816673,,
1.15016382248283,-0.37915822048162,-0.00945540492395569,,
1.1623996078284,-0.383203882270023,-0.00956042382739986,,
1.17463539317396,-0.386905859886031,-0.0096905885377554,,
1.18687117851952,-0.390591674137497,-0.00983629151734799,,
1.19910696386508,-0.394608412010401,-0.00994014118407582,,
1.21134274921064,-0.398161445639982,-0.0100627955591213,,
1.22357853455621,-0.401480181375636,-0.0101740545160105,,
1.23581431990177,-0.404908161605856,-0.0102645414774085,,
1.24805010524733,-0.408194995964121,-0.0103776955463655,,
1.26028589059289,-0.411383148728333,-0.0104785262315188,,
1.27252167593846,-0.414325731778607,-0.0105888922792401,,
1.28475746128402,-0.417567762424629,-0.0106740836500077,,
1.29699324662958,-0.420506729985466,-0.0107799789654521,,
1.30922903197514,-0.423468808321921,-0.010864295986365,,
1.3214648173207,-0.425981219021104,-0.0109668093825595,,
1.33370060266627,-0.428491644745694,-0.011055663124417,,
1.34593638801183,-0.431424302923003,-0.0111366621526021,,
1.35817217335739,-0.433754946663024,-0.0112076515246651,,
1.37040795870295,-0.435802518847688,-0.0113193703400865,,
1.38264374404851,-0.438301956320067,-0.0113737285055935,,
1.39487952939408,-0.440032074353745,-0.0114597447347147,,
1.40711531473964,-0.442201013556384,-0.011512948098527,,
1.4193511000852,-0.443774885732811,-0.0116133168630017,,
1.43158688543076,-0.445972465283149,-0.0116656933063144,,
1.44382267077632,-0.447813954569886,-0.0117404605296372,,
1.45605845612189,-0.449107590868947,-0.0117853348862229,,
1.46829424146745,-0.450867412629571,-0.0118593391155684,,
1.48053002681301,-0.452176078021979,-0.0119304419056552,,
1.49276581215857,-0.453451565981902,-0.0119817151009194,,
1.50500159750413,-0.454478932117697,-0.0120174149704666,,
1.5172373828497,-0.455698840789016,-0.0120801701940141,,
1.52947316819526,-0.456519485999336,-0.0121339674558407,,
1.54170895354082,-0.457480497270164,-0.0121504316285801,,
1.55394473888638,-0.457945548460532,-0.0121886390675221,,
1.56618052423194,-0.459039836596892,-0.0122525965221203,,
1.57841630957751,-0.459254780988537,-0.0122842071563789,,
1.59065209492307,-0.459660566508913,-0.0122910060513588,,
1.60288788026863,-0.46017155568272,-0.0123236848771855,,
1.61512366561419,-0.460252159829587,-0.012364220478831,,
1.62735945095976,-0.459948671392702,-0.0123690355894706,,
1.63959523630532,-0.460332905760354,-0.012401042155739,,
1.65183102165088,-0.460083933232827,-0.0124193684462117,,
1.66406680699644,-0.459798947594828,-0.012438719623189,,
1.676302592342,-0.459653760881737,-0.0124503666231428,,
1.68853837768757,-0.459224155666245,-0.0124553817619333,,
1.70077416303313,-0.458546499518573,-0.0124654780281821,,
1.71300994837869,-0.45801445543569,-0.0124402559218728,,
1.72524573372425,-0.457372174370944,-0.0124578893313285,,
1.73748151906981,-0.456439023636369,-0.0124621950919344,,
1.74971730441538,-0.455365081489587,-0.0124533361132162,,
1.76195308976094,-0.454197561969135,-0.0124451370211807,,
1.7741888751065,-0.452904847265421,-0.012411600342666,,
1.78642466045206,-0.451176501530486,-0.0123960579491369,,
1.79866044579762,-0.449921430452091,-0.012398796478871,,
1.81089623114319,-0.448453683524441,-0.0123756860099471,,
1.82313201648875,-0.447056828546543,-0.012366627003078,,
1.83536780183431,-0.445442760634608,-0.0123450177763575,,
1.84760358717987,-0.443555120688582,-0.0123023375429927,,
1.85983937252543,-0.441545688372884,-0.01225677030539,,
1.872075157871,-0.439393975914035,-0.0122142921623216,,
1.88431094321656,-0.437435373126308,-0.0121735771539839,,
1.89654672856212,-0.43480471465494,-0.0121214935353873,,
1.90878251390768,-0.432896799611285,-0.0121234917547492,,
1.92101829925325,-0.43030506082033,-0.0120423236306015,,
1.93325408459881,-0.427807679214495,-0.0120062793826921,,
1.94548986994437,-0.425228984542294,-0.0119453883390239,,
1.95772565528993,-0.422313836676574,-0.0119110247400096,,
1.96996144063549,-0.419422295830121,-0.0118558912076501,,
1.98219722598106,-0.416380393158246,-0.0118021764316589,,
1.99443301132662,-0.413244487761001,-0.0117118523797859,,
2.00666879667218,-0.410358901838328,-0.0116481753770281,,
2.01890458201774,-0.407178688972488,-0.011583207470947,,
2.0311403673633,-0.403620480230575,-0.0114931514980388,,
2.04337615270887,-0.400553978052136,-0.0114447818041792,,
2.05561193805443,-0.396898789122963,-0.0113753782223012,,
2.06784772339999,-0.392783298764056,-0.0112921500144152,,
2.08008350874555,-0.389221545424655,-0.0112070596887963,,
2.09231929409111,-0.385596910925825,-0.0111118524754694,,
2.10455507943668,-0.38156599466297,-0.0110263476585275,,
2.11679086478224,-0.377377414703869,-0.0109733092663862,,
2.1290266501278,-0.373532802484961,-0.0108793414027359,,
2.14126243547336,-0.369623253240081,-0.0107691733210191,,
2.15349822081892,-0.365183219535213,-0.0106593021883099,,
2.16573400616449,-0.360921620867868,-0.0105518561391604,,
2.17796979151005,-0.356515048163282,-0.0104579542641781,,
2.19020557685561,-0.352079764219047,-0.0103713441370421,,
2.20244136220117,-0.347520277578847,-0.0102509808060742,,
2.21467714754673,-0.342668928781522,-0.0101670782764844,,
2.2269129328923,-0.337678489978785,-0.0100324098395177,,
2.23914871823786,-0.332781912117518,-0.00988896697181385,,
2.25138450358342,-0.328152880474613,-0.00978221380368138,,
2.26362028892898,-0.32303015729364,-0.00968021388181173,,
2.27585607427454,-0.318076865872573,-0.00958555107499848,,
2.28809185962011,-0.31305091020301,-0.00944582006988615,,
2.30032764496567,-0.307824755667351,-0.00929840138491755,,
2.31256343031123,-0.302337080729059,-0.00916075108500225,,
2.32479921565679,-0.296886411388537,-0.00904162504156458,,
2.33703500100236,-0.291765247830458,-0.00890367366835054,,
2.34927078634792,-0.286126431255297,-0.00878268344503352,,
2.36150657169348,-0.280725315387651,-0.00863557820623928,,
2.37374235703904,-0.274850145052018,-0.00850192022075591,,
2.3859781423846,-0.269178434612172,-0.00840649854425735,,
2.39821392773017,-0.263510197877864,-0.00823360823332697,,
2.41044971307573,-0.25772938472735,-0.00810415496330164,,
2.42268549842129,-0.251709807490075,-0.00792451731103849,,
2.43492128376685,-0.245763674312742,-0.00778541113612885,,
2.44715706911241,-0.239826898872775,-0.00764688854850482,,
2.45939285445798,-0.233887571322618,-0.00747967120090198,,
2.47162863980354,-0.227585560557534,-0.00733762853025377,,
2.4838644251491,-0.221543014328539,-0.0071552544104021,,
2.49610021049466,-0.215356486549599,-0.00701672769848649,,
2.50833599584022,-0.209023496002474,-0.00690741953160323,,
2.52057178118579,-0.202718933127198,-0.00669856333430729,,
2.53280756653135,-0.196272586352421,-0.00653050669332966,,
2.54504335187691,-0.18998957462987,-0.00638020100412318,,
2.55727913722247,-0.183582927346952,-0.00620633736033582,,
2.56951492256803,-0.177091564184083,-0.00604402173350005,,
2.5817507079136,-0.170383129871074,-0.00587533820017372,,
2.59398649325916,-0.163932813147111,-0.00570988811159401,,
2.60622227860472,-0.157318877803121,-0.0055491892071311,,
2.61845806395028,-0.150614484331249,-0.00539477778546926,,
2.63069384929584,-0.143930295065055,-0.00519713966178292,,
2.64292963464141,-0.137174504929614,-0.00498528304222567,,
2.65516541998697,-0.130495916127451,-0.00483836133441518,,
2.66740120533253,-0.123610889967612,-0.00466828997690882,,
2.67963699067809,-0.116864244893688,-0.004488553341643,,
2.69187277602366,-0.109943772758974,-0.0043217669825304,,
2.70410856136922,-0.103143533371038,-0.00411086719866294,,
2.71634434671478,-0.0961305472418991,-0.00395523292449207,,
2.72858013206034,-0.0892104295669338,-0.00377310420000088,,
2.7408159174059,-0.08234121231189,-0.00360638176741013,,
2.75305170275147,-0.0752903698815835,-0.00339686980772314,,
2.76528748809703,-0.0683515367318839,-0.00321832096848684,,
2.77752327344259,-0.0612994182464819,-0.00304650297341658,,
2.78975905878815,-0.0543633498828227,-0.00287867729277824,,
2.80199484413371,-0.0472308399264028,-0.00267409592389978,,
2.81423062947928,-0.0402606725349132,-0.00249119183255608,,
2.82646641482484,-0.0331947301193097,-0.00228649498350864,,
2.8387022001704,-0.0261772777973361,-0.00209021168966839,,
2.85093798551596,-0.0190262650420311,-0.00192499256142753,,
2.86317377086152,-0.0119608897620257,-0.00171627040361377,,
2.87540955620709,-0.00491139427876444,-0.0015343396451275,,
2.88764534155265,0.0022492243357318,-0.00136464978460982,,
2.89988112689821,0.00932115712108927,-0.00114530345120079,,
2.91211691224377,0.0163686676297574,-0.000950323433559497,,
2.92435269758933,0.0234280879859838,-0.000770568238980918,,
2.9365884829349,0.0304957318083813,-0.000578741242396319,,
2.94882426828046,0.0375537343256127,-0.000387572070349229,,
2.96106005362602,0.0446347058345634,-0.000211332834503253,,
2.97329583897158,0.051647621071753,-1.89098777583219E-05,,
2.98553162431715,0.0586378508850222,0.000187387196495692,,
2.99776740966271,0.0656402741136486,0.00037370620142374,,
3.01000319500827,0.0726401806780588,0.000559117862162228,,
3.02223898035383,0.0795751147705221,0.000741828111793019,,
3.03447476569939,0.0865346838155238,0.000936193609960778,,
3.04671055104496,0.0935368234763512,0.00111173584049773,,
3.05894633639052,0.100365419644188,0.0013215674327971,,
3.07118212173608,0.107341506513481,0.00150247124263325,,
3.08341790708164,0.11405692368354,0.00170013204992392,,
3.0956536924272,0.121038930030638,0.0019072993497411,,
3.10788947777277,0.12789730081737,0.00205044526843734,,
3.12012526311833,0.134498156596631,0.00225609895317547,,
3.13236104846389,0.141197764861895,0.00244543693967758,,
3.14459683380945,0.147999705656625,0.00263680407773004,,
3.15683261915501,0.154665817475631,0.00281721709684568,,
3.16906840450058,0.161354579272583,0.0030104319176103,,
3.18130418984614,0.167846615908976,0.00319485374832462,,
3.1935399751917,0.174500250744826,0.00336754609324963,,
3.20577576053726,0.180970381768746,0.00354861487475633,,
3.21801154588282,0.1875871882367,0.00372901552099636,,
3.23024733122839,0.193962394939903,0.00394107423085099,,
3.24248311657395,0.200379782353207,0.0041025278807072,,
3.25471890191951,0.206607214787153,0.00427709677838672,,
3.26695468726507,0.212851944856839,0.0044748524443885,,
3.27919047261063,0.21900228229543,0.00465797099890386,,
3.2914262579562,0.225370328911708,0.00479542539496025,,
3.30366204330176,0.231403552849311,0.00500601173265292,,
3.31589782864732,0.237575086980878,0.00516243787084392,,
3.32813361399288,0.243676296298292,0.00533331552739069,,
3.34036939933844,0.249425420747266,0.00553400356483991,,
3.35260518468401,0.255473000304694,0.00568357925440299,,
3.36484097002957,0.261244207596016,0.005871321139991,,
3.37707675537513,0.266981634873281,0.00603680422290509,,
3.38931254072069,0.272622046517312,0.00620558673923366,,
3.40154832606626,0.278259409807504,0.00636511434483422,,
3.41378411141182,0.284055535619164,0.0064913836616145,,
3.42601989675738,0.289679216763054,0.00665887939891174,,
3.43825568210294,0.294948225482338,0.00684458800865784,,
3.4504914674485,0.300158216653455,0.00698499539761999,,
3.46272725279407,0.305699982149407,0.0071514518133915,,
3.47496303813963,0.310852976192924,0.00731229919235776,,
3.48719882348519,0.31599179184649,0.0074559070317326,,
3.49943460883075,0.321077580321642,0.00758397041543235,,
3.51167039417631,0.32589397938774,0.00776697761406986,,
3.52390617952188,0.331018616651356,0.00793968645616205,,
3.53614196486744,0.335850895514198,0.00805745973189964,,
3.548377750213,0.340663608198909,0.00821064005246885,,
3.56061353555856,0.345506662638113,0.00834691902537088,,
3.57284932090412,0.34993315598058,0.00847772506309674,,
3.58508510624969,0.354279116068128,0.00861704363903204,,
3.59732089159525,0.358925658022622,0.00874458323767691,,
3.60955667694081,0.363058375125319,0.00888487102217805,,
3.62179246228637,0.367733557427513,0.00901325610063575,,
3.63402824763193,0.371734131935873,0.00913954603887479,,
3.6462640329775,0.375837357987474,0.00927503727204959,,
3.65849981832306,0.379596899866681,0.00940252325490132,,
3.67073560366862,0.383469868865489,0.00954368951354923,,
3.68297138901418,0.387643703299042,0.00964479652625094,,
3.69520717435974,0.391190569328995,0.00976143562175213,,
3.70744295970531,0.394860220215917,0.00989346244984102,,
3.71967874505087,0.398289972744881,0.00998167280218309,,
3.73191453039643,0.401862359876744,0.0100994419536287,,
3.74415031574199,0.405367825008043,0.0102150252304374,,
3.75638610108756,0.408662315696881,0.0103217783985698,,
3.76862188643312,0.411610853670934,0.0104314185709402,,
3.78085767177868,0.414899105868195,0.0105079984204952,,
3.79309345712424,0.418015799547057,0.0106099839073432,,
3.8053292424698,0.420684172535693,0.0107457061008569,,
3.81756502781537,0.423429392397859,0.0108550658213868,,
3.82980081316093,0.426274995260873,0.0109148350576942,,
3.84203659850649,0.428820299824741,0.0109877030446577,,
3.85427238385205,0.431067291064056,0.0110951160994732,,
3.86650816919761,0.433699934510017,0.0111813962832672,,
3.87874395454318,0.435717802967735,0.0112424358014391,,
3.89097973988874,0.438036820427997,0.0113487971618538,,
3.9032155252343,0.440087015614803,0.0114201639066134,,
3.91545131057986,0.441983800622346,0.0114983274842078,,
3.92768709592542,0.443901286079217,0.0115479468384727,,
3.93992288127099,0.44577822134083,0.0116116918920448,,
3.95215866661655,0.447389453574776,0.011675074007941,,
3.96439445196211,0.448810128247791,0.0117357010969359,,
3.97663023730767,0.450211236742674,0.0118274418430318,,
3.98886602265323,0.451644955534442,0.0118708293924348,,
4.0011018079988,0.45351480160108,0.0119201394248174,,
4.01333759334436,0.454362669320105,0.0119932177506614,,
4.02557337868992,0.455363380082793,0.0120244015207218,,
4.03780916403548,0.45629036321774,0.0120799268607996,,
4.05004494938104,0.456694730899121,0.0120973025020197,,
4.06228073472661,0.457879477163364,0.012136433782318,,
4.07451652007217,0.458268532183598,0.0121899299708454,,
4.08675230541773,0.459023389664549,0.0122288179179293,,
4.09898809076329,0.459253079581743,0.0122648642279848,,
4.11122387610886,0.459566421999644,0.0122669098767019,,
4.12345966145442,0.459677580576853,0.0123026262434163,,
4.13569544679998,0.459401952676221,0.0123357030633984,,
4.14793123214554,0.459646671686762,0.0123642802810613,,
4.1601670174911,0.459409609006794,0.0123527776313193,,
4.17240280283667,0.459035583079906,0.012368862369216,,
4.18463858818223,0.458910529680545,0.0123837923054175,,
