Time domain (s),Current (AC) (A),Potential (AC) (V),Frequency (Hz),Column 5
0,-0.0737021526090962,-0.00821151882356919,0.0079433,0.3
0.307354153815165,-0.0695056008393544,-0.00806396477496651,,
0.61470830763033,-0.0652275382316248,-0.0079354111833867,,
0.922062461445495,-0.0610365850970504,-0.00779792674435997,,
1.22941661526066,-0.0567103830436297,-0.00764645029286459,,
1.53677076907582,-0.0523891624529957,-0.00748413451294461,,
1.84412492289099,-0.0481131717811154,-0.00735324935862414,,
2.15147907670615,-0.0438076009187052,-0.00718852029923633,,
2.45883323052132,-0.0394311434000026,-0.00702956808523814,,
2.76618738433648,-0.0351114657403203,-0.00688632657099841,,
3.07354153815165,-0.0307582844371167,-0.00673898472228318,,
3.38089569196681,-0.0263976529816039,-0.00656091474821796,,
3.68824984578198,-0.0220252952508585,-0.00641138895407511,,
3.99560399959714,-0.0177096732953919,-0.00624241985096896,,
4.30295815341231,-0.0133550813124612,-0.00608673630604795,,
4.61031230722747,-0.00897209940002028,-0.00593345681451307,,
4.91766646104264,-0.00453939102719526,-0.00577227979672346,,
5.2250206148578,-0.000206664580036237,-0.00563122090989987,,
5.53237476867297,0.00421281867034619,-0.00544742681091437,,
5.83972892248813,0.00857005567776548,-0.00527140239104629,,
6.1470830763033,0.012962559678365,-0.00512690744765631,,
6.45443723011846,0.0173108036025234,-0.00491183956646735,,
6.76179138393363,0.0216842634268056,-0.00476428551786423,,
7.06914553774879,0.0260030373697876,-0.00457984822915769,,
7.37649969156396,0.0304133512019432,-0.00439241641781196,,
7.68385384537912,0.0346939045410662,-0.00425838912353971,,
7.99120799919429,0.0390128768608849,-0.00405582917361791,,
8.29856215300945,0.0433445452982486,-0.00388935638471866,,
8.60591630682462,0.0477061906798154,-0.00370008067497052,,
8.91327046063978,0.051982489937886,-0.00352747385950458,,
9.22062461445495,0.0562990156100529,-0.00334154985357227,,
9.52797876827011,0.0604985871160857,-0.00316923695472093,,
9.83533292208528,0.0648914217447463,-0.00299765555237652,,
10.1426870759004,0.0690945640338387,-0.00279434301776016,,
10.4500412297156,0.0732347326982336,-0.00264359410873638,,
10.7573953835308,0.0774692405693856,-0.00241667466611917,,
11.0647495373459,0.0817587649498988,-0.002261117650324,,
11.3721036911611,0.0859655882314044,-0.00204885449808501,,
11.6794578449763,0.0900863820914209,-0.00188370103892233,,
11.9868119987914,0.0942279393936722,-0.00168725666340341,,
12.2941661526066,0.0982866413038207,-0.00149992765697249,,
12.6015203064218,0.102346930228662,-0.00131469165316034,,
12.9088744602369,0.1064387831124,-0.00111575359945837,,
13.2162286140521,0.110428714385847,-0.000949189867750277,,
13.5235827678673,0.114463963745531,-0.000718611624585197,,
13.8309369216824,0.118456716378432,-0.000574273524590385,,
14.1382910754976,0.12242725080563,-0.000352320350151647,,
14.4456452293128,0.126362341904682,-0.000184343709874746,,
14.7529993831279,0.130320731261104,8.87812697758505E-06,,
15.0603535369431,0.133995529908614,0.000208804689473041,,
15.3677076907582,0.138033776962718,0.000411443720097715,,
15.6750618445734,0.141811753607152,0.000581970713062319,,
15.9824159983886,0.145601368359335,0.000747744955747809,,
16.2897701522037,0.149261729581513,0.000970151526219709,,
16.5971243060189,0.152970935589245,0.00112319904769098,,
16.9044784598341,0.156657041716445,0.00133717034312486,,
17.2118326136492,0.160217619389793,0.00152623648900896,,
17.5191867674644,0.163765434819984,0.00171156738966527,,
17.8265409212796,0.167392667110443,0.00190539155787528,,
18.1338950750947,0.170882358127499,0.0020951114375749,,
18.4412492289099,0.174402863679846,0.00226692744600632,,
18.7486033827251,0.177847214568795,0.00246788732969394,,
19.0559575365402,0.181227379530156,0.00267692398923058,,
19.3633116903554,0.184531191451281,0.00283514866075674,,
19.6706658441706,0.187803792083442,0.00303483270909455,,
19.9780199979857,0.19116985024753,0.00321282755649133,,
20.2853741518009,0.194293800503436,0.00341490511412168,,
20.5927283056161,0.197418456099206,0.00359182446395101,,
20.9000824594312,0.200557218492248,0.00379199354060367,,
21.2074366132464,0.203584008181942,0.00396513019678313,,
21.5147907670615,0.20661926195,0.00414940668805963,,
21.8221449208767,0.209595090834549,0.00430733612495926,,
22.1294990746919,0.212578502122632,0.00447922594204719,,
22.436853228507,0.215481328331298,0.00466980252936766,,
22.7442073823222,0.218163030492724,0.00484918656112221,,
23.0515615361374,0.220919498679692,0.00504031934939064,,
23.3589156899525,0.223649516621775,0.00519092064110094,,
23.6662698437677,0.22640439779405,0.0053442212208239,,
23.9736239975829,0.228834469959134,0.00553339280764575,,
24.280978151398,0.231559021517274,0.00572766773586597,,
24.5883323052132,0.234139331073307,0.00589827117351049,,
24.8956864590284,0.236259230033371,0.00605672781509981,,
25.2030406128435,0.238676782415877,0.00621836877301662,,
25.5103947666587,0.240988004813945,0.00638317295907243,,
25.8177489204739,0.243453872977107,0.00655549244798248,,
26.125103074289,0.245575358951865,0.0067393629916479,,
26.4324572281042,0.247694905241998,0.00690275426913489,,
26.7398113819194,0.249907556394126,0.00706081023516036,,
27.0471655357345,0.252085822227904,0.00722328417648699,,
27.3545196895497,0.254132718512086,0.00737782895927763,,
27.6618738433648,0.255878434674508,0.00750605568394969,,
27.96922799718,0.257804541507047,0.00768258490230833,,
28.2765821509952,0.259519399050436,0.00783031820050617,,
28.5839363048103,0.26129861885638,0.00797981236236778,,
28.8912904586255,0.262938357704295,0.00812443515289507,,
29.1986446124407,0.264559405045825,0.00827875850971616,,
29.5059987662558,0.266165816585185,0.00841877353125398,,
29.813352920071,0.267747893899251,0.00856005120802417,,
30.1207070738862,0.269222759554049,0.0086858027066774,,
30.4280612277013,0.270606460031476,0.00884459675926852,,
30.7354153815165,0.271912749458872,0.00898935662301525,,
31.0427695353317,0.272940958645042,0.00912949817367847,,
31.3501236891468,0.274447740928668,0.00924202474268609,,
31.657477842962,0.27527281223412,0.00936842733913101,,
31.9648319967772,0.276451082476272,0.00949690712205431,,
32.2721861505923,0.277180756565171,0.00961277616879563,,
32.5795403044075,0.278317059085439,0.00973023737370049,,
32.8868944582226,0.279479988185557,0.00984705538888386,,
33.1942486120378,0.279893846350527,0.0099843922105971,,
33.501602765853,0.280834064388713,0.0101125055862608,,
33.8089569196681,0.281418791135641,0.0102144959695409,,
34.1163110734833,0.28210332347327,0.0103460546278531,,
34.4236652272985,0.282370999951508,0.0104469194291208,,
34.7310193811136,0.283081100859192,0.0105318837369413,,
35.0383735349288,0.283494253684299,0.0106990471639845,,
35.345727688744,0.283689985496449,0.010786491969871,,
35.6530818425591,0.283945847531972,0.0108592699412853,,
35.9604359963743,0.284265719160117,0.0109618639739355,,
36.2677901501895,0.284379984218021,0.0110385907084769,,
36.5751443040046,0.284312624261046,0.0111481728392917,,
36.8824984578198,0.284384216257202,0.011252211412792,,
37.189852611635,0.284254786392231,0.0113313263845787,,
37.4972067654501,0.284009680789628,0.0114132539933856,,
37.8045609192653,0.283946200201904,0.0115116514767046,,
38.1119150730805,0.283797549825649,0.0115959857749206,,
38.4192692268956,0.283379635956463,0.0116456458206837,,
38.7266233807108,0.282966130461424,0.0117281849869313,,
39.033977534526,0.282514360278786,0.0117985035484671,,
39.3413316883411,0.281971777588708,0.0118692227855672,,
39.6486858421563,0.281058538800305,0.0119607534278003,,
39.9560399959714,0.280521246159204,0.0120311774302744,,
40.2633941497866,0.279973902425047,0.0120746085526267,,
40.5707483036018,0.279183216437946,0.0121112650947137,,
40.8781024574169,0.278169114049048,0.0121992028369853,,
41.1854566112321,0.277475764963124,0.0122272158581822,,
41.4928107650473,0.276274394840439,0.0123106090960268,,
41.8001649188624,0.275190111135112,0.0123210899252615,,
42.1075190726776,0.27417318738676,0.0123553898623849,,
42.4148732264928,0.273066509140764,0.0124225873721571,,
42.7222273803079,0.271847329186523,0.0124286502260906,,
43.0295815341231,0.270447934897131,0.0125037241739294,,
43.3369356879383,0.269009570580274,0.0125457318436188,,
43.6442898417534,0.267672775203777,0.0125507930086415,,
43.9516439955686,0.266124025198267,0.0125981992543553,,
44.2589981493838,0.264664853355434,0.0126350930385528,,
44.5663523031989,0.263065671549676,0.0126317584688893,,
44.8737064570141,0.261303203565493,0.0126409740068687,,
45.1810606108292,0.259367750979761,0.0126855649795385,,
45.4884147646444,0.257923214939098,0.0126895295588065,,
45.7957689184596,0.255836643287589,0.0126979542897505,,
46.1031230722747,0.254019511463977,0.0127048633072113,,
46.4104772260899,0.252059724652951,0.0127252555846158,,
46.7178313799051,0.24978394558303,0.0127068772291268,,
47.0251855337202,0.247865773823956,0.0126895295588065,,
47.3325396875354,0.245551553731468,0.012671238192091,,
47.6398938413506,0.243369055858509,0.0126980834548998,,
47.9472479951657,0.241065592198941,0.0126842364237199,,
48.2546021489809,0.238644160447185,0.0126804300058589,,
48.5619563027961,0.236397123976706,0.0126390365296332,,
48.8693104566112,0.233845733355081,0.0126146058643042,,
49.1766646104264,0.231550557438911,0.0126041039468818,,
49.4840187642416,0.228882256734894,0.0125771637872294,,
49.7913729180567,0.226265974845817,0.0125507508322662,,
50.0987270718719,0.223677906551285,0.0125306537894883,,
50.4060812256871,0.220931665792339,0.0124889729867066,,
50.7134353795022,0.218275179531037,0.0124159656812521,,
51.0207895333174,0.215234459379036,0.0124250125137304,,
51.3281436871325,0.212410983905026,0.0123555058474167,,
51.6354978409477,0.209603554912913,0.0123388145469354,,
51.9428519947629,0.206306620055457,0.0122625807487791,,
52.250206148578,0.203496193368924,0.0122207971410826,,
52.5575603023932,0.200381059861313,0.0121645628528371,,
52.8649144562084,0.197291671258723,0.0121312435164365,,
53.1722686100235,0.194153261535613,0.0120511373998333,,
53.4796227638387,0.19103389598882,0.0119937590774102,,
53.7869769176539,0.187769230430125,0.0119196024657322,,
54.094331071469,0.184313946773291,0.0118619684490344,,
54.4016852252842,0.181025299659233,0.0117734402375103,,
54.7090393790994,0.177655185790928,0.0117126324485799,,
55.0163935329145,0.174304292433907,0.0116421161852851,,
55.3237476867297,0.170825225598547,0.0115535747936435,,
55.6311018405449,0.167279283727369,0.0114864431844581,,
55.93845599436,0.163722960135073,0.0113867988620475,,
56.2458101481752,0.160196084482082,0.0113165751973558,,
56.5531643019904,0.156527435516507,0.0112186838305393,,
56.8605184558055,0.152817502127041,0.0111214672857258,,
57.1678726096207,0.149212532126027,0.0110695903442419,,
57.4752267634358,0.145505794807817,0.0109313256422743,,
57.782580917251,0.141776684990809,0.0108417667455813,,
58.0899350710662,0.137870490784294,0.0107323506842443,,
58.3972892248813,0.134046314378794,0.0106420273407508,,
58.7046433786965,0.130105955272636,0.0105310085771562,,
59.0119975325117,0.126188651963269,0.0104211496638795,,
59.3193516863268,0.122295881256034,0.0102903607244147,,
59.626705840142,0.118392177780913,0.0101613458287311,,
59.9340599939572,0.114247953412302,0.0100793839516191,,
60.2414141477723,0.110316565347534,0.00994150938112215,,
60.5487683015875,0.106246754334534,0.0098390708738556,,
60.8561224554027,0.10223989490436,0.00973829306136187,,
61.1634766092178,0.0981392252723273,0.00961126836338266,,
61.470830763033,0.0940766219510582,0.00946498224205872,,
61.7781849168482,0.0898908045723657,0.00933189205412255,,
62.0855390706633,0.0857190719490745,0.00919023215395232,,
62.3928932244785,0.0815379935725905,0.0090321445556456,,
62.7002473782937,0.0772824797986255,0.00894100140885934,,
63.0076015321088,0.0731567926433052,0.00881571912238055,,
63.314955685924,0.0689605494597537,0.00864689763658788,,
63.6223098397391,0.0646364634259239,0.00852348429073402,,
63.9296639935543,0.0603650795050277,0.00834597710767548,,
64.2370181473695,0.0560847686264829,0.00823171076319174,,
64.5443723011846,0.0517849947760766,0.00807115584693596,,
64.8517264549998,0.0475293267090164,0.00792550764328714,,
65.159080608815,0.0431403494077349,0.00776593596377806,,
65.4664347626301,0.0388429119956269,0.00760760585131415,,
65.7737889164453,0.0344999360785749,0.00744788391846862,,
66.0811430702605,0.030197186575619,0.00729790472829217,,
66.3884972240756,0.0258136536164097,0.00714299090221848,,
66.6958513778908,0.0214619270766749,0.0069784924948828,,
67.003205531706,0.0171134847756799,0.00682636230957145,,
67.3105596855211,0.0127874370153544,0.00663728825561716,,
67.6179138393363,0.00838014291948986,0.00648594624131738,,
67.9252679931515,0.00404477144784232,0.0063049568712823,,
68.2326221469666,-0.000360781340233908,0.00615627460464285,,
68.5399763007818,-0.00470228045194652,0.00597923926978172,,
68.8473304545969,-0.0091336222287858,0.00581327259738496,,
69.1546846084121,-0.0135097270775565,0.00563549126788754,,
69.4620387622273,-0.0178687274346348,0.00547622273107562,,
69.7693929160424,-0.0222247300972928,0.0052864949433058,,
70.0767470698576,-0.0266231854029915,0.00512644087150571,,
70.3841012236728,-0.0309459489245771,0.00493061859752064,,
70.6914553774879,-0.0352564130822911,0.00476933613879327,,
70.9988095313031,-0.0396307545814028,0.00457515874344105,,
71.3061636851183,-0.0439490656450994,0.00441582430604237,,
71.6135178389334,-0.0482346665726213,0.00422562994212194,,
71.9208719927486,-0.0525860845261659,0.00403917873149995,,
72.2282261465638,-0.0569218086677452,0.00386742598763146,,
72.5355803003789,-0.0611233419002738,0.00369269980931186,,
72.8429344541941,-0.0654377735947205,0.00352005872554129,,
73.1502886080093,-0.0697383629943441,0.00330945363205215,,
73.4576427618244,-0.073888185998122,0.00311576126501434,,
73.7649969156396,-0.0781146265445841,0.0029157898901202,,
74.0723510694548,-0.0823229927570413,0.00277326537425893,,
74.3797052232699,-0.0864736092681658,0.00252929876799435,,
74.6870593770851,-0.0906199496563672,0.00236948984637486,,
74.9944135309002,-0.0948053923232573,0.00217815672032451,,
75.3017676847154,-0.0989009923250206,0.00199828502423172,,
75.6091218385306,-0.103028112201939,0.00178902693872551,,
75.9164759923457,-0.107012400756477,0.00158652761734324,,
76.2238301461609,-0.111061933248399,0.00141892924643106,,
76.5311842999761,-0.115147967078262,0.00123970074006019,,
76.8385384537912,-0.119029408263938,0.00103103312380659,,
77.1458926076064,-0.123037942876288,0.000839834434951836,,
77.4532467614216,-0.127047050577277,0.000641797901269836,,
77.7606009152367,-0.130740871359234,0.000481720105258709,,
78.0679550690519,-0.134607941245189,0.000281875259489972,,
78.3753092228671,-0.138711784906609,7.23852039201667E-05,,
78.6826633766822,-0.142297336019503,-0.000104975679836805,,
78.9900175304974,-0.145967660167254,-0.000280346365889805,,
79.2973716843126,-0.149862150140407,-0.000480694692137185,,
79.6047258381277,-0.153497648132392,-0.000697027864581479,,
79.9120799919429,-0.157305778055995,-0.000862327623045722,,
80.2194341457581,-0.160706574208366,-0.00107130101801989,,
80.5267882995732,-0.164400615409031,-0.00123901669197535,,
80.8341424533884,-0.167782896389982,-0.00144074497649838,,
81.1414966072036,-0.171473058221397,-0.00164275926956581,,
81.4488507610187,-0.174943154015368,-0.0017915680653311,,
81.7562049148339,-0.178353295920931,-0.00200217579484363,,
82.063559068649,-0.181649878108455,-0.002201647643294,,
82.3709132224642,-0.184966209812159,-0.00238691923342271,,
82.6782673762794,-0.188371943343575,-0.0025777989634399,,
82.9856215300945,-0.191524283528992,-0.00275314724329334,,
83.2929756839097,-0.194903037810625,-0.00294114843570359,,
83.6003298377249,-0.197917484052707,-0.00313164857834414,,
83.90768399154,-0.201241927164842,-0.003321758589514,,
84.2150381453552,-0.204188837114984,-0.00349841433699849,,
84.5223922991704,-0.207366393200524,-0.003656914472975,,
84.8297464529855,-0.210168311724953,-0.00386693041522301,,
85.1371006068007,-0.213256818652713,-0.00401467557552637,,
85.4444547606159,-0.215985514082551,-0.00420017649969484,,
85.751808914431,-0.218845623145728,-0.00439357626812997,,
86.0591630682462,-0.221439863164066,-0.00457209832021643,,
86.3665172220613,-0.224308833059279,-0.00473878067297973,,
86.6738713758765,-0.227024259282934,-0.00492988973703712,,
86.9812255296917,-0.229647726821871,-0.00510675768440905,,
87.2885796835069,-0.232121177388567,-0.0052649823559352,,
87.595933837322,-0.234643472740818,-0.00547043402358094,,
87.9032879911372,-0.237004950604168,-0.00559938829072504,,
88.2106421449523,-0.239521779572476,-0.00576290609733743,,
88.5179962987675,-0.24177763279125,-0.00594264072021078,,
88.8253504525827,-0.244122182497873,-0.00612192194705052,,
89.1327046063978,-0.246169740038177,-0.00627342871281611,,
89.440058760213,-0.248702306902191,-0.00644154506233585,,
89.7474129140282,-0.250599847470254,-0.00660014932123865,,
90.0547670678433,-0.252654855162867,-0.00675700457858319,,
90.3621212216585,-0.254644795253063,-0.00690384031079594,,
90.6694753754737,-0.256551284820645,-0.00705955548799864,,
90.9768295292888,-0.258278177225457,-0.00721546045888921,,
91.284183683104,-0.260227560273496,-0.00736593390346263,,
91.5915378369192,-0.262254574790272,-0.00749962378673352,,
91.8988919907343,-0.26365626143422,-0.0076937721858279,,
92.2062461445495,-0.265574565444518,-0.00781902547604885,,
92.5136002983647,-0.266739786899194,-0.007965293145209,,
92.8209544521798,-0.268409855361244,-0.00812385522773651,,
93.128308605995,-0.269826133723621,-0.00822661796588742,,
93.4356627598101,-0.27133926406602,-0.00839799112237927,,
93.7430169136253,-0.272551963710264,-0.0085293085845457,,
94.0503710674405,-0.273596924718195,-0.00865987478002905,,
94.3577252212556,-0.274807816929038,-0.00877578468513418,,
94.6650793750708,-0.275861242015332,-0.00893148141017219,,
94.972433528886,-0.276855594888049,-0.00906543225976453,,
95.2797876827011,-0.277942170947933,-0.00919185726240901,,
95.5871418365163,-0.278882565321084,-0.00927344614220305,,
95.8944959903315,-0.279776539514462,-0.00944799307092792,,
96.2018501441466,-0.280380530856415,-0.00952737032704754,,
96.5092042979618,-0.281461464197389,-0.00965698755408928,,
96.816558451777,-0.281976538632787,-0.00980479334293172,,
97.1239126055921,-0.282440960849229,-0.00989828914064628,,
97.4312667594073,-0.283285164498481,-0.0100195883956933,,
97.7386209132225,-0.283571488399363,-0.0100943236145188,,
98.0459750670376,-0.283741166720302,-0.0102433867865468,,
98.3533292208528,-0.28436891919891,-0.0103228154451238,,
98.660683374668,-0.284477850124096,-0.0104400868563399,,
98.9680375284831,-0.284576112783844,-0.0105008313807078,,
99.2753916822983,-0.284697739826575,-0.0106607009308664,,
99.5827458361134,-0.284855559621056,-0.0107152349839876,,
99.8900999899286,-0.284721545046971,-0.0107693261851689,,
100.197454143744,-0.284658240794213,-0.0108896777897858,,
100.504808297559,-0.284516643816594,-0.0109527512408714,,
100.812162451374,-0.284518583501219,-0.011073344041634,,
101.119516605189,-0.283997690011947,-0.0111404993750304,,
101.426870759004,-0.28362725433233,-0.0112252211686941,,
101.73422491282,-0.283478559872334,-0.0112755270402021,,
102.041579066635,-0.282703920367129,-0.0113770455752849,,
102.34893322045,-0.282381756384428,-0.0114300191025238,,
102.656287374265,-0.281679766885175,-0.0115033005544172,,
102.96364152808,-0.281070529577986,-0.0115579084161945,,
103.270995681895,-0.280127490180347,-0.0116228811221752,,
103.578349835711,-0.279518076538192,-0.0116801671837772,,
103.885703989526,-0.278451602664421,-0.011716322881409,,
104.193058143341,-0.277391653184389,-0.011786736339789,,
104.500412297156,-0.276422163541864,-0.0118300198448282,,
104.807766450971,-0.27541445329548,-0.0119273101982982,,
105.115120604786,-0.274381967986387,-0.0119298196926221,,
105.422474758602,-0.27307268086457,-0.0119743684889166,,
105.729828912417,-0.271889517327115,-0.0119918822287146,,
106.037183066232,-0.270501320308057,-0.0120537338829312,,
