Time domain (s),Current (AC) (A),Potential (AC) (V),Frequency (Hz),Column 5
0,-0.329254364143873,-0.00582099406877257,630.96,0.5
4.95277038164067E-05,-0.261408216121765,-0.00480205593195127,,
9.90554076328135E-05,-0.183700430753665,-0.0036412965020709,,
0.00014858311144922,-0.0989318071903436,-0.00234712064840092,,
0.000198110815265627,-0.0107356287485005,-0.000923078253613596,,
0.000247638519082034,0.0778633577518291,0.000510761121295111,,
0.00029716622289844,0.164907329334366,0.00193030090754487,,
0.000346693926714847,0.245021471044821,0.00328814408096756,,
0.000396221630531254,0.315329838265688,0.00452498236891596,,
0.000445749334347661,0.373259620356595,0.00557894949505355,,
0.000495277038164067,0.416877168496128,0.00640191322666794,,
0.000544804741980474,0.444651216569661,0.00696610095225925,,
0.000594332445796881,0.455252115167659,0.00729389520412216,,
0.000643860149613288,0.448297047761466,0.00733038155948718,,
0.000693387853429694,0.424371298288229,0.00710097474209759,,
0.000742915557246101,0.384332375772137,0.00657871130488674,,
0.000792443261062508,0.329416352249054,0.00583001668723293,,
0.000841970964878915,0.26200665051559,0.00483326096677095,,
0.000891498668695321,0.184288337692952,0.00362480868916615,,
0.000941026372511728,0.0994984465447051,0.00232730482048993,,
0.000990554076328135,0.0115742805140574,0.000949276039711844,,
0.00104008178014454,-0.0776486260360327,-0.000516059843226113,,
0.00108960948396095,-0.164717551584882,-0.00195035165416169,,
0.00113913718777736,-0.244925270669009,-0.00328484869355972,,
0.00118866489159376,-0.315276740195324,-0.0044991173843183,,
0.00123819259541017,-0.373359081762096,-0.00555379579209436,,
0.00128772029922658,-0.417143934903042,-0.00639557042159788,,
0.00133724800304298,-0.445119599681667,-0.00695808761416705,,
0.00138677570685939,-0.456012289544841,-0.00728954920805602,,
0.0014363034106758,-0.449091817410127,-0.00730253064175201,,
0.0014858311144922,-0.424858964010567,-0.00709058176451727,,
0.00153535881830861,-0.384426449389457,-0.00657247290813068,,
0.00158488652212502,-0.32937488045845,-0.00579901611869493,,
0.00163441422594142,-0.261670232768046,-0.00482077982291251,,
0.00168394192975783,-0.183845333898957,-0.00365168512930492,,
0.00173346963357424,-0.0988441847404511,-0.00232354177084293,,
0.00178299733739064,-0.0107969502850353,-0.000935657280266344,,
0.00183252504120705,0.077972247786647,0.00050167759798514,,
0.00188205274502346,0.164891165969822,0.00194207729528451,,
0.00193158044883986,0.24497893587497,0.00328675197011519,,
0.00198110815265627,0.315232007375031,0.00451066102852504,,
0.00203063585647268,0.372993066625531,0.00555081145445513,,
0.00208016356028908,0.416755801478154,0.00640389698463206,,
0.00212969126410549,0.444918904571921,0.00700532367551787,,
0.0021792189679219,0.455204475777426,0.0072933905639383,,
0.0022287466717383,0.448215947370951,0.00734533370010793,,
0.00227827437555471,0.424479054051851,0.00711289904161516,,
0.00232780207937112,0.384296929797262,0.00656854889566638,,
0.00237732978318752,0.329374384214802,0.00580860863253507,,
0.00242685748700393,0.262032986874923,0.00483129461019205,,
0.00247638519082034,0.184101998203031,0.00364017411269613,,
0.00252591289463674,0.0994961780023131,0.00233182918075947,,
0.00257544059845315,0.0116199349296972,0.000906868862879051,,
0.00262496830226956,-0.0776565659344048,-0.000528449629809913,,
0.00267449600608596,-0.164696922027504,-0.00197189456959856,,
0.00272402370990237,-0.244826872642754,-0.00329906345046371,,
0.00277355141371878,-0.315263412508771,-0.00455687040812247,,
0.00282307911753518,-0.373066156225724,-0.00556034088827273,,
0.00287260682135159,-0.417439625225454,-0.00638949733800587,,
0.002922134525168,-0.445478880083006,-0.00696784979151754,,
0.0029716622289844,-0.455801882237979,-0.00728629514893919,,
0.00302118993280081,-0.448756640271703,-0.00733514083846298,,
0.00307071763661722,-0.424718881517859,-0.00710942746517773,,
0.00312024534043362,-0.384261129362637,-0.00658834297184496,,
0.00316977304425003,-0.329233096558947,-0.00581060544153855,,
0.00321930074806644,-0.261595087301309,-0.00481867425524873,,
0.00326882845188285,-0.183479815006039,-0.00363509943360585,,
0.00331835615569925,-0.0989598804024451,-0.00234303132277258,,
0.00336788385951566,-0.0107101785385398,-0.000946637554612551,,
0.00341741156333207,0.0779070271928759,0.000498928179052172,,
0.00346693926714847,0.164938805360055,0.00191195549672196,,
0.00351646697096488,0.244982622256358,0.0032676626500554,,
0.00356599467478129,0.315381447605107,0.00449792321422793,,
0.00361552237859769,0.373183624186462,0.00554388570296593,,
0.0036650500824141,0.4168567516146,0.00638507303570357,,
0.00371457778623051,0.444662275713822,0.00698334572544024,,
0.00376410549004691,0.455264308583016,0.00730912141656725,,
0.00381363319386332,0.44824458771865,0.0073433455917975,,
0.00386316089767973,0.424330464525172,0.00708556146475692,,
0.00391268860149613,0.384059299981696,0.00658671594228633,,
0.00396221630531254,0.32944896254594,0.00582839835836735,,
0.00401174400912895,0.262023381015731,0.00482830592220651,,
0.00406127171294535,0.18431892756927,0.00364584261407241,,
0.00411079941676176,0.0996197781167043,0.00234037761146055,,
0.00416032712057817,0.0115742805140574,0.000967460487717453,,
0.00420985482439457,-0.0776628753179327,-0.000523196586516228,,
0.00425938252821098,-0.16489478145926,-0.00195008845820377,,
0.00430891023202739,-0.244874512032987,-0.00329160043119225,,
0.00435843793584379,-0.315278158034319,-0.0045028043029034,,
0.0044079656396602,-0.373393393465775,-0.00556531550939576,,
0.00445749334347661,-0.417396310244156,-0.00640658549871542,,
0.00450702104729301,-0.445181133894051,-0.00697787298965258,,
0.00455654875110942,-0.455611041109249,-0.007284313566148,,
0.00460607645492583,-0.449003060689039,-0.00733940417794754,,
0.00465560415874223,-0.424907524996147,-0.00709032074373228,,
0.00470513186255864,-0.384624663280962,-0.00659317838188267,,
0.00475465956637505,-0.329226007363972,-0.00583300102487216,,
0.00480418727019145,-0.261414454613343,-0.00480912089452579,,
0.00485371497400786,-0.183824987909378,-0.00363659812794515,,
0.00490324267782427,-0.0988447518760491,-0.00230976204858013,,
0.00495277038164067,-0.0108172962746139,-0.000934284745973013,,
0.00500229808545708,0.0779688449730589,0.000502791286666859,,
0.00505182578927349,0.164882623489877,0.00193154945696516,,
0.00510135349308989,0.24492906338832,0.00328050487266651,,
0.0051508811969063,0.315274542544882,0.00452860185713133,,
0.00520040890072271,0.373459535654893,0.00556842165673421,,
0.00524993660453911,0.416827260563503,0.00639128098003505,,
0.00529946430835552,0.444885443571639,0.00699674479239176,,
0.00534899201217193,0.455488043576431,0.00731815273572067,,
0.00539851971598833,0.448361984787438,0.00733897784399895,,
0.00544804741980474,0.424325076736991,0.00709645038182805,,
0.00549757512362115,0.384389089331938,0.00658321826377062,,
0.00554710282743756,0.329415785113456,0.00581292417617663,,
0.00559663053125396,0.261920694026517,0.0048270356210538,,
0.00564615823507037,0.184354089976346,0.00365421703091684,,
0.00569568593888678,0.0995029836294892,0.00231792982397039,,
0.00574521364270318,0.0116216363364912,0.000923661200032733,,
0.00579474134651959,-0.0775911326647844,-0.000503306802716708,,
0.005844269050336,-0.164742505551194,-0.00195268343983912,,
0.0058937967541524,-0.244847360416232,-0.00330884302919987,,
0.00594332445796881,-0.315215844010488,-0.00450052472138296,,
0.00599285216178522,-0.373525252492313,-0.0055554989527149,,
0.00604237986560162,-0.41719008556233,-0.00639657970196561,,
0.00609190756941803,-0.445034529341965,-0.00698624305615114,,
0.00614143527323444,-0.45576473485631,-0.00734740881534712,,
0.00619096297705084,-0.448922243866322,-0.00734017201408932,,
0.00624049068086725,-0.425152173114738,-0.00707584279087037,,
0.00629001838468366,-0.384384694031054,-0.00659298914181372,,
0.00633954608850006,-0.329267408262627,-0.00580145231268592,,
0.00638907379231647,-0.261567581224806,-0.0048075025656602,,
0.00643860149613288,-0.183705818541846,-0.00364303664063614,,
0.00648812919994928,-0.0989181959359914,-0.00231908701611605,,
0.00653765690376569,-0.0107320132590631,-0.000951266323195643,,
0.0065871846075821,0.0779756506002351,0.000505070868187296,,
0.0066367123113985,0.164918353032552,0.00192853901724765,,
0.00668624001521491,0.244835734136473,0.00330076008556457,,
0.00673576771903132,0.315228604561443,0.00452877587098799,,
0.00678529542284772,0.373374181747393,0.00556434973249198,,
0.00683482312666413,0.416512500306608,0.00640476705391491,,
0.00688435083048054,0.444308666668463,0.0069966229826921,,
0.00693387853429694,0.455259771498232,0.00731525975535607,,
0.00698340623811335,0.448024539106623,0.00735158079755704,,
0.00703293394192976,0.424740219994734,0.00710673895109437,,
0.00708246164574616,0.384379448026772,0.00661012080598766,,
0.00713198934956257,0.329506810376937,0.00580682064015914,,
0.00718151705337898,0.261987651473057,0.00483343498062716,,
0.00723104475719538,0.184303331340324,0.00365741453553037,,
0.00728057246101179,0.0996589459189419,0.0023291885204868,,
0.0073301001648282,0.0115847725226206,0.000956132185658376,,
0.0073796278686446,-0.0776905940702854,-0.000515729216898908,,
0.00742915557246101,-0.164794398458412,-0.00193604771515643,,
0.00747868327627742,-0.244864303592223,-0.00328924906895622,,
0.00752821098009382,-0.315231369347484,-0.00449408620869196,,
0.00757773868391023,-0.373582533187712,-0.00557972385671501,,
0.00762726638772664,-0.41698201768981,-0.00639654489919472,,
0.00767679409154304,-0.445023541089754,-0.00698222333606546,,
0.00772632179535945,-0.455820881280513,-0.00728553166314372,,
0.00777584949917586,-0.449300523310195,-0.00734102468198605,,
0.00782537720299227,-0.424816428840717,-0.00709867123367181,,
0.00787490490680867,-0.384594250634518,-0.00657845898479481,,
0.00792443261062508,-0.329347019922197,-0.00580903931682997,,
0.00797396031444149,-0.261569849767198,-0.00481660349035629,,
0.00802348801825789,-0.18373332461835,-0.00363210857044693,,
0.0080730157220743,-0.0988226335877267,-0.00231042112606161,,
0.00812254342589071,-0.0107598029033656,-0.000906701374542518,,
0.00817207112970711,0.0779886947189893,0.000489566233571548,,
0.00822159883352352,0.164979639123112,0.0019559287982629,,
0.00827112653733993,0.244948629566452,0.00331569047445379,,
0.00832065424115633,0.315388253232283,0.00450591045024185,,
0.00837018194497274,0.373058003651503,0.00557628708304891,,
0.00841970964878915,0.416721206206675,0.00640482360841821,,
0.00846923735260555,0.444415855296486,0.00698219723398719,,
0.00851876505642196,0.455150881463414,0.00731205790039624,,
0.00856829276023837,0.448278615854531,0.00735702308091923,,
0.00861782046405477,0.424572631425522,0.00710031783978904,,
0.00866734816787118,0.384548454434979,0.00657695376493583,,
0.00871687587168759,0.329567493885924,0.00583552857613778,,
0.00876640357550399,0.261984213213494,0.0048371980302746,,
0.0088159312793204,0.184366885973276,0.00365704910643183,,
0.00886545898313681,0.099610739393111,0.0023154240244363,,
0.00891498668695321,0.0115794201804143,0.000935354931190791,,
0.00896451439076962,-0.077610911518765,-0.000485435579652638,,
0.00901404209458603,-0.164794682026211,-0.00195934817054377,,
0.00906356979840243,-0.244723370396117,-0.00329715147321519,,
0.00911309750221884,-0.31530367913623,-0.0045366499979953,,
0.00916262520603525,-0.373648320917081,-0.00556159378803933,,
0.00921215290985165,-0.417228721674944,-0.00640665510425809,,
0.00926168061366806,-0.445282651166095,-0.00698683470326333,,
0.00931120831748447,-0.455733755074269,-0.00729665114857525,,
0.00936073602130087,-0.448736790525773,-0.00733561285104845,,
0.00941026372511728,-0.424973596293315,-0.00710076157512329,,
0.00945979142893369,-0.384391854117979,-0.00657790214045395,,
0.00950931913275009,-0.329433224533095,-0.00583427132602443,,
0.0095588468365665,-0.261519658266774,-0.00481265337581327,,
0.00960837454038291,-0.18373332461835,-0.00364524444144054,,
0.00965790224419931,-0.0988524082066223,-0.00230591416717818,,
0.00970742994801572,-0.0107490273270034,-0.000916396121523722,,
0.00975695765183213,0.0779915303969793,0.00051575314380381,,
0.00980648535564854,0.164870465520495,0.00193776175164295,,
0.00985601305946494,0.244996800646308,0.00329982041073951,,
0.00990554076328135,0.315332673943678,0.00452583503681314,,
0.00995506846709776,0.37313002987245,0.00556556782948769,,
0.0100045961709142,0.417014982446444,0.00642020208298755,,
0.0100541238747306,0.444411601779501,0.00699174624436338,,
0.010103651578547,0.455251264464262,0.00731782210939302,,
0.0101531792823634,0.448366521872222,0.00734009588302698,,
0.0102027069861798,0.424662805985606,0.00708025404213286,,
0.0102522346899962,0.384281050000518,0.0065760488928821,,
0.0103017623938126,0.329352833062077,0.00581407701797598,,
0.010351290097629,0.261903112822978,0.00483189060765055,,
0.0104008178014454,0.184391237358016,0.0036411833930643,,
0.0104503455052618,0.0995540258333101,0.00233266879761729,,
0.0104998732090782,0.01156070470568,0.000935929176917316,,
0.0105494009128946,-0.0776640095891287,-0.000486236043392818,,
0.010598928616711,-0.164827575890896,-0.00194897476952205,,
0.0106484563205274,-0.244900033134897,-0.00329516771525107,,
0.0106979840243439,-0.315295810129807,-0.00451194003037037,,
0.0107475117281603,-0.373446775103938,-0.00555929680513367,,
0.0107970394319767,-0.417304434277278,-0.00640341844652692,,
0.0108465671357931,-0.445052181437453,-0.00697301800305583,,
0.0108960948396095,-0.455855476551991,-0.0072893055886567,,
0.0109456225434259,-0.448862694628531,-0.00733308747495576,,
0.0109951502472423,-0.424774744374263,-0.00709573257466989,,
0.0110446779510587,-0.384505281237581,-0.00658512371549946,,
0.0110942056548751,-0.329453145170975,-0.00581603467386183,,
0.0111437333586915,-0.261504416497578,-0.00481195732038708,,
0.0111932610625079,-0.183683771145474,-0.00366950414821199,,
0.0112427887663243,-0.0988495725286322,-0.00234144779667833,,
0.0112923164701407,-0.0107724925623711,-0.000939241965710824,,
0.0113418441739571,0.0779861426087982,0.000507750681577601,,
0.0113913718777736,0.164850332206766,0.00196109700980163,,
0.01144089958159,0.244986592205544,0.00332077167906375,,
0.0114904272854064,0.315201382052739,0.00452251137215365,,
0.0115399549892228,0.373137686203023,0.00556339265628125,,
0.0115894826930392,0.416861005131585,0.00642276443702494,,
0.0116390103968556,0.444234371905123,0.00700086892079099,,
0.011688538100672,0.455296635312103,0.00731063098677254,,
0.0117380658044884,0.448534677577032,0.00735234210817914,,
0.0117875935083048,0.42447933761965,0.00711968558201903,,
0.0118371212121212,0.384269140152959,0.0065949293963139,,
0.0118866489159376,0.329658235581605,0.00584379858466866,,
0.011936176619754,0.261940827340246,0.00479642658369306,,
0.0119857043235704,0.184267920811424,0.00364433304386713,,
0.0120352320273868,0.099553742265511,0.00232854466921761,,
0.0120847597312032,0.011615149723089,0.000921921061467934,,
0.0121342874350197,-0.0776489096038317,-0.000528223411796258,,
0.0121838151388361,-0.164831829407881,-0.00195132395658515,,
0.0122333428426525,-0.244937464084366,-0.00329071296052419,,
0.0122828705464689,-0.315337423704311,-0.00452537390009322,,
0.0123323982502853,-0.373413526779505,-0.0055752342992168,,
0.0123819259541017,-0.417391489591573,-0.00639939872644124,,
0.0124314536579181,-0.445051047166257,-0.00698004816285902,,
0.0124809813617345,-0.456108986164302,-0.00725911200937857,,
0.0125305090655509,-0.449030566765542,-0.00731309328284224,,
0.0125800367693673,-0.42492957239252,-0.00708677086105958,,
0.0126295644731837,-0.384480327271268,-0.006555680570977,,
0.0126790921770001,-0.329448608086191,-0.00581784441796973,,
0.0127286198808165,-0.261600758657289,-0.00483299559563966,,
0.0127781475846329,-0.183714680035565,-0.00364108768544336,,
0.0128276752884493,-0.0987956946468213,-0.00232884919346654,,
0.0128772029922658,-0.010724924064088,-0.000955564465451975,,
0.0129267306960822,0.0779206384472281,0.000493168320401693,,
0.0129762583998986,0.164905344359773,0.0019429473645669,,
0.013025786103715,0.2449990691887,0.00329216380105279,,
0.0130753138075314,0.315188905069583,0.00453504036982233,,
0.0131248415113478,0.373230696441097,0.00555335205676011,,
0.0131743692151642,0.416973297979991,0.00641003967376719,,
0.0132238969189806,0.444407348262516,0.00701188399790853,,
0.013273424622797,0.454976487267026,0.00730828179970988,,
0.0133229523266134,0.448329374490553,0.00733873422459963,,
0.0133724800304298,0.424705341155457,0.00709396198368006,,
0.0134220077342462,0.384069791990259,0.00659465532449,,
0.0134715354380626,0.329469662995267,0.00580749929419966,,
0.013521063141879,0.262027599086742,0.00481649038134924,,
0.0135705908456954,0.184263348280665,0.00364290613024343,,
0.0136201185495119,0.0996243506474633,0.00233900290199429,,
0.0136696462533283,0.0115405713919507,0.000929945275426114,,
0.0137191739571447,-0.0776148814679511,-0.000509603929149449,,
0.0137687016609611,-0.164853664128404,-0.00194462442310916,,
0.0138182293647775,-0.244924136397813,-0.00328789176087563,,
0.0138677570685939,-0.315017559227034,-0.00451693640322537,,
0.0139172847724103,-0.373399915525153,-0.00558116817172438,,
0.0139668124762267,-0.417263600514222,-0.00639708434214992,,
0.0140163401800431,-0.444989442061923,-0.00698403308017337,,
0.0140658678838595,-0.455975709298769,-0.00729739723298506,,
0.0141153955876759,-0.449193051114372,-0.007328441304987,,
0.0141649232914923,-0.424915677570368,-0.00709350519730689,,
0.0142144509953087,-0.384381858353064,-0.00658981991445184,,
0.0142639786991251,-0.32952573852752,-0.00579221435207833,,
0.0143135064029415,-0.261546030072081,-0.00482330302383183,,
0.014363034106758,-0.18366470121099,-0.00365521543541902,,
0.0144125618105744,-0.0988583631304013,-0.00232521447903888,,
0.0144620895143908,-0.0107421508078776,-0.000945317224476216,,
0.0145116172182072,0.0779614722102848,0.000499920058034231,,
0.0145611449220236,0.164928596919291,0.00192298797522472,,
0.01461067262584,0.244799721025999,0.00331675195897851,,
0.0146602003296564,0.315123117340213,0.00452529559385795,,
0.0147097280334728,0.373286559297501,0.00557802722161416,,
0.0147592557372892,0.416972447276594,0.00640959158808663,,
0.0148087834411056,0.444669648476596,0.00697932600535456,,
0.014858311144922,0.455000023394343,0.00732166346527574,,
0.0149078388487384,0.448500933008951,0.00734560777193227,,
0.0149573665525548,0.424494650280796,0.00710658233862382,,
0.0150068942563712,0.384293810551473,0.00660075886050704,,
0.0150564219601876,0.329430530639005,0.0058188972018014,,
0.0151059496640041,0.262074104205778,0.00480991265757291,,
0.0151554773678205,0.184410236400549,0.00364755230021263,,
0.0152050050716369,0.0995767112572304,0.00231199595146325,,
0.0152545327754533,0.011560988273479,0.000933353771840562,,
0.0153040604792697,-0.0776214035273282,-0.000533324192965701,,
0.0153535881830861,-0.164746191932581,-0.00195950478301432,,
0.0154031158869025,-0.244916196499441,-0.00331063754709504,,
0.0154526435907189,-0.315470133434246,-0.00452203283404806,,
0.0155021712945353,-0.373424018788068,-0.00558757188164405,,
0.0155516989983517,-0.417373057684638,-0.00641535579708385,,
0.0156012267021681,-0.445161071472271,-0.00700291358360516,,
0.0156507544059845,-0.455884613143339,-0.00729985300353508,,
0.0157002821098009,-0.448951167781821,-0.00734229498313876,,
0.0157498098136173,-0.424981819759486,-0.00710157944024914,,
0.0157993375174338,-0.384332021312389,-0.00659511211086317,,
0.0158488652212502,-0.329481501950876,-0.0058186274803238,,
0.0158983929250666,-0.261417573859132,-0.00482723573698918,,
0.015947920628883,-0.18379882877992,-0.00365591366601814,,
0.0159974483326994,-0.0989198973427854,-0.00233193141390009,,
0.0160469760365158,-0.0107575343609736,-0.00093534623049818,,
0.0160965037403322,0.0779421895999525,0.00049095834442392,,
0.0161460314441486,0.164850615774565,0.0019210042172606,,
0.016195559147965,0.244996800646308,0.0032768853844507,,
