Time domain (s),Current (AC) (A),Potential (AC) (V),Frequency (Hz),Column 5
0,0.298545517191981,0.00656136172945265,0.0063096,0.4
0.386935186065678,0.301887585861106,0.00680111109340453,,
0.773870372131355,0.305308692441259,0.00706454614457597,,
1.16080555819703,0.308527017380931,0.00728533399711484,,
1.54774074426271,0.311627526434476,0.00752214652686511,,
1.93467593032839,0.314875737584256,0.00778180223739167,,
2.32161111639407,0.317915486243699,0.00802035094438747,,
2.70854630245974,0.321002163662814,0.00823344367734569,,
3.09548148852542,0.323947313822496,0.00851028720150993,,
3.4824166745911,0.326919386270621,0.00873811185887785,,
3.86935186065678,0.32957234315297,0.00897795331867579,,
4.25628704672245,0.332033386107605,0.00916685554274022,,
4.64322223278813,0.334595696385744,0.00941803843543054,,
5.03015741885381,0.337356095428398,0.00961259943759041,,
5.41709260491949,0.339630658311701,0.00983923367087414,,
5.80402779098517,0.342006488518508,0.0100670378624987,,
6.19096297705084,0.34425067120476,0.0102839440456748,,
6.57789816311652,0.346375803037526,0.0104993391747841,,
6.9648333491822,0.34877139272209,0.0107103648676423,,
7.35176853524788,0.350593216571286,0.0109097864838992,,
7.73870372131355,0.352354774013323,0.0111078948816101,,
8.12563890737923,0.354617728203444,0.0113154584528488,,
8.51257409344491,0.356522294865747,0.0115072224700548,,
8.89950927951059,0.357996845893363,0.0117136672473115,,
9.28644446557626,0.359495602281232,0.0118985684185087,,
9.67337965164194,0.360755021994769,0.0120931567083269,,
10.0603148377076,0.362735662646436,0.0122887000661778,,
10.4472500237733,0.363773282222151,0.0124643916527707,,
10.834185209839,0.36538664358101,0.0126820107260142,,
11.2211203959047,0.366363502762622,0.0128229241923754,,
11.6080555819703,0.367347030767977,0.0129968693688505,,
11.994990768036,0.368588666951532,0.0131820707042869,,
12.3819259541017,0.369323225537149,0.0133447051464852,,
12.7688611401674,0.370366772956191,0.0135278326199066,,
13.155796326233,0.371261136318167,0.0136830448191052,,
13.5427315122987,0.371435019722429,0.013857494817255,,
13.9296666983644,0.372504501456026,0.0140069356767683,,
14.3166018844301,0.372832014799849,0.0141603878220202,,
14.7035370704958,0.373237331087339,0.0143103164484217,,
15.0904722565614,0.373314640044064,0.014451492558492,,
15.4774074426271,0.37363894247275,0.0146019021298671,,
15.8643426286928,0.374008197713334,0.0147617975733851,,
16.2512778147585,0.373975594575035,0.0148999890958517,,
16.6382130008241,0.373893345748872,0.014996068939976,,
17.0251481868898,0.3736816723434,0.0151476280039482,,
17.4120833729555,0.373575712143928,0.015261509634017,,
17.7990185590212,0.373397876844115,0.0154117316027427,,
18.1859537450869,0.372983668791634,0.015484606704621,,
18.5728889311525,0.372501290540891,0.0156190086535712,,
18.9598241172182,0.372414595832232,0.0157552013550832,,
19.3467593032839,0.37161013809405,0.0158742846949749,,
19.7336944893496,0.370645628586036,0.015968522622178,,
20.1206296754152,0.369751018230588,0.0160622693715355,,
20.5075648614809,0.368612625318313,0.0161592053659323,,
20.8945000475466,0.368233737332322,0.0162533000329308,,
21.2814352336123,0.366732511009734,0.0163261137375783,,
21.6683704196779,0.365581521430389,0.0164206688838071,,
22.0553056057436,0.364477460610716,0.0165021054884105,,
22.4422407918093,0.363221745799259,0.0165993450580033,,
22.829175977875,0.361601715616656,0.0166327315076726,,
23.2161111639407,0.360023180337344,0.0167084820465218,,
23.6030463500063,0.358566659833181,0.0168019934398287,,
23.989981536072,0.356977256841102,0.0168257234694926,,
24.3769167221377,0.355097883512939,0.0168952524222981,,
24.7638519082034,0.353169605477327,0.0169764570818076,,
25.150787094269,0.351466832481617,0.0170240331136822,,
25.5377222803347,0.349317001301656,0.0170489774441309,,
25.9246574664004,0.347518394838824,0.0170680071746894,,
26.3115926524661,0.345304592349624,0.017127497680276,,
26.6985278385318,0.343246889734704,0.0171593048567336,,
27.0854630245974,0.340587264028612,0.0171921967176005,,
27.4723982106631,0.338135853819384,0.0172304949457254,,
27.8593333967288,0.335916123486856,0.0172337012455506,,
28.2462685827945,0.33328366706268,0.0172684657219535,,
28.6332037688601,0.330618854493676,0.0172558076595584,,
29.0201389549258,0.328010850423223,0.017264130395275,,
29.4070741409915,0.325150913011369,0.0172810316885026,,
29.7940093270572,0.32209659173708,0.0172776343750707,,
30.1809445131229,0.31919688837624,0.0173077190181115,,
30.5678796991885,0.316270509720428,0.0172804722915116,,
30.9548148852542,0.313100842494733,0.017298809597746,,
31.3417500713199,0.309987983767589,0.0172198527590712,,
31.7286852573856,0.30666172268067,0.017222786182316,,
32.1156204434512,0.303354233097619,0.0172079962716327,,
32.5025556295169,0.300024761095564,0.0171644076487962,,
32.8894908155826,0.296672318700617,0.017152114558828,,
33.2764260016483,0.293018050282931,0.0171081234430344,,
33.663361187714,0.289492959451082,0.0170696444341747,,
34.0502963737796,0.28581028678412,0.0170096388740415,,
34.4372315598453,0.282267659415762,0.0169864887071118,,
34.824166745911,0.278424934978968,0.0169315552404257,,
35.2111019319767,0.274392025568764,0.0168568041120536,,
35.5980371180423,0.270482118907597,0.0167895400348694,,
35.984972304108,0.266434389889075,0.0167247454907415,,
36.3719074901737,0.262385919890137,0.0166431963245488,,
36.7588426762394,0.258337202897727,0.0165805847930685,,
37.1457778623051,0.254124698359222,0.0165407311684325,,
37.5327130483707,0.250007595049263,0.0164430822839683,,
37.9196482344364,0.245706203735035,0.0163548067100567,,
38.3065834205021,0.241331733227291,0.0162642116852081,,
38.6935186065678,0.236939139573541,0.0161623059260827,,
39.0804537926334,0.232570843902596,0.0160671231637179,,
39.4673889786991,0.22805750131524,0.0159517816439418,,
39.8543241647648,0.223336004979388,0.0158424536418162,,
40.2412593508305,0.218804662742764,0.0157492662894492,,
40.6281945368962,0.214041640629438,0.0156544689652551,,
41.0151297229618,0.209372970022402,0.0155255074931362,,
41.4020649090275,0.204653418760142,0.0154133313416982,,
41.7890000950932,0.19954090088399,0.0153109037061117,,
42.1759352811589,0.194778125764136,0.0151540542474278,,
42.5628704672245,0.189853539045963,0.0150451867245325,,
42.9498056532902,0.184933212965181,0.0149173338135231,,
43.3367408393559,0.179879232541884,0.0147823554127964,,
43.7236760254216,0.174864030093685,0.0146210580658441,,
44.1106112114873,0.169670992345672,0.0144751953004976,,
44.4975463975529,0.164569342182286,0.0143302534936116,,
44.8844815836186,0.159364942734564,0.014179775703091,,
45.2714167696843,0.154204261131378,0.0140111789076007,,
45.65835195575,0.148932185472338,0.0139151809264511,,
46.0452871418156,0.14367048353912,0.0136937688687335,,
46.4322223278813,0.138323815851547,0.0135777724451631,,
46.819157513947,0.133021576114743,0.0133947609442884,,
47.2060927000127,0.127521803348738,0.0132068069663425,,
47.5930278860784,0.122135369712178,0.0130339532961909,,
47.979963072144,0.116769683527264,0.0128768036732678,,
48.3668982582097,0.111224927075177,0.012686543888214,,
48.7538334442754,0.105670537877684,0.0125090479052301,,
49.1407686303411,0.100125503557941,0.0122905010516119,,
49.5277038164067,0.0946081942554258,0.0121302952109832,,
49.9146390024724,0.0890901130983108,0.0119510152973521,,
50.3015741885381,0.0835038617429341,0.0117708621786621,,
50.6885093746038,0.0778563560065108,0.011528711500798,,
51.0754445606695,0.0721969945834332,0.0113333864442118,,
51.4623797467351,0.0665435610036827,0.0111489900946893,,
51.8493149328008,0.0608624641550724,0.010946256438932,,
52.2362501188665,0.0551319686120696,0.0107148025230388,,
52.6231853049322,0.0495296626810153,0.0104932403832017,,
53.0101204909978,0.0438339623433753,0.0102793733629452,,
53.3970556770635,0.038093154822918,0.0100705170389048,,
53.7839908631292,0.0323878217398714,0.00986912730030864,,
54.1709260491949,0.0266257110324574,0.00962906753924608,,
54.5578612352606,0.0209261205476339,0.00944956932434993,,
54.9447964213262,0.0152183175298677,0.00921402225974344,,
55.3317316073919,0.00942110287525101,0.0089540902616787,,
55.7186667934576,0.00369113219337613,0.00872814845271863,,
56.1056019795233,-0.00208178447843624,0.00849234897727502,,
56.4925371655889,-0.00784463616626613,0.00827250254894008,,
56.8794723516546,-0.0135732175098612,0.00801883647936386,,
57.2664075377203,-0.0193600275644715,0.00779026141139827,,
57.653342723786,-0.0251297950695163,0.00751806702198099,,
58.0402779098517,-0.0308271934872761,0.0072665293897356,,
58.4272130959173,-0.0366135095549425,0.00703964274561431,,
58.814148281983,-0.042279539801763,0.00681771563335021,,
59.2010834680487,-0.0479016052105743,0.00654128142405774,,
59.5880186541144,-0.053712064890125,0.00629869073270761,,
59.97495384018,-0.0593898273268638,0.00604301902026183,,
60.3618890262457,-0.0651222370692743,0.00578273569359933,,
60.7488242123114,-0.0706570520341147,0.00552773252877659,,
61.1357593983771,-0.0764140376269855,0.0052621144649585,,
61.5226945844428,-0.081982011465437,0.00502741331775258,,
61.9096297705084,-0.0876672454547026,0.0047482196440356,,
62.2965649565741,-0.093202924896695,0.00448018662247662,,
62.6835001426398,-0.0987750976241698,0.00423678071234113,,
63.0704353287055,-0.104267429711833,0.00399419343194785,,
63.4573705147711,-0.109768036080806,0.00368035807629008,,
63.8443057008368,-0.115274508544739,0.00343484760552437,,
64.2312408869025,-0.120680639910687,0.00317702357904714,,
64.6181760729682,-0.126106654251128,0.00290975461191456,,
65.0051112590339,-0.131639493268193,0.0026390337560338,,
65.3920464450995,-0.136958250693434,0.00232252420988299,,
65.7789816311652,-0.142174320582707,0.00208933752770113,,
66.1659168172309,-0.14751975330292,0.00181703398765132,,
66.5528520032966,-0.15287728870326,0.00156002517995946,,
66.9397871893622,-0.157891750171043,0.00129122810397364,,
67.3267223754279,-0.163147524260934,0.00101466768926262,,
67.7136575614936,-0.168321728756709,0.000746852968968259,,
68.1005927475593,-0.173565461914842,0.000474484620730298,,
68.4875279336249,-0.178518669001578,0.000187759553381905,,
68.8744631196906,-0.183492561791592,-0.000100087718905684,,
69.2613983057563,-0.188494488340673,-0.000349142174265182,,
69.648333491822,-0.193583788830461,-0.000625361493250765,,
70.0352686778877,-0.198329027413805,-0.00091032650665257,,
70.4222038639533,-0.203222215086855,-0.00120372340640351,,
70.809139050019,-0.207952448816778,-0.00146080213871924,,
71.1960742360847,-0.212831990100502,-0.00174566993983927,,
71.5830094221504,-0.217432737502748,-0.00200254230924113,,
71.9699446082161,-0.221968031634924,-0.00228752096647211,,
72.3568797942817,-0.226506536682235,-0.00253345098498059,,
72.7438149803474,-0.231176195263159,-0.00280580910034667,,
73.1307501664131,-0.235479871267002,-0.00308682934167637,,
73.5176853524788,-0.240260862155413,-0.00334202522558424,,
73.9046205385444,-0.244458022224473,-0.0036213536321128,,
74.2915557246101,-0.248663827065051,-0.00387900540524866,,
74.6784909106758,-0.253113167468984,-0.00415881475675084,,
75.0654260967415,-0.257279206360576,-0.00443260376868748,,
75.4523612828071,-0.261338791065752,-0.00468287423031066,,
75.8392964688728,-0.26534916232164,-0.00495154680635634,,
76.2262316549385,-0.269394977140754,-0.00521144810580543,,
76.6131668410042,-0.273812208393332,-0.00546450020307487,,
77.0001020270699,-0.277629739495985,-0.0057217955311768,,
77.3870372131355,-0.28119583124418,-0.00602582267923113,,
77.7739723992012,-0.284874119777014,-0.00625292250818132,,
78.1609075852669,-0.288523386576893,-0.00654076636951118,,
78.5478427713326,-0.292423413499181,-0.00678303984183648,,
78.9347779573982,-0.295713860532666,-0.00703415451538181,,
79.3217131434639,-0.299293042934875,-0.00728757670151392,,
79.7086483295296,-0.302804796119239,-0.00753856687511911,,
80.0955835155953,-0.306027566941406,-0.00779750116818478,,
80.482518701661,-0.309287139790895,-0.00799074895179919,,
80.8694538877266,-0.312398516557207,-0.00828173259928811,,
81.2563890737923,-0.315636847968108,-0.00853003664405039,,
81.643324259858,-0.318946313498934,-0.00877681257995988,,
82.0302594459237,-0.321617053911265,-0.0089891787790215,,
82.4171946319893,-0.324689158715535,-0.00923007422461319,,
82.804129818055,-0.327209912342017,-0.00947813097497408,,
83.1910650041207,-0.330119248448264,-0.00969809849229142,,
83.5780001901864,-0.333031857218014,-0.00991699837998627,,
83.9649353762521,-0.335554463295535,-0.01015043235657,,
84.3518705623177,-0.337784999592461,-0.0103869464275599,,
84.7388057483834,-0.340400907454016,-0.0106046081377693,,
85.1257409344491,-0.342703812838227,-0.0108259246886835,,
85.5126761205148,-0.345058463354814,-0.0110406785578276,,
85.8996113065804,-0.347227251283749,-0.0112624862865873,,
86.2865464926461,-0.349318853752695,-0.0114459702050427,,
86.6734816787118,-0.351228422032806,-0.0116719239523531,,
87.0604168647775,-0.353300882507675,-0.0118878375469662,,
87.4473520508432,-0.355301529630572,-0.0120750581691009,,
87.8342872369088,-0.356714826277142,-0.0123144255058394,,
88.2212224229745,-0.358641622351921,-0.0124757092089625,,
88.6081576090402,-0.360056400959323,-0.0126869293263847,,
88.9950927951059,-0.361869024301688,-0.012865977294922,,
89.3820279811715,-0.363033598521991,-0.0130619708991317,,
89.7689631672372,-0.364567304486142,-0.0132566001204371,,
90.1558983533029,-0.365840061847165,-0.0134029421252784,,
90.5428335393686,-0.366878669396768,-0.0136238237791422,,
90.9297687254343,-0.368291410308026,-0.0138030081859699,,
91.3167039114999,-0.369003801229534,-0.0139609201578406,,
91.7036390975656,-0.370048089628991,-0.0141390829829691,,
92.0905742836313,-0.371104912947151,-0.0142879644454914,,
92.477509469697,-0.371322020209006,-0.0144325344580358,,
92.8644446557626,-0.372332964489749,-0.0146394567693093,,
93.2513798418283,-0.372598235478636,-0.0147754038818988,,
93.638315027894,-0.37345579681329,-0.014933112901812,,
94.0252502139597,-0.373969234493132,-0.0150859237870993,,
94.4121854000254,-0.373913722710309,-0.0152258276101107,,
94.799120586091,-0.37413280591994,-0.0153621857430499,,
95.1860557721567,-0.374521573644809,-0.0155134122386893,,
95.5729909582224,-0.374314593115304,-0.0156529613221461,,
95.9599261442881,-0.374209867883192,-0.0157607339277606,,
96.3468613303537,-0.374250127819122,-0.0158982500806895,,
96.7337965164194,-0.374012273105622,-0.0160273479910988,,
97.1207317024851,-0.373499267664356,-0.016120262466885,,
97.5076668885508,-0.373136187260571,-0.0162531942932556,,
97.8946020746165,-0.372824481498954,-0.0163423157845677,,
98.2815372606821,-0.372205762851688,-0.0164573196195752,,
98.6684724467478,-0.37162458721216,-0.0165714229618659,,
99.0554076328135,-0.370960174772581,-0.0166634642325931,,
99.4423428188792,-0.369787449767703,-0.0167684125655954,,
99.8292780049448,-0.369325077988189,-0.0168426759270792,,
100.216213191011,-0.367965131931563,-0.0169281681598656,,
100.603148377076,-0.367131837705529,-0.0170136603926521,,
100.990083563142,-0.365745216353932,-0.0171099721818697,,
101.377018749208,-0.364454366721088,-0.0171534004897151,,
101.763953935273,-0.363217423413499,-0.0172303926170074,,
102.150889121339,-0.36172360689507,-0.0173308248425967,,
102.537824307405,-0.360065539717785,-0.0173845133098829,,
102.92475949347,-0.358757956277216,-0.0174781645524371,,
103.311694679536,-0.356888462687931,-0.0175318120882362,,
103.698629865602,-0.355140736880324,-0.0175581583221192,,
104.085565051667,-0.353550592907829,-0.0176222160994781,,
104.472500237733,-0.351252318651218,-0.0176303751092464,,
104.859435423799,-0.349305083866633,-0.0176707471993858,,
105.246370609864,-0.347152967997056,-0.0177139981374537,,
105.63330579593,-0.345281745453468,-0.0177058254838567,,
106.020240981996,-0.342404024511632,-0.0177538926935767,,
106.407176168061,-0.3405587362826,-0.0177732396431605,,
106.794111354127,-0.338127085551129,-0.0177986580966683,,
107.181046540193,-0.335287401603976,-0.0178153990749048,,
107.567981726258,-0.332686066357266,-0.0178267507406691,,
107.954916912324,-0.330073369410846,-0.0178187554568496,,
108.34185209839,-0.327514023054371,-0.0178541748370464,,
108.728787284455,-0.324704719304269,-0.017837474790297,,
109.115722470521,-0.321805015943429,-0.0178240356186894,,
109.502657656587,-0.318848010097093,-0.0178147441711105,,
109.889592842652,-0.315831972810959,-0.0178164223620829,,
110.276528028718,-0.312392094726936,-0.0177653671538023,,
110.663463214784,-0.309542037053961,-0.0177855736646158,,
111.050398400849,-0.306279562031176,-0.0177635525245394,,
111.437333586915,-0.302563977484075,-0.0176950605027413,,
111.824268772981,-0.299496750800876,-0.0176537197007396,,
112.211203959047,-0.295835381320872,-0.0176430229387696,,
112.598139145112,-0.292137148065177,-0.0175879837324082,,
112.985074331178,-0.288699307677298,-0.017566249112742,,
113.372009517244,-0.285001815402019,-0.0174924905729328,,
113.758944703309,-0.281391697067447,-0.0174285965215222,,
114.145879889375,-0.277368173409177,-0.0173979251938325,,
114.532815075441,-0.273725513684673,-0.0173209194227111,,
114.919750261506,-0.26975064774038,-0.0172734661852978,,
115.306685447572,-0.26562480703635,-0.0171754762051077,,
115.693620633638,-0.261674393445781,-0.0171260036809961,,
116.080555819703,-0.257390353422959,-0.0170486431703196,,
116.467491005769,-0.253146017600755,-0.016965415813154,,
116.854426191835,-0.248947375570864,-0.0168867454948893,,
117.2413613779,-0.244562253469641,-0.0167929441702155,,
117.628296563966,-0.240247524507927,-0.0166949678338546,,
118.015231750032,-0.235554710289007,-0.0165729783583766,,
118.402166936097,-0.231223865003248,-0.0164752748985966,,
118.789102122163,-0.226818242443852,-0.0163910106104237,,
119.176037308229,-0.222194277655242,-0.0162592521533509,,
119.562972494294,-0.217483309416132,-0.0161871445168562,,
119.94990768036,-0.213004391543931,-0.0160436660106349,,
120.336842866426,-0.208152451780699,-0.0159244189447949,,
120.723778052491,-0.203201529383578,-0.0158053219610745,,
121.110713238557,-0.198386576892773,-0.0156707528752187,,
121.497648424623,-0.193476408418525,-0.0155558309031854,,
121.884583610688,-0.188602486236289,-0.0154416337595702,,
122.271518796754,-0.183689724330586,-0.0152726105944225,,
122.65845398282,-0.178581899330401,-0.0151480168530758,,
123.045389168886,-0.173564226947482,-0.0149653396260128,,
123.432324354951,-0.168481039546125,-0.0148622997235979,,
123.819259541017,-0.163329805443242,-0.0147003355345015,,
124.206194727083,-0.158273108091753,-0.0145147931033391,,
124.593129913148,-0.152901988050456,-0.0144039506361899,,
124.980065099214,-0.14756124820621,-0.0142233199834836,,
125.36700028528,-0.142488743272515,-0.0140622682254543,,
125.753935471345,-0.137095146825269,-0.0139192808970785,,
126.140870657411,-0.131740575346594,-0.013744598953835,,
126.527805843477,-0.126382792952782,-0.0135726184887419,,
126.914741029542,-0.120927880376122,-0.0133804588004933,,
127.301676215608,-0.115430855412491,-0.013186388976179,,
127.688611401674,-0.10995352817825,-0.013030192715811,,
128.075546587739,-0.104455638737468,-0.0128316084895617,,
128.462481773805,-0.0988956304384875,-0.0126362697891462,,
128.849416959871,-0.0933592717644473,-0.0124207109340881,,
129.236352145936,-0.0878586653954736,-0.0122702484928756,,
129.623287332002,-0.082192882142125,-0.012043418129549,,
130.010222518068,-0.0765852041030556,-0.0118455962522477,,
130.397157704133,-0.0708969444437584,-0.0116527953040344,,
130.784092890199,-0.0652931565518723,-0.0114621227931515,,
131.171028076265,-0.0595525960248871,-0.0112146220288243,,
131.55796326233,-0.0537879536343854,-0.011058947644917,,
131.944898448396,-0.048167370186406,-0.0108258837571964,,
132.331833634462,-0.0424517560000889,-0.0106103931212833,,
132.718768820527,-0.0367673247396071,-0.0104127639630676,,
133.105704006593,-0.0310173784606873,-0.0101733539893627,,
133.492639192659,-0.0252607016096565,-0.00995903672274778,,
133.879574378724,-0.019541320772892,-0.00971659952447457,,
134.26650956479,-0.0138123071907209,-0.00949573321991881,,
