Time domain (s),Current (AC) (A),Potential (AC) (V),Frequency (Hz),Column 5
0,-0.0498254852872974,-0.00194067518087682,1,0.5
0.00244140625,-0.0428599258725417,-0.00177161221270783,,
0.0048828125,-0.0357505975836904,-0.00159682678971018,,
0.00732421875,-0.0287159185179272,-0.00143480811188157,,
0.009765625,-0.0216119071253073,-0.00123242086622399,,
0.01220703125,-0.0145317863197536,-0.00104014638398287,,
0.0146484375,-0.00752560581779039,-0.000853942859224688,,
0.01708984375,-0.000435347463422235,-0.000704179514385395,,
0.01953125,0.00670517328331954,-0.000553776904322678,,
0.02197265625,0.0137623250971539,-0.000332236447692758,,
0.0244140625,0.020808701334626,-0.00015980805744098,,
0.02685546875,0.0279140596742912,1.25708413096781E-05,,
0.029296875,0.0348747984364639,0.000197203010904534,,
0.03173828125,0.0420178712933967,0.000354309657236929,,
0.0341796875,0.0490316372339833,0.000548514308025716,,
0.03662109375,0.0560283891066296,0.000729356253485136,,
0.0390625,0.0630503785133873,0.000920673900036473,,
0.04150390625,0.0700463151286115,0.0011144991159826,,
0.0439453125,0.0769778109615118,0.00127006327719359,,
0.04638671875,0.0840170980040088,0.00144434347444955,,
0.048828125,0.09094976355408,0.00163402790146039,,
0.05126953125,0.0978861509315131,0.00180480657500537,,
0.0537109375,0.104906687053301,0.0020028385685551,,
0.05615234375,0.111639153737275,0.00216431283987051,,
0.05859375,0.118548566727828,0.00236665059402652,,
0.06103515625,0.12540948962475,0.00250995736010218,,
0.0634765625,0.132096869028682,0.00269912212635015,,
0.06591796875,0.138818843704093,0.00287578616424833,,
0.068359375,0.145604656580255,0.00304725771880987,,
0.07080078125,0.152174887037223,0.00320200114595925,,
0.0732421875,0.158850923729194,0.00339529845255893,,
0.07568359375,0.165585977969334,0.00355365475929714,,
0.078125,0.172180311689218,0.00373365947352777,,
0.08056640625,0.178587526107733,0.00389439137232461,,
0.0830078125,0.185175656782013,0.00404510536641611,,
0.08544921875,0.191598750997273,0.00424173510076509,,
0.087890625,0.197973071551103,0.004416172021108,,
0.09033203125,0.204186609162898,0.00455631957968894,,
0.0927734375,0.210710369946804,0.00473917005523949,,
0.09521484375,0.216773616625126,0.00491381731446294,,
0.09765625,0.223183099586034,0.00507230559853777,,
0.10009765625,0.229321527177067,0.00523529760922381,,
0.1025390625,0.235317213827276,0.00539515103387389,,
0.10498046875,0.241362347612437,0.00554877265366205,,
0.107421875,0.247364060078375,0.00569297439105165,,
0.10986328125,0.253270210196049,0.00586089493040065,,
0.1123046875,0.259041382041396,0.00601376592908709,,
0.11474609375,0.264898474929842,0.00618635516671784,,
0.1171875,0.270624843062946,0.00632405702028027,,
0.11962890625,0.276204890211764,0.00647644135253778,,
0.1220703125,0.281984285523283,0.00663365523045645,,
0.12451171875,0.287501947756319,0.00679161972947684,,
0.126953125,0.293139842736134,0.00692890502957022,,
0.12939453125,0.298519974586654,0.00706532835268447,,
0.1318359375,0.303632134867114,0.00722874516542271,,
0.13427734375,0.309058204701072,0.00736055753033948,,
0.13671875,0.313994552946149,0.00748196018283354,,
0.13916015625,0.319002360276575,0.00762695378424194,,
0.1416015625,0.324246379583572,0.00776848298056532,,
0.14404296875,0.329131969192627,0.00791047409756684,,
0.146484375,0.334007633928717,0.00803588143736755,,
0.14892578125,0.338970921114699,0.00813843607648002,,
0.1513671875,0.343625119399766,0.00827550691340173,,
0.15380859375,0.348334613405639,0.00840847408001366,,
0.15625,0.352858937638762,0.00853999362021529,,
0.15869140625,0.357305280727159,0.00866155712008787,,
0.1611328125,0.361720714925463,0.00878629220033078,,
0.16357421875,0.365832448011034,0.00891777462190602,,
0.166015625,0.369973105012103,0.00902919648832068,,
0.16845703125,0.374603767169853,0.00913722406260931,,
0.1708984375,0.378157155259183,0.0092572409530689,,
0.17333984375,0.382316244167188,0.00938091609032687,,
0.17578125,0.386334683446886,0.00948219219899116,,
0.17822265625,0.390014259206773,0.00958520463448975,,
0.1806640625,0.393778905306362,0.00970892926324884,,
0.18310546875,0.397228224013457,0.00976412878427668,,
0.185546875,0.400596442330037,0.00986878681219094,,
0.18798828125,0.404033851189574,0.00999621093066638,,
0.1904296875,0.407245540081103,0.0100954578877803,,
0.19287109375,0.410343518285231,0.0101408869616089,,
0.1953125,0.413836506433374,0.0102435900752251,,
0.19775390625,0.416763776822501,0.0103148702098577,,
0.2001953125,0.419824607644959,0.0104072378483022,,
0.20263671875,0.4223775685394,0.0104993786506991,,
0.205078125,0.424838937034763,0.0106086847554363,,
0.20751953125,0.427657033821273,0.0106766860781131,,
0.2099609375,0.430381836801911,0.0107728810593186,,
0.21240234375,0.432787342440869,0.010808184996856,,
0.21484375,0.434935368518331,0.010894019757139,,
0.21728515625,0.437222626385105,0.0109697417540064,,
0.2197265625,0.43929267131784,0.0110232090724915,,
0.22216796875,0.441366969767561,0.0110669430624033,,
0.224609375,0.443114881680627,0.0111342680012303,,
0.22705078125,0.445255251427516,0.0111984914726473,,
0.2294921875,0.446605601286377,0.0112140771712399,,
0.23193359375,0.448682735414088,0.0112892465130101,,
0.234375,0.449788649830207,0.0113480259192928,,
0.23681640625,0.451090509595438,0.0114231993853551,,
0.2392578125,0.452427248199947,0.0114336585892794,,
0.24169921875,0.453312830436239,0.011477508059361,,
0.244140625,0.454895989458083,0.011531453795691,,
0.24658203125,0.455832613898197,0.0115564470038074,,
0.2490234375,0.456708554829323,0.0115899032586326,,
0.25146484375,0.457201112096194,0.0116092544356095,,
0.25390625,0.457824394118407,0.0116305687754688,,
0.25634765625,0.45857584878577,0.0116641240132962,,
0.2587890625,0.458962068128014,0.011689678125093,,
0.26123046875,0.459553590556739,0.0117052225807677,,
0.263671875,0.459623915370892,0.0117095118442068,,
0.26611328125,0.459377211385758,0.0117550893925391,,
0.2685546875,0.459458595344072,0.0117500247622475,,
0.27099609375,0.459785265448526,0.0117475213171443,,
0.2734375,0.459387136258723,0.0117785648612849,,
0.27587890625,0.459021617365805,0.0117740446375065,,
0.2783203125,0.458392380419814,0.0117520704109646,,
0.28076171875,0.458020339467519,0.0117404234110108,,
0.283203125,0.457595838472409,0.0117457354988084,,
0.28564453125,0.456590590624937,0.0117421226192196,,
0.2880859375,0.455748110694093,0.0117232663572544,,
0.29052734375,0.454673672303664,0.0117252955088043,,
0.29296875,0.453638933405095,0.0117193400314908,,
0.29541015625,0.452449650056068,0.0116828153035904,,
0.2978515625,0.45130658825828,0.011656931248452,,
0.30029296875,0.449826647915273,0.0116342806380603,,
0.302734375,0.448300769588828,0.0116068623463841,,
0.30517578125,0.446771488448795,0.0115793780660396,,
0.3076171875,0.445206194198288,0.0115204996767542,,
0.31005859375,0.443409225055994,0.0115128821098582,,
0.3125,0.441182650698208,0.0114670488554363,,
0.31494140625,0.439274239410905,0.0114239953736663,,
0.3173828125,0.437275653563519,0.0113773743795167,,
0.31982421875,0.435038587197169,0.0113355375638182,,
0.322265625,0.433007674620696,0.011278552224455,,
0.32470703125,0.430405940064826,0.0112092105069532,,
0.3271484375,0.427448895056804,0.0111901727761503,,
0.32958984375,0.425157667240844,0.0110877459900829,,
0.33203125,0.422512830379526,0.0110898411303011,,
0.33447265625,0.419437254031519,0.0109874555871516,,
0.3369140625,0.416714152457675,0.010918204604069,,
0.33935546875,0.413731869915541,0.0108551854258483,,
0.341796875,0.41040675390441,0.0107801563099978,,
0.34423828125,0.407150261300638,0.0107280417592128,,
0.3466796875,0.403667198025461,0.0106264522043742,,
0.34912109375,0.400531788871864,0.0105119000005081,,
0.3515625,0.397067441071421,0.0104594060148804,,
0.35400390625,0.393192203530221,0.0104092505026849,,
0.3564453125,0.389708856687245,0.0103084858062004,,
0.35888671875,0.386201406581353,0.0102066652910229,,
0.361328125,0.382147237758981,0.0101235030718052,,
0.36376953125,0.378061592910918,0.0100344513639428,,
0.3662109375,0.373885489934974,0.00996188032598644,,
0.36865234375,0.369671672441761,0.00985319698930631,,
0.37109375,0.365908160613368,0.00972347976460775,,
0.37353515625,0.361490174304873,0.00964553065018547,,
0.3759765625,0.357071053725181,0.00955553860379954,,
0.37841796875,0.352635769780945,0.00944965978552226,,
0.380859375,0.348223738396228,0.00930516109912549,,
0.38330078125,0.34335629712631,0.00920486244761065,,
0.3857421875,0.338827719376202,0.00909864956169981,,
0.38818359375,0.333810554308409,0.00899984802809684,,
0.390625,0.328970902682792,0.00890025463047417,,
0.39306640625,0.324191367430565,0.008725714602837,,
0.3955078125,0.318911902148692,0.00863803215984138,,
0.39794921875,0.313849933368656,0.00851275267308527,,
0.400390625,0.308839857495838,0.00836300788755917,,
0.40283203125,0.303405847763508,0.00825727754378569,,
0.4052734375,0.298077892388005,0.00810057507804629,,
0.40771484375,0.292751673865272,0.00798443089755718,,
0.41015625,0.287239080406642,0.00787848609061159,,
0.41259765625,0.281804787106512,0.00771178221733404,,
0.4150390625,0.276111596405892,0.00755725325335677,,
0.41748046875,0.270421808518859,0.00743651048754579,,
0.419921875,0.264839811841423,0.00731136297812673,,
0.42236328125,0.2588408996075,0.0071610944075462,,
0.4248046875,0.253206655563097,0.00701951571972126,,
0.42724609375,0.247211536048486,0.00687512838920279,,
0.4296875,0.241327185205361,0.00672780868723644,,
0.43212890625,0.23515387877505,0.0065922184710594,,
0.4345703125,0.229095488195285,0.00642813764734695,,
0.43701171875,0.222880249176696,0.00626006450920213,,
0.439453125,0.21676397531996,0.0061038363370165,,
0.44189453125,0.210388236927135,0.00594903104549083,,
0.4443359375,0.204048511644783,0.00580978670680699,,
0.44677734375,0.197648669989042,0.00563793984169436,,
0.44921875,0.191378985953044,0.00546691371064378,,
0.45166015625,0.184893506822003,0.00533607467858399,,
0.4541015625,0.178457900177613,0.00516942029680756,,
0.45654296875,0.171947786094034,0.00500337631021308,,
0.458984375,0.165334417885642,0.00485105796662388,,
0.46142578125,0.158751958567342,0.0047102175270255,,
0.4638671875,0.152046714392072,0.00449880633097921,,
0.46630859375,0.145377766895076,0.00434398454228635,,
0.46875,0.138739161152573,0.00415133062520212,,
0.47119140625,0.131932116137461,0.0039819377136916,,
0.4736328125,0.125161970382194,0.00381640513927639,,
0.47607421875,0.118300444903698,0.00366552204922233,,
0.478515625,0.111471281600264,0.00347529321569828,,
0.48095703125,0.104607523025351,0.00331388080875961,,
0.4833984375,0.0976913398535968,0.00315882805972789,,
0.48583984375,0.0907858613662552,0.00295632533390089,,
0.48828125,0.0837698268832765,0.00278954309907986,,
0.49072265625,0.0767767613920173,0.00263526159260863,,
0.4931640625,0.0698693688220324,0.00245388761351117,,
0.49560546875,0.0629185549328249,0.00227515318114513,,
0.498046875,0.0559027685716704,0.00209578360784723,,
0.50048828125,0.0488280355542978,0.00190989352926341,,
0.5029296875,0.0417590093388801,0.00173131169569274,,
0.50537109375,0.0348160999020699,0.00158669752912655,,
0.5078125,0.0276942946300624,0.00137561215212978,,
0.51025390625,0.0206669174351236,0.001158777512408,,
0.5126953125,0.0135215760357987,0.00101799068860275,,
0.51513671875,0.0065055415528201,0.000822449767281075,,
0.517578125,-0.000580534176512732,0.000644350475847322,,
0.52001953125,-0.00769354884675103,0.000476339202079235,,
0.5224609375,-0.0147791283324356,0.000302817874508587,,
0.52490234375,-0.021764466601172,0.000117888755907014,,
0.52734375,-0.0288942826635013,-6.65000804733751E-05,,
0.52978515625,-0.0359329316784506,-0.000217383170527441,,
0.5322265625,-0.042995754848265,-0.000397979720626385,,
0.53466796875,-0.0500475188739182,-0.000604076766729467,,
0.537109375,-0.057069791848475,-0.000776521654148876,,
0.53955078125,-0.0641172314651934,-0.000969340542903652,,
0.5419921875,-0.0711115730115482,-0.0011067949389596,,
0.54443359375,-0.078067136661389,-0.00131370240839512,,
0.546875,-0.0850387218918736,-0.00150554796429248,,
0.54931640625,-0.0919398405243055,-0.00167621115766758,,
0.5517578125,-0.0989147576764284,-0.0018515265521577,,
0.55419921875,-0.105818499311001,-0.00202179587566897,,
0.556640625,-0.112625827893912,-0.00223130783535597,,
0.55908203125,-0.119545945568877,-0.00239010956560515,,
0.5615234375,-0.126369224840482,-0.00257268577575331,,
0.56396484375,-0.1330749652594,-0.00273819979085577,,
0.56640625,-0.139845855380139,-0.002928445121547,,
0.56884765625,-0.146491479425667,-0.00310562469591602,,
0.5712890625,-0.153216502454917,-0.00326421196299354,,
0.57373046875,-0.159933727369695,-0.00341014590292543,,
0.576171875,-0.166533767891533,-0.00360067168545708,,
0.57861328125,-0.173099496709692,-0.00376356471314043,,
0.5810546875,-0.179626660307186,-0.00394323535973751,,
0.58349609375,-0.186037277539289,-0.00410789358429797,,
0.5859375,-0.192537147736129,-0.00427542231592914,,
0.58837890625,-0.198947623184333,-0.00450400706289944,,
0.5908203125,-0.205302023100284,-0.00460808768996568,,
0.59326171875,-0.211598078941589,-0.00478866568075231,,
0.595703125,-0.217714990825873,-0.0049338407509989,,
0.59814453125,-0.223930442520311,-0.00510745693727976,,
0.6005859375,-0.23024259083421,-0.00528039673971126,,
0.60302734375,-0.236190496310287,-0.00542659463431638,,
0.60546875,-0.242170374055701,-0.00558638413244417,,
0.60791015625,-0.248265096759713,-0.00572784734009923,,
0.6103515625,-0.25404484653098,-0.00588625520048458,,
0.61279296875,-0.259999415850334,-0.00605012156102536,,
0.615234375,-0.265412087105789,-0.00619118883667058,,
0.61767578125,-0.271497026720736,-0.00638219509919313,,
0.6201171875,-0.277179370953044,-0.00649698032554458,,
0.62255859375,-0.282757433127269,-0.00667821614086783,,
0.625,-0.288399014488471,-0.00682428412028235,,
0.62744140625,-0.293925750891076,-0.00695180722176048,,
0.6298828125,-0.299103131765307,-0.00711075742651346,,
0.63232421875,-0.304394436002789,-0.00728359824594227,,
0.634765625,-0.309797962196726,-0.00738693650049038,,
0.63720703125,-0.314990088596505,-0.00754588670524337,,
0.6396484375,-0.319978542424649,-0.00764112485075863,,
0.64208984375,-0.324908864853997,-0.00779162850597004,,
0.64453125,-0.329982814373541,-0.00792133129564743,,
0.64697265625,-0.334768304549548,-0.00807373212507212,,
0.6494140625,-0.339904000957325,-0.00819572661343448,,
0.65185546875,-0.344309864742413,-0.00831844903929424,,
0.654296875,-0.349091597645083,-0.00842822118900122,,
0.65673828125,-0.353610250522226,-0.0085437508500168,,
0.6591796875,-0.357960464126759,-0.00867221429001797,,
0.66162109375,-0.362676834651758,-0.00882963025823313,,
0.6640625,-0.366709168753608,-0.00891775606259371,,
0.66650390625,-0.370884066566407,-0.00904719695974388,,
0.6689453125,-0.375180969424727,-0.00914132773291909,,
0.67138671875,-0.379298941001876,-0.00928546348163994,,
0.673828125,-0.383307455408609,-0.0093878778948322,,
0.67626953125,-0.387069620289957,-0.00950408393969804,,
0.6787109375,-0.390821151378841,-0.00960522807102526,,
0.68115234375,-0.394306766764209,-0.00968797992321191,,
0.68359375,-0.398019236388781,-0.00978145080970405,,
0.68603515625,-0.401664571336939,-0.00988445912091107,,
0.6884765625,-0.405130833220024,-0.00999396731594482,,
0.69091796875,-0.408251496848073,-0.0100967446668125,,
0.693359375,-0.411383503188082,-0.0101805502755457,,
0.69580078125,-0.414638010817261,-0.0102831131632417,,
0.6982421875,-0.417514806138165,-0.0103254283967851,,
0.70068359375,-0.420666095088507,-0.0104268034884516,,
0.703125,-0.423612931655765,-0.0105428445616464,,
0.70556640625,-0.426264290576461,-0.0106088146706274,,
0.7080078125,-0.428528295883716,-0.0106654865638163,,
0.71044921875,-0.431061407032226,-0.0107472609588539,,
0.712890625,-0.433794929722683,-0.0108293694215242,,
0.71533203125,-0.435908076960868,-0.0108837750163868,,
0.7177734375,-0.438416021467217,-0.0109316827895682,,
0.72021484375,-0.440269704169312,-0.0109981828700412,,
0.72265625,-0.442143520185136,-0.0110960935566222,,
0.72509765625,-0.444286158474417,-0.0111169769079917,,
0.7275390625,-0.44610326093044,-0.011213439968162,,
0.72998046875,-0.447824517470399,-0.0112487913350545,,
0.732421875,-0.449221939583895,-0.011287528745489,,
0.73486328125,-0.451037269741175,-0.0112953298433687,,
0.7373046875,-0.452066408175713,-0.011382088445008,,
0.73974609375,-0.453526782340588,-0.0114585858087279,,
0.7421875,-0.454598030593279,-0.0114892540423175,,
0.74462890625,-0.455401094600061,-0.0115290122149645,,
0.7470703125,-0.456321130323932,-0.011527098543584,,
0.74951171875,-0.457489713223631,-0.0115741649612446,,
0.751953125,-0.458067907965802,-0.0116345445927335,,
0.75439453125,-0.458691402663864,-0.0116336702428788,,
0.7568359375,-0.459221674448003,-0.0116428756621056,,
0.75927734375,-0.459803555571561,-0.0116955841109054,,
0.76171875,-0.460158866023715,-0.0116950912580394,,
0.76416015625,-0.460132565110357,-0.0117069836533532,,
0.7666015625,-0.460167373057685,-0.011707860065354,,
0.76904296875,-0.460303485601207,-0.0117055999534648,,
0.771484375,-0.460017365692011,-0.0117234663854053,,
0.77392578125,-0.460101939788064,-0.0117412482693648,,
0.7763671875,-0.459868209029735,-0.011727805140346,,
0.77880859375,-0.459139439786292,-0.0117225920355506,,
0.78125,-0.458426904799343,-0.0117331337253104,,
0.78369140625,-0.457880186082861,-0.0117347648827049,,
0.7861328125,-0.456986025920649,-0.0116963924720919,,
0.78857421875,-0.456366146712024,-0.0117075961106807,,
0.791015625,-0.454801136029316,-0.0116896451307591,,
0.79345703125,-0.453589734391968,-0.0116506788221313,,
0.7958984375,-0.452751507978109,-0.0116359963434363,,
0.79833984375,-0.451761501899833,-0.0116369036876249,,
0.80078125,-0.449946667986202,-0.0116133952245452,,
0.80322265625,-0.448439292458642,-0.0115788666538608,,
0.8056640625,-0.446868326852155,-0.0115539868637677,,
0.80810546875,-0.445133175490044,-0.0114888581103076,,
0.810546875,-0.44360984927379,-0.0114631885183414,,
0.81298828125,-0.441560788358181,-0.0114388716940752,,
0.8154296875,-0.439496131213626,-0.0114023304690072,,
0.81787109375,-0.437270194883388,-0.0113542742213224,,
0.8203125,-0.434970672709307,-0.011290215721576,,
0.82275390625,-0.432814635841524,-0.0112356121607089,,
0.8251953125,-0.430046234311789,-0.0111857061681655,,
0.82763671875,-0.427536092154998,-0.0111266793043767,,
0.830078125,-0.424738412250016,-0.0111082169122754,,
0.83251953125,-0.422214942406671,-0.0110173195838468,,
0.8349609375,-0.419348355526531,-0.0109569234551907,,
0.83740234375,-0.416324104950144,-0.0108872724158062,,
0.83984375,-0.413199471372909,-0.0108326337984592,,
0.84228515625,-0.410156221753989,-0.0107599142859991,,
0.8447265625,-0.406620982003795,-0.0106993717449853,,
0.84716796875,-0.403713561360598,-0.0106260232780309,,
0.849609375,-0.400002509575021,-0.0105134301127543,,
0.85205078125,-0.396330590145707,-0.0104358253766947,,
0.8544921875,-0.392763023666427,-0.010373666113308,,
0.85693359375,-0.389036659219704,-0.0102958324790552,,
0.859375,-0.385693182193587,-0.0101844601041421,,
0.86181640625,-0.381322764383374,-0.0100986439031718,,
0.8642578125,-0.377555566173594,-0.0100368248938558,,
0.86669921875,-0.373217829552217,-0.00992271398920863,,
0.869140625,-0.36909645516148,-0.00982566321746114,,
0.87158203125,-0.364795582353973,-0.00970477197714681,,
0.8740234375,-0.360788202218436,-0.00960359691363077,,
0.87646484375,-0.356433167961319,-0.00951434311547184,,
0.87890625,-0.351750045760754,-0.00941080895706436,,
0.88134765625,-0.347059550797414,-0.00930052539517812,,
0.8837890625,-0.342466319589133,-0.00920053606554605,,
0.88623046875,-0.337498707994216,-0.00908424753484516,,
0.888671875,-0.33292121479878,-0.00897025004822138,,
0.89111328125,-0.3279714679752,-0.00886231114620539,,
0.8935546875,-0.322898723618802,-0.00872622601501627,,
0.89599609375,-0.317777772736572,-0.00859802652968833,,
0.8984375,-0.312760040533181,-0.0085154912028198,,
0.90087890625,-0.307311285275303,-0.00835315907881684,,
0.9033203125,-0.302025581501852,-0.00821208974102561,,
0.90576171875,-0.296851887009008,-0.00811315829223203,,
