Time domain (s),Current (AC) (A),Potential (AC) (V),Frequency (Hz),Column 5
0,-0.417306171130047,-0.00688507536601879,251.19,0.5
0.000124407818782595,-0.446118077347938,-0.00757470653637915,,
0.00024881563756519,-0.458430236720981,-0.00799594519298852,,
0.000373223456347785,-0.45199615425351,-0.00807765778745351,,
0.000497631275130379,-0.429282657121018,-0.00787664678303024,,
0.000622039093912974,-0.389725232727637,-0.00736877953916748,,
0.000746446912695569,-0.33517217598728,-0.00656972150363755,,
0.000870854731478164,-0.267644120143706,-0.00556486732059547,,
0.000995262550260759,-0.189975538023819,-0.00430714000679266,,
0.00111967036904335,-0.105005793999053,-0.00288640591879785,,
0.00124407818782595,-0.0161535814542122,-0.00132874522757653,,
0.00136848600660854,0.073548554676196,0.000243313495139397,,
0.00149289382539114,0.160864467777978,0.00183146368790599,,
0.00161730164417373,0.241715921211821,0.00335427423526324,,
0.00174170946295633,0.312874672815929,0.00473204245499481,,
0.00186611728173892,0.372102061155082,0.00593256106286866,,
0.00199052510052152,0.416953129220286,0.00689506710995058,,
0.00211493291930411,0.445603401792744,0.00760422379422554,,
0.00223934073808671,0.457097538957608,0.00803275351782418,,
0.0023637485568693,0.452061091279482,0.00814354365428382,,
0.0024881563756519,0.428713536548416,0.0079306298917099,,
0.00261256419443449,0.389490155022262,0.00741435175086913,,
0.00273697201321709,0.335230590953875,0.00661119020789513,,
0.00286137983199968,0.268113495743009,0.00560250638887361,,
0.00298578765078228,0.19035410103549,0.00432022497676599,,
0.00311019546956487,0.105457588394818,0.00289165055734442,,
0.00323460328834747,0.0168023845783354,0.00135830204463439,,
0.00335901110713006,-0.0732043033682041,-0.000241499857440708,,
0.00348341892591266,-0.160820514769133,-0.0018264609691534,,
0.00360782674469525,-0.241508314136975,-0.00332003421616189,,
0.00373223456347785,-0.31275763020689,-0.00470454575995349,,
0.00385664238226044,-0.372313106489492,-0.00591006556507212,,
0.00398105020104304,-0.417213160891974,-0.00691286266911373,,
0.00410545801982563,-0.446390869570581,-0.00758983641328781,,
0.00422986583860822,-0.457704019587729,-0.00799812399263988,,
0.00435427365739082,-0.452364225256618,-0.00811766736540775,,
0.00447868147617341,-0.429119392960741,-0.0079054580611011,,
0.00460308929495601,-0.389763797948302,-0.00737603561147004,,
0.0047274971137386,-0.335156579758335,-0.00660921833335015,,
0.0048519049325212,-0.267616117823555,-0.00556829984295115,,
0.00497631275130379,-0.190109382024949,-0.00431373726607243,,
0.00510072057008639,-0.104984880873877,-0.00289625159794848,,
0.00522512838886898,-0.0161099120131655,-0.00134470280491117,,
0.00534953620765158,0.0735173622183055,0.000240879082121115,,
0.00547394402643417,0.16092373344797,0.00182363705005262,,
0.00559835184521677,0.241515155210126,0.00334432965808373,,
0.00572275966399936,0.312999159079692,0.00473612313981642,,
0.00584716748278196,0.371937591831659,0.00592683714925979,,
0.00597157530156455,0.416748960405003,0.00692315110713215,,
0.00609598312034715,0.445749439209231,0.00762463634738353,,
0.00622039093912974,0.45757846994472,0.00801456845257809,,
0.00634479875791234,0.451883294269506,0.00812809730368347,,
0.00646920657669493,0.429115068551806,0.00794567760717868,,
0.00659361439547753,0.389445918445617,0.00742946945571221,,
0.00671802221426012,0.335363584251609,0.00665073724737608,,
0.00684243003304272,0.268172477845202,0.00558956444066538,,
0.00696683785182531,0.190451648358348,0.00432414438172568,,
0.00709124567060791,0.105463826886396,0.00287948762130208,,
0.0072156534893905,0.0167836691036011,0.00135944621875295,,
0.0073400613081731,-0.0732045869360032,-0.000233624531326804,,
0.00746446912695569,-0.16069574493757,-0.0018387182387003,,
0.00758887694573829,-0.241468401969265,-0.00333150030147777,,
0.00771328476452088,-0.312832704781676,-0.00471324878649382,,
0.00783769258330348,-0.37220535072587,-0.00590203352361973,,
0.00796210040208607,-0.417332188475606,-0.0068609381609428,,
0.00808650822086867,-0.446348617968529,-0.00755765195167868,,
0.00821091603965126,-0.458029555420987,-0.00799021062882233,,
0.00833532385843386,-0.45267161275074,-0.00809060734320211,,
0.00845973167721645,-0.429274150087048,-0.00789630466815217,,
0.00858413949599905,-0.389874956525512,-0.0073768024515708,,
0.00870854731478164,-0.335080654480151,-0.006593041658844,,
0.00883295513356423,-0.267730679214353,-0.00556469691168404,,
0.00895736295234683,-0.189994820634151,-0.0043077242659173,,
0.00908177077112942,-0.104943196407423,-0.00288832758357405,,
0.00920617858991202,-0.0161235232675177,-0.00134520185957987,,
0.00933058640869461,0.0735556438711712,0.000231275322764457,,
0.00945499422747721,0.161076009356036,0.00183699893450617,,
0.0095794020462598,0.241712801966032,0.00333555359915305,,
0.0097038098650424,0.312698577212747,0.00470724795840383,,
0.00982821768382499,0.372245830029178,0.00592568384609216,,
0.00995262550260759,0.416523524004794,0.00690268377968151,,
0.0100770333213902,0.445694427056225,0.0076006817232841,,
0.0102014411401728,0.457585842707494,0.00802423307226041,,
0.0103258489589554,0.451893786278069,0.0081280364433578,,
0.010450256777738,0.428996820779621,0.00791483055122155,,
0.0105746645965206,0.389561614107611,0.00743404615218646,,
0.0106990724153032,0.335349689429457,0.00662109826887924,,
0.0108234802340858,0.268078616903732,0.00559528531125819,,
0.0109478880528683,0.190516868952119,0.00431169235913709,,
0.0110722958716509,0.105537838081936,0.00288238457279366,,
0.0111967036904335,0.0167513423745145,0.00134517751545005,,
0.0113211115092161,-0.0732156460801643,-0.000250348948761747,,
0.0114455193279987,-0.160716090927149,-0.00183305822843272,,
0.0115699271467813,-0.241334487076185,-0.00331950016680604,,
0.0116943349655639,-0.31277740906087,-0.00471081437347554,,
0.0118187427843465,-0.372170188318793,-0.00590904463311226,,
0.0119431506031291,-0.417549117841845,-0.00686367535408028,,
0.0120675584219117,-0.44629140816508,-0.00758747503265989,,
0.0121919662406943,-0.45811412951704,-0.00799929098938046,,
0.0123163740594769,-0.452379254349965,-0.00810409399132306,,
0.0124407818782595,-0.429123362909927,-0.00787898381952745,,
0.0125651896970421,-0.389769540196232,-0.00738831570363852,,
0.0126895975158247,-0.334972260688982,-0.00661050857224987,,
0.0128140053346073,-0.267701188163256,-0.0055510885429122,,
0.0129384131533899,-0.190022326710655,-0.00430685852778767,,
0.0130628209721725,-0.104944897814217,-0.00287983148214055,,
0.0131872287909551,-0.0161073599029744,-0.00133585371358969,,
0.0133116366097376,0.0735321077438538,0.000251333364526651,,
0.0134360444285202,0.160958364165424,0.00185188841312911,,
0.0135604522473028,0.241710816991439,0.00331819623433338,,
0.0136848600660854,0.312845465332631,0.00470778352926793,,
0.013809267884868,0.371781062406609,0.00592128973059447,,
0.0139336757036506,0.41684395561767,0.00690301546845529,,
0.0140580835224332,0.445620132292885,0.00760352694349908,,
0.0141824913412158,0.457319856112027,0.00798707175753721,,
0.0143068991599984,0.452020257516425,0.00810376534556623,,
0.014431306978781,0.428937838677428,0.00790191903317616,,
0.0145557147975636,0.389593657268899,0.00741482341839106,,
0.0146801226163462,0.335361315709217,0.0066233470579049,,
0.0148045304351288,0.267864523215483,0.00557085597662033,,
0.0149289382539114,0.190375935756014,0.00432155173186111,,
0.015053346072694,0.105455886988024,0.00287829475892298,,
0.0151777538914766,0.0167189801994531,0.0013367696614881,,
0.0153021617102592,-0.0732099747241842,-0.000242936161121587,,
0.0154265695290418,-0.160715523791551,-0.00183117155834367,,
0.0155509773478244,-0.241484778009657,-0.00333055240190872,,
0.015675385166607,-0.312853192555154,-0.00470592120330871,,
0.0157997929853895,-0.37218826576598,-0.00590675628487514,,
0.0159242008041721,-0.417161267984756,-0.0068861815024337,,
0.0160486086229547,-0.44620853547582,-0.00758513799616223,,
0.0161730164417373,-0.458060180743279,-0.00800177409065883,,
0.0162974242605199,-0.452204860153577,-0.00813358690503918,,
0.0164218320793025,-0.429574164818395,-0.00790360790720701,,
0.0165462398980851,-0.389652922938891,-0.00740774231952424,,
0.0166706477168677,-0.334945321748076,-0.00661622944284268,,
0.0167950555356503,-0.267588611747051,-0.00557725848285795,,
0.0169194633544329,-0.190166379152549,-0.00430565501485169,,
0.0170438711732155,-0.105015789763968,-0.00288082959147795,,
0.0171682789919981,-0.0160764510128829,-0.00136304610700355,,
0.0172926868107807,0.0734813491078319,0.000242607515364313,,
0.0174170946295633,0.160939081555091,0.00183808529131557,,
0.0175415024483459,0.241762107317084,0.00332980838442998,,
0.0176659102671285,0.312780811874458,0.00473149775508164,,
0.0177903180859111,0.371990619010073,0.00593840365411236,,
0.0179147259046937,0.416741020506631,0.006876796840249,,
0.0180391337234763,0.445610774555518,0.00759727050204217,,
0.0181635415422588,0.457486593977842,0.00803163368783588,,
0.0182879493610414,0.451613054157054,0.00812602805261786,,
0.018412357179824,0.429058071424207,0.00792290063037671,,
0.0185367649986066,0.389406218953757,0.00739228379685875,,
0.0186611728173892,0.335426252735189,0.00662683131153718,,
0.0187855806361718,0.268219798221661,0.0055691884037028,,
0.0189099884549544,0.190438604239594,0.00430229552488681,,
0.019034396273737,0.105463259750798,0.00287137189690245,,
0.0191588040925196,0.0167898721492043,0.0013458743661765,,
0.0192832119113022,-0.0732476892414519,-0.000248086466163144,,
0.0194076197300848,-0.160630524343799,-0.00183779316175325,,
0.0195320275488674,-0.241445929221194,-0.0033463137046934,,
0.01965643536765,-0.312719064986225,-0.00477765118289097,,
0.0197808431864326,-0.372211305649649,-0.00592216611928054,,
0.0199052510052152,-0.417243502646467,-0.00688286005017202,,
0.0200296588239978,-0.446205983365629,-0.00758203411956426,,
0.0201540666427804,-0.458132774099825,-0.00799969418903634,,
0.020278474461563,-0.452335868476718,-0.00813406313708587,,
0.0204028822803456,-0.429329445807854,-0.00791238396613769,,
0.0205272900991282,-0.389462081810161,-0.0074120390585013,,
0.0206516979179107,-0.334808925636755,-0.00659464989294412,,
0.0207761057366933,-0.267592014560639,-0.00558204058293077,,
0.0209005135554759,-0.190010133295297,-0.00432884279885037,,
0.0210249213742585,-0.105012103382581,-0.00286206026710767,,
0.0211493291930411,-0.0160903458350342,-0.00136246184787892,,
0.0212737370118237,0.0735629811879704,0.000227781940083105,,
0.0213981448306063,0.160924584151367,0.00181524745418837,,
0.0215225526493889,0.241661192626613,0.00333891308911838,,
0.0216469604681715,0.312886866231286,0.00473434297529707,,
0.0217713682869541,0.372103762561876,0.00590451662489899,,
0.0218957761057367,0.416713514430127,0.00688436786473545,,
0.0220201839245193,0.445876761150985,0.007578379457021,,
0.0221445917433019,0.457496802418606,0.00801310780476738,,
0.0222689995620845,0.451595472953516,0.0081035949366548,,
0.0223934073808671,0.428885662202412,0.00795244223235292,,
0.0225178151996497,0.389458111860975,0.00742647512769956,,
0.0226422230184323,0.335308288530803,0.00664605100231608,,
0.0227666308372149,0.268189775480942,0.00561046387642694,,
0.0228910386559975,0.190562523367759,0.00433619168314925,,
0.02301544647478,0.105542091598921,0.0028786751359573,,
0.0231398542935626,0.0166790325857683,0.00134796491835587,,
0.0232642621123452,-0.0732108254275813,-0.000234233134581263,,
0.0233886699311278,-0.160733743022637,-0.00180404002525547,,
0.0235130777499104,-0.241446212788993,-0.00334648411360483,,
0.023637485568693,-0.312782584173202,-0.00472716145689267,,
0.0237618933874756,-0.372359540716579,-0.00592298164764182,,
0.0238863012062582,-0.417471491156867,-0.00686561223393811,,
0.0240107090250408,-0.446310903451261,-0.00757729766473547,,
0.0241351168438234,-0.458093925311361,-0.00797912187752425,,
0.024259524662606,-0.452057404898095,-0.0081223536104682,,
0.0243839324813886,-0.429426142427315,-0.00790749079597131,,
0.0245083403001712,-0.389657176455876,-0.00740115723231005,,
0.0246327481189538,-0.335072076554232,-0.00662162166767777,,
0.0247571559377364,-0.267727843536363,-0.00558989156491441,,
0.024881563756519,-0.190050967058354,-0.00431168018707195,,
0.0250059715753016,-0.105002107617666,-0.00288481137827112,,
0.0251303793940842,-0.0161009087355471,-0.00135970031061161,,
0.0252547872128668,0.0734702545176958,0.000244224878513055,,
0.0253791950316494,0.160974811097766,0.00182733735784035,,
0.0255036028504319,0.241606180473606,0.00333242537842482,,
0.0256280106692145,0.31299121918132,0.00473922701641483,,
0.0257524184879971,0.371804314966127,0.00592542518970918,,
0.0258768263067797,0.416742438345626,0.00690133572347262,,
0.0260012341255623,0.445488273266348,0.00761292377774936,,
0.0261256419443449,0.457245561348688,0.00799940205947447,,
0.0262500497631275,0.451734137607229,0.0081200028803976,,
0.0263744575819101,0.428771667947212,0.00792556935564814,,
0.0264988654006927,0.389688652481566,0.00740074033908078,,
0.0266232732194753,0.335113761020685,0.00661867298491003,,
0.0267476810382579,0.268325001875092,0.00555773449045205,,
0.0268720888570405,0.190368279425441,0.00430672311356384,,
0.0269964966758231,0.105481691657733,0.00288028184854916,,
0.0271209044946057,0.016779699154415,0.00135778777488449,,
0.0272453123133883,-0.0732187653259534,-0.000236704063794502,,
0.0273697201321709,-0.160665970318675,-0.00182570630111778,,
0.0274941279509535,-0.241434090265585,-0.00334448941643783,,
0.0276185357697361,-0.312944997630082,-0.00471677868537013,,
0.0277429435885187,-0.37211680668063,-0.00592116800994313,,
0.0278673514073012,-0.417307021833444,-0.0069005080230462,,
0.0279917592260838,-0.446283680942557,-0.00758714638690261,,
0.0281161670448664,-0.457948171462672,-0.00801613864897455,,
0.028240574863649,-0.45197346882959,-0.00812865721867695,,
0.0283649826824316,-0.42922792853581,-0.00791770315858242,,
0.0284893905012142,-0.389756992321126,-0.00741744345540196,,
0.0286137983199968,-0.335250157132007,-0.00660079526430701,,
0.0287382061387794,-0.267653548773023,-0.00556131307758889,,
0.028862613957562,-0.190020625303861,-0.00429952029404568,,
0.0289870217763446,-0.105044359219718,-0.00287443925730502,,
0.0291114295951272,-0.0161329518968346,-0.00135475693067644,,
0.0292358374139098,0.0736103724563791,0.00024894763976846,,
0.0293602452326924,0.160869004862762,0.00181942551553105,,
0.029484653051475,0.241531602142468,0.00332332067373642,,
0.0296090608702576,0.312980443604958,0.00472995190281544,,
0.0297334686890402,0.372044780459683,0.00593542149816528,,
0.0298578765078228,0.416961069118659,0.00689058778999696,,
0.0299822843266054,0.445852941455868,0.00759597113409383,,
0.030106692145388,0.457414000621297,0.00801487275420554,,
0.0302310999641706,0.451752285946366,0.0081295701235593,,
0.0303555077829531,0.428921675312885,0.0079379361737808,,
0.0304799156017357,0.389681279718792,0.00743643187694421,,
0.0306043234205183,0.3354514902693,0.00661070028227506,,
0.0307287312393009,0.268012262038765,0.00556171475573697,,
0.0308531390580835,0.190575567486513,0.00427419022659148,,
0.0309775468768661,0.105498989293472,0.00287083632603835,,
0.0311019546956487,0.0167300747895891,0.00132883347504897,,
0.0312263625144313,-0.0731989864719728,-0.000255960270768796,,
0.0313507703332139,-0.160630240776,-0.00183052643889381,,
0.0314751781519965,-0.241405946161534,-0.00336044547226422,,
0.0315995859707791,-0.312770036298096,-0.00471550061853554,,
0.0317239937895617,-0.372103762561876,-0.00592204439862964,,
0.0318484016083443,-0.417078678863296,-0.00689677272057132,,
0.0319728094271269,-0.446122898000521,-0.00760004877589893,,
0.0320972172459095,-0.457940018888451,-0.00801237748086159,,
0.0322216250646921,-0.45228964692548,-0.00810843941856065,,
0.0323460328834747,-0.429165827187828,-0.00791063118876467,,
0.0324704407022573,-0.389660650161414,-0.00741710263757911,,
0.0325948485210399,-0.33509816479174,-0.00661982020204466,,
0.0327192563398225,-0.267724724290574,-0.00556844590773187,,
0.032843664158605,-0.190058339821128,-0.0043077242659173,,
0.0329680719773876,-0.104932349939111,-0.00288708755444311,,
0.0330924797961702,-0.0161326683290356,-0.00135899280932783,,
0.0332168876149528,0.0734745434806558,0.00023823774399645,,
0.0333412954337354,0.161016460118245,0.00179831915466311,,
0.033465703252518,0.241555138269786,0.00331649214522045,,
0.0335901110713006,0.312905014570422,0.00468991493771442,,
0.0337145188900832,0.372183161545598,0.00590533215325983,,
0.0338389267088658,0.416849910541449,0.00689102598434044,,
0.0339633345276484,0.445683651479862,0.00759886504256935,,
0.034087742346431,0.457383942434603,0.00801840265308185,,
0.0342121501652136,0.451964961795619,0.00810667446912294,,
0.0343365579839962,0.429002492135602,0.0079309341933369,,
0.0344609658027788,0.389642430930328,0.00738857131700588,,
0.0345853736215614,0.335207905529955,0.00662771987228883,,
0.034709781440344,0.268072910101777,0.00557635775004162,,
0.0348341892591266,0.190528495231878,0.00429878692712427,,
0.0349585970779092,0.105474318894959,0.00287222394145914,,
0.0350830048966918,0.016773425216862,0.00134068602343129,,
0.0352074127154743,-0.0732125268343753,-0.00026887483183069,,
0.0353318205342569,-0.160554244605867,-0.00184630143525188,,
0.0354562283530395,-0.241274370702796,-0.00333661256881568,,
0.0355806361718221,-0.312794210452961,-0.00472835279776351,,
0.0357050439906047,-0.372077957892167,-0.00593476420664985,,
0.0358294518093873,-0.417109091509739,-0.00690644799081053,,
0.0359538596281699,-0.446353155053313,-0.00758558836257084,,
0.0360782674469525,-0.458034730533319,-0.00799150086772205,,
0.0362026752657351,-0.452400238367092,-0.00809312696067588,,
0.0363270830845177,-0.429358369723353,-0.00790352118124327,,
0.0364514909033003,-0.389711054337687,-0.00741231901599848,,
0.0365758987220829,-0.335275678233917,-0.00661076418561679,,
0.0367003065408655,-0.267829644376205,-0.00558430610854588,,
0.0368247143596481,-0.189994253498553,-0.004325591335963,,
0.0369491221784307,-0.105050385035447,-0.00287339245970752,,
0.0370735299972133,-0.0161104791487635,-0.00133325041316823,,
0.0371979378159959,0.073602432558007,0.000228585296379258,,
0.0373223456347785,0.16091239073601,0.00183198708670496,,
0.037446753453561,0.24160504620241,0.0033232963296066,,
0.0375711612723436,0.31275188795896,0.00469495417266197,,
0.0376955690911262,0.371976157052324,0.00593071090897501,,
0.0378199769099088,0.416870043855178,0.00687420114736836,,
0.0379443847286914,0.445595178326573,0.00761198957175369,,
0.038068792547474,0.457566843664961,0.00802596150550361,,
0.0381932003662566,0.451737256853018,0.00814222907125428,,
0.0383176081850392,0.428505114216147,0.00792275456559555,,
0.0384420160038218,0.389829585677671,0.00738076902328233,,
0.0385664238226044,0.33550281604092,0.00662781724880945,,
0.038690831641387,0.268076029347566,0.00554772905294731,,
0.0388152394601696,0.19042556012084,0.00430902667688216,,
0.0389396472789522,0.105506078488448,0.00286929047377216,,
0.0390640550977348,0.0167402832303533,0.0013325307398202,,
0.0391884629165174,-0.0732361338536424,-0.000238639422144082,,
0.0393128707353,-0.160726086692064,-0.00180961483106712,,
0.0394372785540826,-0.241487897255447,-0.00330490586076149,,
0.0395616863728652,-0.31281455644254,-0.00471775245057726,,
0.0396860941916478,-0.371937875399458,-0.00592233652819196,,
0.0398105020104304,-0.417227622849723,-0.00686003742812602,,
0.0399349098292129,-0.446250574402023,-0.00757889372677045,,
0.0400593176479955,-0.457848639165222,-0.00797931815207376,,
0.0401837254667781,-0.452571229749892,-0.00813467174034033,,
0.0403081332855607,-0.429213183010262,-0.00791625468283685,,
0.0404325411043433,-0.389738347738341,-0.00738776948221753,,
0.0405569489231259,-0.33497849918056,-0.00662081831138206,,
0.0406813567419085,-0.267747693282293,-0.0055536568486465,,
0.0408057645606911,-0.190000491990131,-0.00430222249249601,,
0.0409301723794737,-0.105010047516038,-0.00287467204804992,,
0.0410545801982563,-0.0161090613097685,-0.00135754433358226,,
