Time domain (s),Current (AC) (A),Potential (AC) (V),Frequency (Hz),Column 5
0,0.249192143395594,0.00539082493791021,50.119,0.3
0.000224076073944013,0.239597934235874,0.00526076653563212,,
0.000448152147888027,0.228578409546775,0.00507127277782438,,
0.00067222822183204,0.216529088656812,0.00484976031081708,,
0.000896304295776053,0.203539902398596,0.00463449452354547,,
0.00112038036972007,0.18930438060139,0.00438747259290162,,
0.00134445644366408,0.174053874740457,0.00412888821799351,,
0.00156853251760809,0.158108256443941,0.0038140288253361,,
0.00179260859155211,0.141437196097707,0.00349150012354915,,
0.00201668466549612,0.123974039084645,0.00316784000174142,,
0.00224076073944013,0.105846804589999,0.00282828987343775,,
0.00246483681338415,0.0870630970591736,0.00246619727534991,,
0.00268891288732816,0.0680314184825495,0.00211384348250521,,
0.00291298896127217,0.048628576844574,0.00172299037844237,,
0.00313706503521619,0.0289032185539651,0.00132432474752653,,
0.0033611411091602,0.00907928901741749,0.000934388236898176,,
0.00358521718310421,-0.0107388214652554,0.000536061554595957,,
0.00380929325704823,-0.0304453119145128,9.66791246992393E-05,,
0.00403336933099224,-0.0500981965341362,-0.000254033631722717,,
0.00425744540493625,-0.0697024567869124,-0.000683667708528013,,
0.00448152147888027,-0.0887434149911171,-0.00108870533468819,,
0.00470559755282428,-0.107435274046579,-0.00146303708078754,,
0.00492967362676829,-0.125525654533352,-0.00184857083987833,,
0.00515374970071231,-0.142961832296631,-0.00223378832649512,,
0.00537782577465632,-0.159698665585146,-0.00259790506841773,,
0.00560190184860033,-0.175635996138264,-0.00296331076985812,,
0.00582597792254435,-0.190753369099942,-0.00331118662186025,,
0.00605005399648836,-0.205059601218475,-0.00360489753058246,,
0.00627413007043237,-0.218015680586843,-0.00392039662907484,,
0.00649820614437638,-0.229845464444258,-0.00420395817507746,,
0.0067222822183204,-0.240819979633311,-0.00445949678638513,,
0.00694635829226441,-0.250567908799556,-0.00471526454605131,,
0.00717043436620842,-0.258943290674966,-0.00492999565381957,,
0.00739451044015244,-0.265967814460349,-0.00511364851544327,,
0.00761858651409645,-0.271921544165296,-0.00530164564803348,,
0.00784266258804046,-0.276442640439779,-0.00541903644260922,,
0.00806673866198448,-0.279471017144167,-0.00553017220308183,,
0.00829081473592849,-0.280985734501259,-0.00561708745943568,,
0.0085148908098725,-0.281432743639818,-0.00566408196865931,,
0.00873896688381652,-0.280226259803122,-0.00571395038021416,,
0.00896304295776053,-0.27799826750896,-0.00572640077436848,,
0.00918711903170454,-0.273789328207864,-0.00566775789024643,,
0.00941119510564856,-0.268456958839011,-0.00562032537348323,,
0.00963527117959257,-0.261907525535507,-0.00555729883352019,,
0.00985934725353658,-0.253944943815272,-0.00543805575637846,,
0.0100834233274806,-0.244839887850962,-0.00528128128113803,,
0.0103074994014246,-0.234512301568059,-0.00512790345292213,,
0.0105315754753686,-0.223053394227675,-0.0049453390460017,,
0.0107556515493126,-0.210293223006423,-0.00470142135952933,,
0.0109797276232566,-0.196735400566917,-0.00449892939977259,,
0.0112038036972007,-0.181843295524178,-0.00423530256749283,,
0.0114278797711447,-0.166401642560207,-0.00394187928769973,,
0.0116519558450887,-0.149815443416314,-0.00363211725254153,,
0.0118760319190327,-0.132782191050119,-0.00334607445946755,,
0.0121001079929767,-0.114939737525403,-0.00300200819892815,,
0.0123241840669207,-0.096598608717119,-0.00264660864248301,,
0.0125482601408647,-0.077737644429358,-0.00226647061115015,,
0.0127723362148088,-0.0584478335045252,-0.00191180623902243,,
0.0129964122887528,-0.0388940491357382,-0.00151410136033903,,
0.0132204883626968,-0.0191140270057,-0.00112760326857231,,
0.0134445644366408,0.000741312196648754,-0.000703086838443667,,
0.0136686405105848,0.0205541105884739,-0.000328171480118655,,
0.0138927165845288,0.0402734955321128,7.2408494376841E-05,,
0.0141167926584728,0.059832547908006,0.000477399574776882,,
0.0143408687324168,0.0791117566930141,0.000864727135863497,,
0.0145649448063609,0.0979826177807363,0.00127527745092326,,
0.0147890208803049,0.116423728514686,0.00167149167179392,,
0.0150130969542489,0.134122292707227,0.00204133712268328,,
0.0152371730281929,0.151285680278257,0.00243227377041855,,
0.0154612491021369,0.167700525919036,0.00276649619938363,,
0.0156853251760809,0.183092805092554,0.00310295282484541,,
0.0159094012500249,0.197823828143942,0.0034430376326533,,
0.016133477323969,0.211222287858015,0.00380653615140014,,
0.016357553397913,0.223851045445929,0.00406791565889142,,
0.016581629471857,0.235010580097954,0.00435201188439782,,
0.016805705545801,0.245461424522022,0.00458634472468011,,
0.017029781619745,0.254461032176723,0.00482168963688023,,
0.017253857693689,0.262154526738993,0.00503642074464805,,
0.017477933767633,0.26886301418174,0.00520656340095904,,
0.017702009841577,0.273652448190583,0.00536277574663213,,
0.0179260859155211,0.277622453612883,0.00549218489522785,,
0.0181501619894651,0.27991304481994,0.00558165062055282,,
0.0183742380634091,0.28093349526761,0.00566608224287357,,
0.0185983141373531,0.280473966346472,0.00569577843797964,,
0.0188223902112971,0.278659126877416,0.00572275110936449,,
0.0190464662852411,0.275752068629569,0.00574246741605844,,
0.0192705423591851,0.271367147032503,0.00567625308825148,,
0.0194946184331292,0.265188898832222,0.00562831095508676,,
0.0197186945070732,0.258310953487244,0.00551324744852844,,
0.0199427705810172,0.24986045291636,0.00538629209694053,,
0.0201668466549612,0.239983402471335,0.00524064921931089,,
0.0203909227289052,0.22917230571193,0.00505019828971331,,
0.0206149988028492,0.217092831542799,0.00483459594078983,,
0.0208390748767932,0.204064675257118,0.00462915488939597,,
0.0210631509507372,0.189768846901574,0.00435897465275437,,
0.0212872270246813,0.174859196529728,0.0040955280361108,,
0.0215113030986253,0.158807424583739,0.00380037778926079,,
0.0217353791725693,0.142167399191504,0.00349690659263668,,
0.0219594552465133,0.124676204918864,0.00317066616483164,,
0.0221835313204573,0.106557081832649,0.00285557762381572,,
0.0224076073944013,0.0880401470633616,0.00247023601517116,,
0.0226316834683453,0.0688723819768031,0.00209750711410184,,
0.0228557595422894,0.0494882098033424,0.00172504555278419,,
0.0230798356162334,0.0297418676517913,0.00133641948433239,,
0.0233039116901774,0.00996925159032097,0.000952796488377761,,
0.0235279877641214,-0.00986600746778581,0.000533894193036843,,
0.0237520638380654,-0.0296297626972196,0.000137411438933199,,
0.0239761399120094,-0.049222164423539,-0.000272574359597044,,
0.0242002159859534,-0.0688433528330416,-0.00067219000141705,,
0.0244242920598974,-0.087905427149413,-0.001091988601015,,
0.0246483681338415,-0.106584634171071,-0.00146714265554682,,
0.0248724442077855,-0.124749957018352,-0.00182930447553487,,
0.0250965202817295,-0.142274125929616,-0.0022404049853515,,
0.0253205963556735,-0.15903723312805,-0.00258494863830494,,
0.0255446724296175,-0.174926600570444,-0.00293947934055661,,
0.0257687485035615,-0.190113096838755,-0.00326650269192008,,
0.0259928245775055,-0.204388073584581,-0.00359133958602831,,
0.0262169006514496,-0.217371440788923,-0.00391872456214504,,
0.0264409767253936,-0.229343615131303,-0.00418956956772298,,
0.0266650527993376,-0.240436759668667,-0.0044357799312631,,
0.0268891288732816,-0.250147570324589,-0.00467223239386305,,
0.0271132049472256,-0.258660493473402,-0.00490365314042096,,
0.0273372810211696,-0.265562420373742,-0.00511181532857385,,
0.0275613570951136,-0.271801680472225,-0.00528879424425144,,
0.0277854331690576,-0.276186249399359,-0.00542143295252684,,
0.0280095092430017,-0.279335239220423,-0.00551747475835329,,
0.0282335853169457,-0.280956815566851,-0.00561727960988234,,
0.0284576613908897,-0.281577690981789,-0.00569347024565836,,
0.0286817374648337,-0.280288858716017,-0.00571442777262821,,
0.0289058135387777,-0.277664112748577,-0.00572073890033975,,
0.0291298896127217,-0.27388243306986,-0.00567814594917238,,
0.0293539656866657,-0.2687972853232,-0.00562908910472126,,
0.0295780417606098,-0.262458572303949,-0.00556873596227581,,
0.0298021178345538,-0.254632650182286,-0.00543746378978538,,
0.0300261939084978,-0.245411918480345,-0.00525987500529901,,
0.0302502699824418,-0.235043598820319,-0.00512013150442403,,
0.0304743460563858,-0.223757808332709,-0.00495758893534237,,
0.0306984221303298,-0.210873012374306,-0.00471406151716813,,
0.0309224982042738,-0.197374923404499,-0.00448856998439107,,
0.0311465742782178,-0.182554851195331,-0.00424772551158314,,
0.0313706503521619,-0.167071406844442,-0.00396603534384266,,
0.0315947264261059,-0.150544412165349,-0.00368556730068192,,
0.0318188025000499,-0.13336850481174,-0.00334867028071795,,
0.0320428785739939,-0.115691982489938,-0.00302861805207844,,
0.0322669546479379,-0.097356452316821,-0.00265985150804449,,
0.0324910307218819,-0.0785486089375377,-0.00227762249793839,,
0.0327151067958259,-0.0593489051802805,-0.00191112834179474,,
0.0329391828697699,-0.0397046609739862,-0.00148995246508266,,
0.033163258943714,-0.0199612724331139,-0.00109963762096621,,
0.033387335017658,-9.06582143439675E-05,-0.000767907180402094,,
0.033611411091602,0.0196962409793644,-0.000321545273413992,,
0.033835487165546,0.0393907406509405,5.02753885878171E-05,,
0.03405956323949,0.0590589664125974,0.000480284218438154,,
0.034283639313434,0.0783092783050683,0.00086764877743617,,
0.034507715387378,0.0972254133952857,0.00127124587198768,,
0.0347317914613221,0.115623344104461,0.00165808649281196,,
0.0349558675352661,0.133440934398984,0.00204902314054722,,
0.0351799436092101,0.150443702857949,0.00239694673179081,,
0.0354040196831541,0.166980902923193,0.00275078760200431,,
0.0356280957570981,0.182401219356289,0.00311022828523333,,
0.0358521718310421,0.197140882821007,0.00342871586023641,,
0.0360762479049861,0.210728373618526,0.00380257140740259,,
0.0363003239789301,0.223037259578295,0.00405808137516539,,
0.0365244000528742,0.234642392689152,0.00432849792105161,,
0.0367484761268182,0.245023232131757,0.00457766573059581,,
0.0369725522007622,0.254041002287946,0.00479668143527867,,
0.0371966282747062,0.262036734981771,0.0050269397313083,,
0.0374207043486502,0.268420766087259,0.00520060554363333,,
0.0376447804225942,0.273459537737887,0.00536588834517104,,
0.0378688564965382,0.277551566956591,0.00547895157751466,,
0.0380929325704823,0.279906344091236,0.00558698070685404,,
0.0383170086444263,0.280876539073624,0.00565080807259122,,
0.0385410847183703,0.280599164172262,0.00570384398281254,,
0.0387651607923143,0.278704092293721,0.00573176189117675,,
0.0389892368662583,0.275704987193673,0.00572070548287096,,
0.0392133129402023,0.271419165847444,0.00567743702143808,,
0.0394373890141463,0.265672056638791,0.00562234593687494,,
0.0396614650880903,0.25849698687627,0.00553340534320501,,
0.0398855411620344,0.249906123672528,0.00539564660129077,,
0.0401096172359784,0.240337306747898,0.00523581800808204,,
0.0403336933099224,0.229666748956317,0.00506489242821262,,
0.0405577693838664,0.217674031590409,0.0048348632805415,,
0.0407818454578104,0.204562821535789,0.00462758188139212,,
0.0410059215317544,0.190484590528167,0.00440276108495663,,
0.0412299976056984,0.175265824961096,0.00411204581363123,,
0.0414540736796425,0.159360388994935,0.00384558685085601,,
0.0416781497535865,0.142887022187347,0.00351852053417545,,
0.0419022258275305,0.125430742237955,0.00317203150713574,,
0.0421263019014745,0.10743470095794,0.00283358892923191,,
0.0423503779754185,0.0888507589016095,0.00247484762588934,,
0.0425744540493625,0.0696880854871915,0.0021207179332654,,
0.0427985301233065,0.0503266825662028,0.00175306848747958,,
0.0430226061972505,0.0306411759778876,0.00134816333771415,,
0.0432466822711946,0.010790774154584,0.00096174998310028,,
0.0434707583451386,-0.00898305420977689,0.00054802500848794,,
0.0436948344190826,-0.0287542595915201,0.000158673303567003,,
0.0439189104930266,-0.0483896870495193,-0.00026203472857933,,
0.0441429865669706,-0.0679421048223205,-0.000638839367382626,,
0.0443670626409146,-0.0871056158278265,-0.00106944732471215,,
0.0445911387148586,-0.105835563235923,-0.00144677828865136,,
0.0448152147888027,-0.123928544663443,-0.00182058609657609,,
0.0450392908627467,-0.141297759223421,-0.00221688028067613,,
0.0452633669366907,-0.158239670077279,-0.00256825899951529,,
0.0454874430106347,-0.174374495792207,-0.00292941590847207,,
0.0457115190845787,-0.189484815355249,-0.00327050324034861,,
0.0459355951585227,-0.203612067483391,-0.00358542946794405,,
0.0461596712324667,-0.21677106431377,-0.00390960636703985,,
0.0463837473064107,-0.229047901393487,-0.00417245027576074,,
0.0466078233803548,-0.239890518028046,-0.00442786476504065,,
0.0468318994542988,-0.249676403295701,-0.00467467664302212,,
0.0470559755282428,-0.25837236213912,-0.00491267585704325,,
0.0472800516021868,-0.265303075722643,-0.00511214950326355,,
0.0475041276761308,-0.271320815020212,-0.0052643231091154,,
0.0477282037500748,-0.275904289788883,-0.00543585975127447,,
0.0479522798240188,-0.279256946495563,-0.00553295182041191,,
0.0481763558979629,-0.280960694936101,-0.00560995641025341,,
0.0484004319719069,-0.281612605305037,-0.005704823830742,,
0.0486245080458509,-0.280348283599526,-0.00569900799765977,,
0.0488485841197949,-0.277995622484472,-0.00572415703002349,,
0.0490726601937389,-0.274258379217161,-0.00567381122605459,,
0.0492967362676829,-0.269144841540991,-0.00563467459596367,,
0.0495208123416269,-0.262675287977041,-0.00555452876403839,,
0.0497448884155709,-0.254878152538562,-0.00544707847300119,,
0.049968964489515,-0.245828068999872,-0.00531086886946985,,
0.050193040563459,-0.235416194603268,-0.00515589774407266,,
0.050417116637403,-0.224091257753228,-0.00496284144537595,,
0.050641192711347,-0.211458091791167,-0.00473923919307673,,
0.050865268785291,-0.19785631786141,-0.00448772022589417,,
0.051089344859235,-0.183270594821924,-0.00424440166690143,,
0.051313420933179,-0.167611168175065,-0.00398126296836487,,
0.0515374970071231,-0.151403339784254,-0.00365812678473132,,
0.0517615730810671,-0.134280685590347,-0.00336437768461595,,
0.0519856491550111,-0.116483373816903,-0.00304063759957929,,
0.0522097252289551,-0.0981505327520157,-0.00267711282424976,,
0.0524338013028991,-0.07938624410931,-0.00229932475707395,,
0.0526578773768431,-0.0601648070675054,-0.00193077781355022,,
0.0528819534507871,-0.0405963868965487,-0.00157116765601462,,
0.0531060295247311,-0.0208548057890769,-0.00115391713842561,,
0.0533301055986752,-0.000925449984791109,-0.000752363283405444,,
0.0535541816726192,0.0188815734369007,-0.00036467409756602,,
0.0537782577465632,0.0385353397313537,3.77116137353362E-05,,
0.0540023338205072,0.0581674168250008,0.000446178110908857,,
0.0542264098944512,0.0775681424433855,0.000831825250697804,,
0.0544504859683952,0.0963887039820844,0.00125330785203603,,
0.0546745620423392,0.114866536472684,0.00163178217080651,,
0.0548986381162833,0.132682870380575,0.00200371860046866,,
0.0551227141902273,0.149775217002217,0.00239878707954633,,
0.0553467902641713,0.166143642463223,0.00273821547278486,,
0.0555708663381153,0.181617939437756,0.00310557848312198,,
0.0557949424120593,0.19647521832473,0.00342780881464977,,
0.0560190184860033,0.210050013004704,0.00374351796580408,,
0.0562430945599473,0.222829889658395,0.00403616906336746,,
0.0564671706338913,0.23429272045177,0.00432982268499993,,
0.0566912467078354,0.244703536838579,0.00455561020107398,,
0.0569153227817794,0.253658884416838,0.00481140421732285,,
0.0571393988557234,0.261455005929263,0.0050106320064498,,
0.0573634749296674,0.268059455742128,0.00518694257274799,,
0.0575875510036114,0.273422331060082,0.00533800624123737,,
0.0578116270775554,0.27712783403353,0.00546655847045008,,
0.0580357031514994,0.279865963384044,0.00556881115158125,,
0.0582597792254434,0.280989393451801,0.00565524543507845,,
0.0584838552993875,0.28080829744182,0.00570725256464755,,
0.0587079313733315,0.279048650817092,0.00570162888201198,,
0.0589320074472755,0.275969136972593,0.00569928965918409,,
0.0591560835212195,0.271723696333555,0.00566978680800556,,
0.0593801595951635,0.266102490290556,0.00558777079129902,,
0.0596042356691075,0.258745090173293,0.00553114011620126,,
0.0598283117430515,0.250535815835762,0.00539610728496998,,
0.0600523878169956,0.240853968197989,0.00522461838205235,,
0.0602764638909396,0.230160663195807,0.00505129629226486,,
0.0605005399648836,0.218167064155069,0.0048541594819107,,
0.0607246160388276,0.205161302410058,0.00464451976423685,,
0.0609486921127716,0.191125039124321,0.00437800112741016,,
0.0611727681867156,0.176254865742965,0.00411566444812861,,
0.0613968442606596,0.160439933698053,0.00382576313086958,,
0.0616209203346036,0.143632919093109,0.00353042908793988,,
0.0618449964085477,0.126280853108565,0.00319261666802273,,
0.0620690724824917,0.108275818745289,0.00284542826109613,,
0.0622931485564357,0.0895626231589527,0.00251020330806195,,
0.0625172246303797,0.0706528140856371,0.00215973044132856,,
0.0627413007043237,0.0511811797690894,0.00174304324678776,,
0.0629653767782677,0.0315463033578586,0.00136383135673768,,
0.0631894528522117,0.0116698260014724,0.000985018089353584,,
0.0634135289261558,-0.00811685277352859,0.000561334708987449,,
0.0636376050000998,-0.0279074550015209,0.000181474758735423,,
0.0638616810740438,-0.0475413836123099,-0.000220623323636371,,
0.0640857571479878,-0.0671365185306007,-0.000635803151630032,,
0.0643098332219318,-0.0862421034998082,-0.00102736995735153,,
0.0645339092958758,-0.105030946786516,-0.0014515808563349,,
0.0647579853698198,-0.123144427153821,-0.00183268322034413,,
0.0649820614437639,-0.140735118430971,-0.00221363281878073,,
0.0652061375177079,-0.157587936043308,-0.00256978665523988,,
0.0654302135916519,-0.173810752906221,-0.00292461334078808,,
0.0656542896655959,-0.188853007172425,-0.00325343168762782,,
0.0658783657395399,-0.202891386477753,-0.00357952889770852,,
0.0661024418134839,-0.21623200832301,-0.00386865683925741,,
0.0663265178874279,-0.228363280888376,-0.00413907099818145,,
0.0665505939613719,-0.239492662261231,-0.00443011925071524,,
0.066774670035316,-0.249287232025957,-0.00470513427902874,,
0.06699874610926,-0.257868925811472,-0.00488946503788013,,
0.067222822183204,-0.265364396207035,-0.00510283080334428,,
0.067446898257148,-0.271251868048545,-0.00527899815191857,,
0.067670974331092,-0.275987343557822,-0.00541873091146439,,
0.067895050405036,-0.278934782512861,-0.00550069918892948,,
0.06811912647898,-0.281140909271252,-0.00560151611237592,,
0.068343202552924,-0.281637115865298,-0.00567943490869016,,
0.0685672786268681,-0.28017300664342,-0.00570423067066761,,
0.0687913547008121,-0.278153971283851,-0.00573996826677137,,
0.0690154307747561,-0.27427120758593,-0.00568522209822753,,
0.0692395068487001,-0.269401056246446,-0.00565231901958096,,
0.0694635829226441,-0.262959319523367,-0.00556016199452269,,
0.0696876589965881,-0.255185283965421,-0.00546260327430081,,
0.0699117350705321,-0.24624633553899,-0.00530849145524881,,
0.0701358111444761,-0.23594096746179,-0.00516026111073531,,
0.0703598872184202,-0.224678938110835,-0.00497660824911161,,
0.0705839632923642,-0.212020423997426,-0.00479289810039818,,
0.0708080393663082,-0.198536618159856,-0.00450223295527685,,
0.0710321154402522,-0.183754502052098,-0.00426733679194591,,
0.0712561915141962,-0.168439413509903,-0.00398881650983363,,
0.0714802675881402,-0.152180315727756,-0.00368680852095782,,
0.0717043436620843,-0.134954814164988,-0.00338283367533698,,
0.0719284197360283,-0.11728111320264,-0.00303161488295656,,
0.0721524958099723,-0.0989722536931155,-0.00271385294442261,,
0.0723765718839163,-0.0801732270621272,-0.00233468043924656,,
0.0726006479578603,-0.0609417389272662,-0.00195671931732111,,
0.0728247240318043,-0.0413516295555036,-0.00154715601107691,,
0.0730488001057483,-0.0217421674212334,-0.00116557506117321,,
0.0732728761796923,-0.00181327449623304,-0.000770685604250865,,
0.0734969522536364,0.0179815597709409,-0.000386356067523685,,
0.0737210283275804,0.037690342574755,2.47647314708388E-05,,
