Time domain (s),Current (AC) (A),Potential (AC) (V),Frequency (Hz),Column 5
0,0.207979753826287,0.00345818259042163,25.119,0.5
0.000242984021059756,0.222730631716746,0.0038113489730085,,
0.000485968042119511,0.236960099316786,0.00413655916509725,,
0.000728952063179267,0.251071850834264,0.00447843900032874,,
0.000971936084239022,0.264835948230161,0.00480297972883736,,
0.00121492010529878,0.278205850939467,0.00514013375979694,,
0.00145790412635853,0.291262765690622,0.00543317622686601,,
0.00170088814741829,0.303556847616478,0.00576246406076031,,
0.00194387216847804,0.315853198084726,0.00602224331695167,,
0.0021868561895378,0.327305934350935,0.00630680185465238,,
0.00242984021059756,0.338348348011984,0.00659739773663848,,
0.00267282423165731,0.348975901983089,0.00684333431180484,,
0.00291580825271707,0.359033484678194,0.00710472940963713,,
0.00315879227377682,0.368357193909474,0.0073500452094839,,
0.00340177629483658,0.377370679968643,0.00760965101374778,,
0.00364476031589633,0.385934994634188,0.00782404976826312,,
0.00388774433695609,0.393872624463933,0.00804212448643593,,
0.00413072835801584,0.401306921450444,0.00825041286427552,,
0.0043737123790756,0.407828980827556,0.00843544042572608,,
0.00461669640013536,0.413680969495619,0.00859519878004722,,
0.00485968042119511,0.419537211680668,0.00879833837435351,,
0.00510266444225487,0.423927691912661,0.00891521454335864,,
0.00534564846331462,0.428353618119529,0.00905185814607146,,
0.00558863248437438,0.432030641769225,0.00916670158020638,,
0.00583161650543413,0.435201496897697,0.00929863763674543,,
0.00607460052649389,0.437680163028799,0.00941453699752737,,
0.00631758454755364,0.439102255540809,0.00949263296715186,,
0.0065605685686134,0.440389653348291,0.00955709622387468,,
0.00680355258967316,0.440861510165835,0.0096008547978772,,
0.00704653661073291,0.440728516868101,0.00965471618590552,,
0.00728952063179267,0.440014209582408,0.0096815555894314,,
0.00753250465285242,0.43843218483176,0.00971499225223704,,
0.00777548867391218,0.436097854710352,0.00970755512046617,,
0.00801847269497193,0.433088916795111,0.00970572931070235,,
0.00826145671603169,0.429952656938117,0.00962692736130233,,
0.00850444073709144,0.425870131335844,0.00961718970922965,,
0.0087474247581512,0.421365940416451,0.00955139056836307,,
0.00899040877921095,0.415982405752343,0.00950996598784171,,
0.00923339280027071,0.410043361769985,0.00939520775816227,,
0.00947637682133047,0.403861583751679,0.0092864412275242,,
0.00971936084239022,0.396786567166507,0.00920951073313203,,
0.00996234486344998,0.388993556914255,0.00905684869275891,,
0.0102053288845097,0.381030973118198,0.00890938412417963,,
0.0104483129055695,0.372099438152941,0.00876183435114486,,
0.0106912969266292,0.362798697913381,0.00860011629434387,,
0.010934280947689,0.35277117340497,0.0084308515571867,,
0.0111772649687488,0.342635609565139,0.00824764676248346,,
0.0114202489898085,0.331448292758799,0.00803103573513786,,
0.0116632330108683,0.320260125249061,0.00779270670065335,,
0.011906217031928,0.308311996037991,0.00759097906589812,,
0.0121492010529878,0.295968289747308,0.00736680614311425,,
0.0123921850740475,0.283348955555994,0.00709907244238606,,
0.0126351690951073,0.270116831351029,0.00683352362734135,,
0.012878153116167,0.256505293430996,0.00659138169346685,,
0.0131211371372268,0.24265811066999,0.00627371818173472,,
0.0133641211582866,0.228544657745718,0.0059995758887359,,
0.0136071051793463,0.213683755549245,0.00571842857227711,,
0.0138500892004061,0.198845184316943,0.00543144779362326,,
0.0140930732214658,0.183574491204932,0.00508106272790965,,
0.0143360572425256,0.168014842505736,0.00473656894170027,,
0.0145790412635853,0.152361900000666,0.00444327999031291,,
0.0148220252846451,0.136346557848469,0.00409180248175733,,
0.0150650093057048,0.120086213117931,0.00377618083394404,,
0.0153079933267646,0.103693442225259,0.00342552493978232,,
0.0155509773478244,0.087082324127352,0.00307614406943868,,
0.0157939613688841,0.0705299045638394,0.00272609373551491,,
0.0160369453899439,0.0536323829889379,0.00234906706233318,,
0.0162799294110036,0.0367878885924503,0.00197729567825444,,
0.0165229134320634,0.0198146544152144,0.00163378782931733,,
0.0167658974531231,0.00289274600959849,0.0012727248195028,,
0.0170088814741829,-0.0140546126059781,0.000905034120245674,,
0.0172518654952426,-0.0310459951223503,0.000528077436438235,,
0.0174948495163024,-0.0479196970021354,0.000165094283355316,,
0.0177378335373622,-0.0646962060188116,-0.000209135857871967,,
0.0179808175584219,-0.0813200846676734,-0.000605202683872541,,
0.0182238015794817,-0.097873071366784,-0.000974211009175274,,
0.0184667856005414,-0.114363106014516,-0.00131842483788791,,
0.0187097696216012,-0.130535261159563,-0.00170620248756137,,
0.0189527536426609,-0.146773842061527,-0.00206513234296901,,
0.0191957376637207,-0.162595720082853,-0.0024258758360749,,
0.0194387216847804,-0.178355284080348,-0.00278397799105656,,
0.0196817057058402,-0.193704525472683,-0.00314616995990846,,
0.0199246897269,-0.208801107956104,-0.00346860796417259,,
0.0201676737479597,-0.223649001479799,-0.00381579329827542,,
0.0204106577690195,-0.238031631137276,-0.00415802155886968,,
0.0206536417900792,-0.252063912779082,-0.00451143899029915,,
0.020896625811139,-0.265980569650844,-0.004835736277506,,
0.0211396098321987,-0.279255512593459,-0.00515387906430131,,
0.0213825938532585,-0.292254260499842,-0.00546572737193651,,
0.0216255778743182,-0.304494180976089,-0.00573677643889425,,
0.021868561895378,-0.316918987657286,-0.00606623620320779,,
0.0221115459164378,-0.328216045201841,-0.00633600568182269,,
0.0223545299374975,-0.339304680414128,-0.00659479595772572,,
0.0225975139585573,-0.349706585309175,-0.00684579611196989,,
0.022840497979617,-0.360092468623577,-0.00713575904657127,,
0.0230834820006768,-0.369473174982458,-0.00735684026482142,,
0.0233264660217365,-0.378472199083877,-0.00760904393200201,,
0.0235694500427963,-0.386711545051763,-0.0078434079162828,,
0.023812434063856,-0.394743602958576,-0.00801344862258979,,
0.0240554180849158,-0.402135861018885,-0.00822100819803229,,
0.0242984021059756,-0.40869974664635,-0.00844359875235368,,
0.0245413861270353,-0.415089876104975,-0.00857936748788868,,
0.0247843701480951,-0.420432506114076,-0.00875278137773394,,
0.0250273541691548,-0.42506756357271,-0.00890756135743276,,
0.0252703381902146,-0.42927939609133,-0.00907193292442354,,
0.0255133222112743,-0.432862204339807,-0.0091666559349628,,
0.0257563062323341,-0.436040077771305,-0.00929779928576302,,
0.0259992902533938,-0.438538948108085,-0.00938453590009436,,
0.0262422742744536,-0.439795720593275,-0.00947554643078075,,
0.0264852582955134,-0.441179815020218,-0.00952155683682543,,
0.0267282423165731,-0.44141850821503,-0.00957807173504355,,
0.0269712263376329,-0.440814579695099,-0.00962655307030147,,
0.0272142103586926,-0.440111260661618,-0.00966189922581773,,
0.0274571943797524,-0.438931405941908,-0.00967236872330446,,
0.0277001784008121,-0.436371355852492,-0.00965669110346701,,
0.0279431624218719,-0.433763382805044,-0.00964490854445899,,
0.0281861464429316,-0.430036167654924,-0.0096187979433302,,
0.0284291304639914,-0.425958179137435,-0.00956549799180406,,
0.0286721144850512,-0.421488229029771,-0.00950479590319464,,
0.0289150985061109,-0.416063931494557,-0.00944672298064475,,
0.0291580825271707,-0.410059950486227,-0.00937147527425131,,
0.0294010665482304,-0.403438642379463,-0.00924538485197246,,
0.0296440505692902,-0.396003778257354,-0.00913875756177385,,
0.0298870345903499,-0.38871296657714,-0.00901399389458968,,
0.0301300186114097,-0.380119727996096,-0.00886560272755554,,
0.0303730026324694,-0.371531380959585,-0.00873683597246444,,
0.0306159866535292,-0.361812236432592,-0.0085659766947801,,
0.030858970674589,-0.35177372367197,-0.00840200528442914,,
0.0311019546956487,-0.341430871771067,-0.00818176546017835,,
0.0313449387167085,-0.330276448829411,-0.0080032606041085,,
0.0315879227377682,-0.319080908556899,-0.00777702147327597,,
0.031830906758828,-0.307201402753188,-0.00755877482468348,,
0.0320738907798877,-0.294578453072436,-0.00729299626191038,,
0.0323168748009475,-0.281955645175583,-0.00705569120240179,,
0.0325598588220072,-0.268726640216408,-0.00681045908550226,,
0.032802842843067,-0.255210877320488,-0.00654064396164333,,
0.0330458268641268,-0.241121882118881,-0.00625030369302415,,
0.0332888108851865,-0.226804260379326,-0.0059894046068445,,
0.0335317949062463,-0.211969694542185,-0.00567244403187095,,
0.033774778927306,-0.19700213540731,-0.00536756118848469,,
0.0340177629483658,-0.181850257203083,-0.00504552334085995,,
0.0342607469694255,-0.166239920759814,-0.00473531826201246,,
0.0345037309904853,-0.150448597168831,-0.00443261117526061,,
0.034746715011545,-0.134458988794393,-0.0040813375487958,,
0.0349896990326048,-0.118217926674188,-0.00375434871369551,,
0.0352326830536646,-0.101914196070403,-0.0034174487745946,,
0.0354756670747243,-0.0852675611056705,-0.00307994175374748,,
0.0357186510957841,-0.0686596331455027,-0.00269949168725869,,
0.0359616351168438,-0.0518366899017395,-0.00232481117962324,,
0.0362046191379036,-0.0350120452511822,-0.00198591654335578,,
0.0364476031589633,-0.0181800987298006,-0.00160323898895554,,
0.0366905871800231,-0.00119038217424759,-0.00124326233594996,,
0.0369335712010828,0.0157633212708318,-0.000902955740131883,,
0.0371765552221426,0.032760375143184,-0.000506242273173196,,
0.0374195392432024,0.0496652694808597,-0.000134108770158292,,
0.0376625232642621,0.0664252961192187,0.000242750537128522,,
0.0379055072853219,0.0831180462972639,0.000605989303578358,,
0.0381484913063816,0.0997765202176043,0.000963496548878506,,
0.0383914753274414,0.116081668660385,0.00134628365186451,,
0.0386344593485011,0.132302313899062,0.00172246132350651,,
0.0388774433695609,0.148472803083289,0.0020661395813546,,
0.0391204273906206,0.164355116491779,0.00244982741715782,,
0.0393634114116804,0.179852380275194,0.00279667041192955,,
0.0396063954327402,0.195217501464273,0.00317197169488503,,
0.0398493794537999,0.210355768414148,0.00351557692034277,,
0.0400923634748597,0.224951889178301,0.00384934711720675,,
0.0403353474959194,0.239198016386532,0.00419841455687431,,
0.0405783315169792,0.25348221257178,0.00451892328882186,,
0.0408213155380389,0.266995317019583,0.00484393872786892,,
0.0410642995590987,0.280210710724407,0.00516335805999057,,
0.0413072835801584,0.293100001460374,0.00546546871555265,,
0.0415502676012182,0.305569044718217,0.00579067890764184,,
0.041793251622278,0.317709432897012,0.00608838631865716,,
0.0420362356433377,0.328929643568037,0.006377731520955,,
0.0422792196643975,0.340108453340407,0.00662456578592163,,
0.0425222036854572,0.350500929606137,0.00691329021289988,,
0.042765187706517,0.36038808805404,0.00714980256666964,,
0.0430081717275767,0.36993978579572,0.00740184951851175,,
0.0432511557486365,0.378894289752696,0.00762227344524735,,
0.0434941397696962,0.387279673137069,0.00784749316562872,,
0.043737123790756,0.395192632568301,0.00807478213707569,,
0.0439801078118158,0.40217123610181,0.00826546970879338,,
0.0442230918328755,0.408518050579138,0.00847792397591052,,
0.0444660758539353,0.414721096182369,0.00863365337668665,,
0.044709059874995,0.419980711718312,0.00880267162952553,,
0.0449520438960548,0.424830571784692,0.00894417188621022,,
0.0451950279171145,0.429127191075214,0.0090873245007308,,
0.0454380119381743,0.432715458003822,0.00921330841744039,,
0.045680995959234,0.435569000765208,0.00931711178853778,,
0.0459239799802938,0.43774254794458,0.00941693489435025,,
0.0461669640013536,0.439814577851909,0.00948838491643533,,
0.0464099480224133,0.440480678611771,0.00959375848392918,,
0.0466529320434731,0.440727382596905,0.00962553974588198,,
0.0468959160645328,0.440709801393367,0.00967643115002836,,
0.0471389000855926,0.439738014546177,0.00967442275928798,,
0.0473818841066523,0.43814436351577,0.00969663677807953,,
0.0476248681277121,0.435682995020408,0.00969246175975336,,
0.0478678521487718,0.432928700988673,0.00966481899993132,,
0.0481108361698316,0.429408490331827,0.00964716950554889,,
0.0483538201908914,0.425062530244278,0.00958635786835371,,
0.0485968042119511,0.420480074612359,0.00953566121724903,,
0.0488397882330109,0.415176222499772,0.00946328611821734,,
0.0490827722540706,0.409084619041549,0.00937549205573118,,
0.0493257562751304,0.402818054251341,0.00924608778873104,,
0.0495687402961901,0.39547194685032,0.00917377355002458,,
0.0498117243172499,0.387633565750228,0.00901486724025968,,
0.0500547083383096,0.379336088383546,0.00887716466788335,,
0.0502976923593694,0.370543785207601,0.00871801491681667,,
0.0505406763804292,0.361304579180424,0.00857186493126738,,
0.0507836604014889,0.351392750334007,0.00839104586132233,,
0.0510266444225487,0.340589100759721,0.0081775234954935,,
0.0512696284436084,0.329956442568234,0.00799556633746246,,
0.0515126124646682,0.318298686783344,0.00778302077985726,,
0.0517555964857279,0.306415494598246,0.00754897326926862,,
0.0519985805067877,0.294113756341817,0.00732630968255643,,
0.0522415645278474,0.281229321704407,0.00704138902591911,,
0.0524845485489072,0.268126468969814,0.00678629297177169,,
0.052727532569967,0.254454814676392,0.00652364719425114,,
0.0529705165910267,0.240472618197084,0.00624516556004728,,
0.0532135006120865,0.226184239386802,0.00594294231288295,,
0.0534564846331462,0.211401814578703,0.00567176087471744,,
0.053699468654206,0.196348972428278,0.00535223503702609,,
0.0539424526752657,0.181057826988764,0.00503088947560393,,
0.0541854366963255,0.165609336866777,0.00471730056266084,,
0.0544284207173852,0.149686721384854,0.00436917950105409,,
0.054671404738445,0.133722740450252,0.0040588161853603,,
0.0549143887595048,0.117499755777233,0.00370289283003045,,
0.0551573727805645,0.100977713414189,0.00335754699926438,,
0.0554003568016243,0.0843847436554186,0.00302349684490322,,
0.055643340822684,0.0678022659052115,0.00266404359069661,,
0.0558863248437438,0.0509427424153766,0.00232513982538052,,
0.0561293088648035,0.0341013672646781,0.00193678704563105,,
0.0563722928858633,0.01711452183309,0.00157374303222291,,
0.056615276906923,0.000147278025608157,0.0012206679401241,,
0.0568582609279828,-0.0167843071311488,0.000837091174415328,,
0.0571012449490426,-0.0337410943760424,0.000459439161389241,,
0.0573442289701023,-0.0506045169231136,9.54944151643211E-05,,
0.0575872129911621,-0.0674655291438932,-0.000278078434547968,,
0.0578301970122218,-0.0840077402666416,-0.000660585580037232,,
0.0580731810332816,-0.100603262135603,-0.00101744618437927,,
0.0583161650543413,-0.116891112942644,-0.0013896435907359,,
0.0585591490754011,-0.133247870724843,-0.00175338141185444,,
0.0588021330964608,-0.149453770437972,-0.00212063848129285,,
0.0590451171175206,-0.165256507632865,-0.00247806965118569,,
0.0592881011385804,-0.180943052922117,-0.00284523999465991,,
0.0595310851596401,-0.196160435287914,-0.00317449435537531,,
0.0597740691806999,-0.211417588037522,-0.00352755727540899,,
0.0600170532017596,-0.226169068509555,-0.0038757878856015,,
0.0602600372228194,-0.240304639722149,-0.00421242003927036,,
0.0605030212438791,-0.254553567162395,-0.0045672342151688,,
0.0607460052649389,-0.26822727732236,-0.00485138955321318,,
0.0609889892859986,-0.281320169738013,-0.00517764958591638,,
0.0612319733070584,-0.29430360498325,-0.00549960222908519,,
0.0614749573281182,-0.306654684036707,-0.00578484240243071,,
0.0617179413491779,-0.318700644138434,-0.00610688025005546,,
0.0619609253702377,-0.330167558794593,-0.00638159006558903,,
0.0622039093912974,-0.341023101276098,-0.00665844368608726,,
0.0624468934123572,-0.351428054524983,-0.00690529468764378,,
0.0626898774334169,-0.361302381529982,-0.00713768071134746,,
0.0629328614544767,-0.37091717310694,-0.00740201079837455,,
0.0631758454755364,-0.379791640052647,-0.00763136902088712,,
0.0634188294965962,-0.388203395242328,-0.00786984412015279,,
0.063661813517656,-0.39587390420541,-0.00805277808640747,,
0.0639047975387157,-0.403078723950576,-0.00828253798706768,,
0.0641477815597755,-0.40981948499267,-0.00846297515847061,,
0.0643907655808352,-0.415673954878975,-0.00865011000868998,,
0.064633749601895,-0.421342758748882,-0.00877823164433122,,
0.0648767336229547,-0.425684323535546,-0.00892563687409309,,
0.0651197176440145,-0.430022556400572,-0.00908311905224224,,
0.0653627016650742,-0.433480098573838,-0.00919874149854305,,
0.065605685686134,-0.436417010268132,-0.00931258834484883,,
0.0658486697071937,-0.43850343124126,-0.00940354866576643,,
0.0660916537282535,-0.440068158356169,-0.00949985404476772,,
0.0663346377493133,-0.441068940010807,-0.00953448356995201,,
0.066577621770373,-0.441140682663955,-0.00959841125581073,,
0.0668206057914328,-0.440690873242784,-0.00964601620238215,,
0.0670635898124925,-0.440048663069987,-0.00965597295162679,,
0.0673065738335523,-0.438189309011912,-0.00968556324186309,,
0.067549557854612,-0.436042700773445,-0.00965659372694638,,
0.0677925418756718,-0.433192277257848,-0.00964454186099806,,
0.0680355258967316,-0.429388569693947,-0.00962667326944411,,
0.0682785099177913,-0.425060757945534,-0.00959562385290491,,
0.0685214939388511,-0.420476459122922,-0.00951584813829731,,
0.0687644779599108,-0.414932495976527,-0.00943545164837056,,
0.0690074619809706,-0.408937872705564,-0.00934272637801437,,
0.0692504460020303,-0.402469620318313,-0.00923724021891825,,
0.0694934300230901,-0.39527245690372,-0.00913127174174289,,
0.0697364140441498,-0.386958036361048,-0.00901294709699174,,
0.0699793980652096,-0.37860547594941,-0.00886162246227062,,
0.0702223820862694,-0.369983597020667,-0.00868179389412216,,
0.0704653661073291,-0.360310532261012,-0.00852539502976635,,
0.0707083501283889,-0.350479591129262,-0.00836897182127982,,
0.0709513341494486,-0.339719540104072,-0.00817140703278563,,
0.0711943181705084,-0.328496706430907,-0.00796666072588748,,
0.0714373021915681,-0.317078069192528,-0.0077451793509975,,
0.0716802862126279,-0.305167087363127,-0.00752095621844528,,
0.0719232702336876,-0.292654091096439,-0.00727736733033346,,
0.0721662542547474,-0.279915729321492,-0.00701451462770653,,
0.0724092382758072,-0.266581166249137,-0.00675265546989268,,
0.0726522222968669,-0.2529565133184,-0.00647953715186933,,
0.0728952063179267,-0.239067433415091,-0.00621875217879975,,
0.0731381903389864,-0.224346082021702,-0.00592389607403199,,
0.0733811743600462,-0.209681585972014,-0.00561786449200241,,
0.0736241583811059,-0.194701478962034,-0.0052994919574787,,
0.0738671424021657,-0.17932933946993,-0.00499563004605141,,
0.0741101264232254,-0.163773660719919,-0.00469440795124099,,
0.0743531104442852,-0.147991127730705,-0.00436356970055574,,
0.074596094465345,-0.131906311467751,-0.00405155250551736,,
0.0748390784864047,-0.11560428227076,-0.0036974062716908,,
0.0750820625074645,-0.0992146306238761,-0.00335313310416119,,
0.0753250465285242,-0.082635272119458,-0.00299307124670012,,
0.075568030549584,-0.0660728567910305,-0.00263903303995106,,
0.0758110145706437,-0.0492553722273981,-0.00227937286063806,,
0.0760539985917035,-0.0324148477800966,-0.00191229989368447,,
0.0762969826127632,-0.0153798667146274,-0.00154952366570837,,
0.076539966633823,0.00155288815930045,-0.00118784292358987,,
0.0767829506548827,0.0184229391036734,-0.000818177306772139,,
0.0770259346759425,0.0353686317584309,-0.000462156574921213,,
0.0772689186970023,0.0522953608166299,-8.46019384161956E-05,,
0.077511902718062,0.0690474121106419,0.00028513518928408,,
0.0777548867391218,0.0857827329045127,0.000673629469289949,,
0.0779978707601815,0.102389881053233,0.00105012513613234,,
0.0782408547812413,0.118748907377824,0.00139984378128188,,
0.078483838802301,0.134846767759532,0.0017560927393534,,
0.0787268228233608,0.151029414913142,0.0021617907118574,,
0.0789698068444206,0.16680964391399,0.00251835614362061,,
0.0792127908654803,0.182326757443336,0.00286959021087441,,
0.0794557748865401,0.197433583813496,0.00321929668395926,,
0.0796987589075998,0.212515987906968,0.00356848888729377,,
0.0799417429286596,0.227165951106957,0.00389099079490007,,
0.0801847269497193,0.241491796312683,0.0042255978212391,,
0.0804277109707791,0.25544418272712,0.00455202826285328,,
