Time domain (s),Current (AC) (A),Potential (AC) (V),Frequency (Hz),Column 5
0,-0.235451837507935,-0.00640783113218335,0.79433,0.4
0.00307354153815165,-0.231089377057764,-0.0063383840423521,,
0.0061470830763033,-0.226393784162285,-0.00624400967685812,,
0.00922062461445495,-0.221901713887702,-0.00611551038944835,,
0.0122941661526066,-0.217231499571466,-0.00600968885138675,,
0.0153677076907583,-0.212443592865841,-0.00587053714445096,,
0.0184412492289099,-0.207865568863015,-0.0057646473872448,,
0.0215147907670615,-0.203092420017339,-0.00567253619189367,,
0.0245883323052132,-0.198158416673047,-0.00553054656851693,,
0.0276618738433649,-0.19329097806945,-0.00544003340664245,,
0.0307354153815165,-0.188411436785726,-0.00531133116727522,,
0.0338089569196681,-0.183369744287658,-0.0051676616474472,,
0.0368824984578198,-0.17834589706794,-0.00506634257297067,,
0.0399560399959715,-0.173119021214269,-0.00492487141509734,,
0.0430295815341231,-0.16802206392685,-0.00481083288099482,,
0.0461031230722748,-0.162915720887497,-0.0046533984431405,,
0.0491766646104264,-0.157676248366756,-0.00455610429823183,,
0.052250206148578,-0.152550639836589,-0.00442369264284315,,
0.0553237476867297,-0.147367975814399,-0.00429789483358389,,
0.0583972892248813,-0.142016368257387,-0.00416448376771816,,
0.061470830763033,-0.136698537057666,-0.00403302718036302,,
0.0645443723011846,-0.131246217912461,-0.00390175819565686,,
0.0676179138393363,-0.125942588837377,-0.00376709530847652,,
0.0706914553774879,-0.120508608957465,-0.00365000396762527,,
0.0737649969156396,-0.1149819447772,-0.00349150360562733,,
0.0768385384537913,-0.10950856943851,-0.00334573293612683,,
0.0799120799919429,-0.104086074755044,-0.0032456145186055,,
0.0829856215300945,-0.0984985884323077,-0.00308064868711977,,
0.0860591630682462,-0.0929797662947768,-0.00297925968801893,,
0.0891327046063978,-0.0873519582877424,-0.0028245250228367,,
0.0922062461445495,-0.0817551479614394,-0.00265730795955843,,
0.0952797876827012,-0.0760832516196597,-0.00253965381075938,,
0.0983533292208528,-0.0705164510002001,-0.0023721092955844,,
0.101426870759004,-0.0648481978121318,-0.0022598632195221,,
0.104500412297156,-0.0591871074347505,-0.00208348773599853,,
0.107573953835308,-0.0534948958799019,-0.00194258791346646,,
0.110647495373459,-0.0477192005315299,-0.00182714747592971,,
0.113721036911611,-0.0420511943369337,-0.00166492234860272,,
0.116794578449763,-0.0363634286645804,-0.00150481201477737,,
0.119868119987914,-0.0306541745601664,-0.00136452616455252,,
0.122941661526066,-0.0248740333292991,-0.00119832897749506,,
0.126015203064218,-0.0191637912509972,-0.00111403910714314,,
0.129088744602369,-0.013383403026658,-0.00093976647877092,,
0.132162286140521,-0.00763265401895428,-0.000798416409880431,,
0.135235827678673,-0.00189203174360102,-0.000653232425028794,,
0.138309369216824,0.00390635613000748,-0.000489724777771983,,
0.141382910754976,0.0096274967952597,-0.000347324134045035,,
0.144456452293128,0.0153713299857485,-0.000185890348802786,,
0.147529993831279,0.0211124462480457,-5.79112323748632E-05,,
0.150603535369431,0.0268839427073942,0.000110644631628354,,
0.153677076907583,0.0326114743287335,0.000241543527471411,,
0.156750618445734,0.0382792335298578,0.000401135395792895,,
0.159824159983886,0.0440408502503279,0.000534572043838111,,
0.162897701522037,0.0497202181446344,0.000675772030608979,,
0.165971243060189,0.0554247793730812,0.000833371899890523,,
0.169044784598341,0.0610685802074251,0.000967736328310487,,
0.172118326136492,0.0668062076869308,0.00110838715096229,,
0.175191867674644,0.0724159542963279,0.00123967148497606,,
0.178265409212796,0.0780624720588635,0.00141406690780954,,
0.181338950750947,0.0835726494248757,0.00156750882019008,,
0.184412492289099,0.089267053046788,0.00171648237855848,,
0.187486033827251,0.0948427454312382,0.00181381745495468,,
0.190559575365402,0.100390928917749,0.00197538767848737,,
0.193633116903554,0.105994716809635,0.00213373795836613,,
0.196706658441706,0.111375469596339,0.00226581363446421,,
0.199780199979857,0.116903399618148,0.00240282155476157,,
0.202853741518009,0.122380510733101,0.0025392598451961,,
0.205927283056161,0.127689882406408,0.00268661319886565,,
0.209000824594312,0.133130654606799,0.00281296528868014,,
0.212074366132464,0.138510666413087,0.00297842741444754,,
0.215147907670616,0.143664679192529,0.00309259897588365,,
0.218221449208767,0.149061239561438,0.00320996319331535,,
0.221294990746919,0.154318742605633,0.00338610502626668,,
0.22436853228507,0.159613541664094,0.00351416600566878,,
0.227442073823222,0.164739644181204,0.00363689224791486,,
0.230515615361374,0.169885506176072,0.00378832510646854,,
0.233589156899525,0.17502395836678,0.00394422290807661,,
0.236662698437677,0.180044100684419,0.00406626695887047,,
0.239736239975829,0.185020031170576,0.00422245810280275,,
0.24280978151398,0.190060643072204,0.00433596111661538,,
0.245883323052132,0.194946451815279,0.00444272407888091,,
0.248956864590284,0.199783818963665,0.00459217858222294,,
0.252030406128435,0.204432977086416,0.00472472838138049,,
0.255103947666587,0.209357779923877,0.00485231523772311,,
0.258177489204739,0.214184001491841,0.00496631966225314,,
0.26125103074289,0.218884812124416,0.00509068316398453,,
0.264324572281042,0.223308743074921,0.00521916710208714,,
0.267398113819194,0.227953424440992,0.00535196249016723,,
0.270471655357345,0.232577173110315,0.00544554551357646,,
0.273545196895497,0.236990637712445,0.00556280058037606,,
0.276618738433648,0.241307373496119,0.00570219958171325,,
0.2796922799718,0.245625066379496,0.00584730170359071,,
0.282765821509952,0.250076413605388,0.00592724089795604,,
0.285839363048103,0.254339984044222,0.00602599493257294,,
0.288912904586255,0.258470980736979,0.00616116434690683,,
0.291986446124407,0.26225217292507,0.00627080274614267,,
0.295059987662558,0.266626674306998,0.00637287564217415,,
0.29813352920071,0.270599317310044,0.00648651509427722,,
0.301207070738862,0.274259019584112,0.0066087092271907,,
0.304280612277013,0.278193131605532,0.00668072476783932,,
0.307354153815165,0.282187757027582,0.00682117093305568,,
0.310427695353317,0.285995161397884,0.00688341408115223,,
0.313501236891468,0.289326856341187,0.00700272936613722,,
0.31657477842962,0.293035216329232,0.00710471698823723,,
0.319648319967772,0.296665526380138,0.00720574954230413,,
0.322721861505923,0.300295095450627,0.00732475101922159,,
0.325795403044075,0.303478841304224,0.00738724998911255,,
0.328868944582227,0.306695684283064,0.00748543780482391,,
0.331942486120378,0.309944142426316,0.00758359151096277,,
0.33501602765853,0.313133569129768,0.00765824713253105,,
0.338089569196681,0.316170353867547,0.00772354990929047,,
0.341163110734833,0.319184415205906,0.00782135910874615,,
0.344236652272985,0.321981863269354,0.00793896891510082,,
0.347310193811136,0.325202164156801,0.00798151037405814,,
0.350383735349288,0.327842524372081,0.00808009727176939,,
0.35345727688744,0.330514746745244,0.00813779702479422,,
0.356530818425591,0.333298610167733,0.00822719139268679,,
0.359604359963743,0.335912542081513,0.00829002122543221,,
0.362677901501895,0.338308378759549,0.00838826020550254,,
0.365751443040046,0.340652840795418,0.00844710604016718,,
0.368824984578198,0.342751297333211,0.00852042797744668,,
0.37189852611635,0.345213575255206,0.00856875783087574,,
0.374972067654501,0.347074671066444,0.00863414929252393,,
0.378045609192653,0.349391716826924,0.00871427950049641,,
0.381119150730805,0.351605272322652,0.00876759958439832,,
0.384192692268956,0.353453030486404,0.00881587145155427,,
0.387266233807108,0.355284487081006,0.00888314917256761,,
0.39033977534526,0.357102359034651,0.00895977291647565,,
0.393413316883411,0.358669532614253,0.00897134288350454,,
0.396486858421563,0.360256712665084,0.00900228367681777,,
0.399560399959714,0.361559603229687,0.00907211279386244,,
0.402633941497866,0.363037859159382,0.00910479317537893,,
0.405707483036018,0.364249362139359,0.00916017347746623,,
0.408781024574169,0.365541878978139,0.00920257849813355,,
0.411854566112321,0.366939862029447,0.00923477452371868,,
0.414928107650473,0.36798365644196,0.00925705830750401,,
0.418001649188624,0.36894643699567,0.00927988443349381,,
0.421075190726776,0.369612825383025,0.00931363926654738,,
0.424148732264928,0.370702313587852,0.00938325008232699,,
0.427222273803079,0.371327701058861,0.0093706193075902,,
0.430295815341231,0.37177179532145,0.00941610442266372,,
0.433369356879383,0.372434478806725,0.00946209777036922,,
0.436442898417534,0.372875856141122,0.00945120999479254,,
0.439516439955686,0.373226586871309,0.00948389037630903,,
0.442589981493838,0.373737616364799,0.0094952795626031,,
0.445663523031989,0.373585221392599,0.00950807747424598,,
0.448737064570141,0.374095015918729,0.00953987100687437,,
0.451810606108293,0.373630174204496,0.00952906168331458,,
0.454884147646444,0.373792942902519,0.00953883066490979,,
0.457957689184596,0.373490869886309,0.00953701603564694,,
0.461031230722747,0.373409609034033,0.00955652671117901,,
0.464104772260899,0.373191019811346,0.00955701788902497,,
0.467178313799051,0.372672580513697,0.0095434866215709,,
0.470251855337202,0.372049415983936,0.00956253340691582,,
0.473325396875354,0.371505536358674,0.0095405088558822,,
0.476398938413506,0.370761098034179,0.00953668858375023,,
0.479472479951657,0.369919097288259,0.00952231139889559,,
0.482546021489809,0.36919565340888,0.00950859935070669,,
0.485619563027961,0.368511234498072,0.00947150177953748,,
0.488693104566112,0.367343943349577,0.00947097990307677,,
0.491766646104264,0.366421916718741,0.00945405132219079,,
0.494840187642416,0.36522745628833,0.00942286152899774,,
0.497913729180567,0.363612612968639,0.00940935072728744,,
0.500987270718719,0.36256684260835,0.00937720927701813,,
0.504060812256871,0.361079941907135,0.00933803443287706,,
0.507134353795022,0.359484117084785,0.00932720123261666,,
0.510207895333174,0.357575845520403,0.00928965682604588,,
0.513281436871326,0.356247267634716,0.00922364457017633,,
0.516354978409477,0.354112750050016,0.00923042555321096,,
0.519428519947629,0.352542365555278,0.00916215183267743,,
0.52250206148578,0.350309544568737,0.00916080109360218,,
0.525575603023932,0.34829877071349,0.00909746643918252,,
0.528649144562084,0.346267249406598,0.00906542731763116,,
0.531722686100235,0.344497541179987,0.00899830308969429,,
0.534796227638387,0.341845572271525,0.00895514424747246,,
0.537869769176539,0.339539641217283,0.00890195036898955,,
0.54094331071469,0.337050934993788,0.00886623082455351,,
0.544016852252842,0.334605205634415,0.00877401218404872,,
0.547090393790994,0.332033262610869,0.00873025642430614,,
0.550163935329145,0.329363510172426,0.00868033365383614,,
0.553237476867297,0.326415149097609,0.00859971226801814,,
0.556311018405449,0.32357472417004,0.00854532796545104,,
0.5593845599436,0.320817783035994,0.00846413694977066,,
0.562458101481752,0.317693315615668,0.00840796530559862,,
0.565531643019904,0.314800775065515,0.00834043517374772,,
0.568605184558055,0.311568618491413,0.00827176919312933,,
0.571678726096207,0.308530845779746,0.00820509180059359,,
0.574752267634358,0.305000815078457,0.00809225733440444,,
0.57782580917251,0.301805213538206,0.00802582553079167,,
0.580899350710662,0.29840633637053,0.00797089547506236,,
0.583972892248813,0.295040803321568,0.0078751840143223,,
0.587046433786965,0.29129811124092,0.00779408509448798,,
0.590119975325117,0.287651746614337,0.00770431211033928,,
0.593193516863268,0.284187663170062,0.00762711191465382,,
0.59626705840142,0.280412861938059,0.00752642386727054,,
0.599340599939572,0.276604963580813,0.00742017254859428,,
0.602414141477723,0.272627380708328,0.00733758986235156,,
0.605487683015875,0.268689316791357,0.00723165576270057,,
0.608561224554027,0.264705312088601,0.00714521187283834,,
0.611634766092178,0.260512844895509,0.0069973536974941,,
0.61470830763033,0.256327540513104,0.0069346466592104,,
0.617781849168482,0.252274593757487,0.00683748895259173,,
0.620855390706633,0.247949768937607,0.00675458904732373,,
0.623928932244785,0.243524139906982,0.00663053935366031,,
0.627002473782937,0.239150163386182,0.00652550915768346,,
0.630076015321088,0.234916170415616,0.00641140581539323,,
0.63314955685924,0.230509035021204,0.00629311381758635,,
0.636223098397392,0.225810015091301,0.00619382767363685,,
0.639296639935543,0.221144308405929,0.00607466247077104,,
0.642370181473695,0.216533465145516,0.00598720552660215,,
0.645443723011846,0.212022345499408,0.00587016876106761,,
0.648517264549998,0.207061512489225,0.00575947637603758,,
0.65159080608815,0.202273513161047,0.00565125011310741,,
0.654664347626301,0.197463315294577,0.00549812883070988,,
0.657737889164453,0.192548639189466,0.0053918570462903,,
0.660811430702605,0.187686047832756,0.0052691853793605,,
0.663884972240756,0.182690141749554,0.00515951628150901,,
0.666958513778908,0.177445235372429,0.00502579311305373,,
0.67003205531706,0.172434694926013,0.00492173162893916,,
0.673105596855211,0.167387692068299,0.00475565553086454,,
0.676179138393363,0.162125218280481,0.00463702584828907,,
0.679252679931515,0.156853142621441,0.00451372656522286,,
0.682326221469666,0.151692708011727,0.00439562558102269,,
0.685399763007818,0.146552032879771,0.00426755436874871,,
0.68847330454597,0.14138736850685,0.00412800187433504,,
0.691546846084121,0.135924644761639,0.00400908567134906,,
0.694620387622273,0.1305142527583,0.00384588842120293,,
0.697693929160425,0.125177464809605,0.00371617312752948,,
0.700767470698576,0.119690998816901,0.00359269988564304,,
0.703841012236728,0.114246521714431,0.00345141803589799,,
0.706914553774879,0.10874029624397,0.00332701360267951,,
0.709988095313031,0.10319381083758,0.00314741988098,,
0.713061636851183,0.0977229054336094,0.00301414695888358,,
0.716135178389334,0.0921233164307467,0.00290601620275677,,
0.719208719927486,0.0865424989317532,0.00276854439227181,,
0.722282261465638,0.0809782299953812,0.00261615646568547,,
0.725355803003789,0.0753302302720139,0.00249513570206972,,
0.728429344541941,0.0697042129676513,0.0023354346831157,,
0.731502886080093,0.0640554722638681,0.00219543535330047,,
0.734576427618244,0.0583622727351316,0.00204737252052078,,
0.737649969156396,0.0526389400028157,0.00191357772196321,,
0.740723510694548,0.0470122125922212,0.00176187539778594,,
0.743797052232699,0.0412792162403148,0.00160843689636314,,
0.746870593770851,0.0356282525952839,0.00148189379294195,,
0.749944135309003,0.0298407015602578,0.00133890646456658,,
0.753017676847154,0.0240906935329699,0.00118692444189383,,
0.756091218385306,0.0183127752433503,0.00102199783641632,,
0.759164759923458,0.0126017921846326,0.000896651978993912,,
0.762238301461609,0.00687203762204565,0.000725994965318222,,
0.765311842999761,0.00107016096564568,0.000586473169519763,,
0.768385384537913,-0.00467435145689099,0.000426911999813484,,
0.771458926076064,-0.010410095611173,0.00029157203761665,,
0.774532467614216,-0.0161531878212459,0.00017258420452837,,
0.777606009152367,-0.0218977619921505,-1.56835814850709E-05,,
0.780679550690519,-0.0276470907873905,-0.000150552831580164,,
0.783753092228671,-0.0334281582437776,-0.000304248860276246,,
0.786826633766822,-0.0391559368585888,-0.000431970449430885,,
0.789900175304974,-0.0448343167790075,-0.000573375093637196,,
0.792973716843126,-0.0505618484003468,-0.00073366109176165,,
0.796047258381277,-0.0562468353961405,-0.000877919001716965,,
0.799120799919429,-0.0618973668025954,-0.00100469746118881,,
0.802194341457581,-0.067536721754444,-0.0011529359582676,,
0.805267882995732,-0.0732761090624375,-0.00131787791305271,,
0.808341424533884,-0.078942633296202,-0.00143209040597592,,
0.811414966072036,-0.0844431779168077,-0.00159932281856179,,
0.814488507610187,-0.0900067058727638,-0.00172793125660409,,
0.817562049148339,-0.0956653263154255,-0.00187593780858908,,
0.820635590686491,-0.101186618387676,-0.00201406793382519,,
0.823709132224642,-0.106694078825497,-0.00215042436128599,,
0.826782673762794,-0.112277613252682,-0.00231631967862533,,
0.829856215300945,-0.117740120878605,-0.00244009649570787,,
0.832929756839097,-0.123164591509846,-0.00259109275173186,,
0.836003298377249,-0.128609562599261,-0.00272866347997747,,
0.8390768399154,-0.133930048978806,-0.00287938685942057,,
0.842150381453552,-0.139186872790952,-0.0030216220717203,,
0.845223922991704,-0.144662903309466,-0.00315716157491686,,
0.848297464529855,-0.149804813408782,-0.00327722727049951,,
0.851371006068007,-0.155061390227456,-0.00343788335748618,,
0.854444547606159,-0.16025807112918,-0.00358889496281822,,
0.85751808914431,-0.165443946066505,-0.00368242170543276,,
0.860591630682462,-0.170648160269124,-0.00383929845177455,,
0.863665172220614,-0.175684295414072,-0.00397246222323888,,
0.866738713758765,-0.180599712499599,-0.0041134984840614,,
0.869812255296917,-0.185747550442242,-0.00423790121180101,,
0.872885796835069,-0.190770656681544,-0.00435755759251233,,
0.87595933837322,-0.195453652909954,-0.00447892115733284,,
0.879032879911372,-0.20057036967513,-0.00462826651004278,,
0.882106421449524,-0.205327772686968,-0.0047740764055515,,
0.885179962987675,-0.210066774685145,-0.00486187785640357,,
0.888253504525827,-0.214977684139808,-0.00497985434066406,,
0.891327046063979,-0.219463888319432,-0.00513161465111445,,
0.89440058760213,-0.224145896573954,-0.00523540325864813,,
0.897474129140282,-0.228841983456377,-0.00535541608439338,,
0.900547670678433,-0.233003267723634,-0.00549625962613032,,
0.903621212216585,-0.237708555112888,-0.00559669014624076,,
0.906694753754737,-0.242136901071705,-0.00570993563278055,,
0.909768295292888,-0.246371542400134,-0.00583073809513124,,
0.91284183683104,-0.250592969577814,-0.00593831968713898,,
0.915915378369192,-0.254918319258822,-0.00604726395657273,,
0.918988919907343,-0.259052002005587,-0.00618504275321108,,
0.922062461445495,-0.263238541355352,-0.00627932161190126,,
0.925136002983647,-0.267402604299168,-0.00641783205887236,,
0.928209544521798,-0.271370122187671,-0.00652737665678371,,
0.93128308605995,-0.275217230758591,-0.00662647349260492,,
0.934356627598102,-0.279000368020273,-0.00674181842333876,,
0.937430169136253,-0.282634876960202,-0.00681631372991598,,
0.940503710674405,-0.286657968379896,-0.00691931099536536,,
0.943577252212557,-0.290382876930563,-0.00701914118699776,,
0.946650793750708,-0.293794536010413,-0.0071333826730573,,
0.94972433528886,-0.29719125198521,-0.00720880576000971,,
0.952797876827011,-0.300887262299657,-0.00730229327661558,,
0.955871418365163,-0.304296019206212,-0.00740826489679636,,
0.958944959903315,-0.307450125843174,-0.00751613300921417,,
0.962018501441466,-0.310525688556051,-0.00761000425851188,,
0.965092042979618,-0.313904991491075,-0.00769000996654423,,
0.96816558451777,-0.31710139576011,-0.0077687621477831,,
0.971239126055921,-0.319879825326217,-0.00783193137077554,,
0.974312667594073,-0.323124331573917,-0.0079133304548491,,
0.977386209132225,-0.325578211717864,-0.00800478845188479,,
0.980459750670376,-0.328839019534714,-0.0080862131181374,,
0.983533292208528,-0.331428993081713,-0.00816409209431779,,
0.98660683374668,-0.333943880613235,-0.00823165633574119,,
0.989680375284831,-0.336596652250481,-0.00828901499303969,,
0.992753916822983,-0.339145810126238,-0.00839229877889913,,
0.995827458361135,-0.341351461830864,-0.00845880050713532,,
0.998900999899286,-0.343684253425182,-0.00851902436853358,,
1.00197454143744,-0.345973203678227,-0.00860203171895524,,
1.00504808297559,-0.348013863743581,-0.00864612857442371,,
1.00812162451374,-0.350364500616249,-0.00870406027254234,,
1.01119516605189,-0.352116981048191,-0.00875765152754671,,
1.01426870759004,-0.354070390669575,-0.0088107686594916,,
1.0173422491282,-0.356083387466069,-0.00887200216423834,,
1.02041579066635,-0.357650561045672,-0.00893206400516666,,
1.0234893322045,-0.359305664301293,-0.00899223158576978,,
1.02656287374265,-0.360859994220353,-0.00902987491010077,,
1.0296364152808,-0.362239391012896,-0.00905641215759001,,
1.03270995681895,-0.363640831972811,-0.00913716998169845,,
1.03578349835711,-0.365241411419496,-0.0091692466237796,,
