Time domain (s),Current (AC) (A),Potential (AC) (V),Frequency (Hz),Column 5
0,-0.154889339793197,-0.00316423500623619,0.39811,0.5
0.00613249164803697,-0.161654983909654,-0.00337040010315359,,
0.0122649832960739,-0.168156342837439,-0.00353236722733508,,
0.0183974749441109,-0.174615662839021,-0.00372269710600737,,
0.0245299665921479,-0.181161896370999,-0.00389705566480725,,
0.0306624582401849,-0.187702387655046,-0.00404760674937377,,
0.0367949498882218,-0.193987100784391,-0.00426078520444317,,
0.0429274415362588,-0.200559706121676,-0.00440881428459328,,
0.0490599331842958,-0.206785366256878,-0.00459505080368583,,
0.0551924248323328,-0.213100066680968,-0.00473772036668318,,
0.0613249164803697,-0.219450354863833,-0.00494126035188991,,
0.0674574081284067,-0.225471066372304,-0.00507483585153778,,
0.0735898997764437,-0.231584504551051,-0.00523482950210807,,
0.0797223914244807,-0.237590186966175,-0.00541557040241925,,
0.0858548830725176,-0.243697670221142,-0.00559872195126898,,
0.0919873747205546,-0.249634445661108,-0.0057544222141086,,
0.0981198663685916,-0.255530103770218,-0.00592000428002493,,
0.104252358016629,-0.261442775947269,-0.00609363490132742,,
0.110384849664666,-0.267135045052543,-0.00623366491759292,,
0.116517341312703,-0.272665822296284,-0.00640350325261441,,
0.122649832960739,-0.278296911648923,-0.00655517820668816,,
0.128782324608776,-0.284074321985848,-0.00669743327836247,,
0.134914816256813,-0.289558026974954,-0.00682127544943745,,
0.14104730790485,-0.295074767612644,-0.0070231698422285,,
0.147179799552887,-0.300707487480127,-0.00714688209811243,,
0.153312291200924,-0.305737200423026,-0.00731388292039714,,
0.159444782848961,-0.310821287491385,-0.00746397620857753,,
0.165577274496998,-0.316301518774953,-0.00760241837251208,,
0.171709766145035,-0.321390142928096,-0.00772820927144746,,
0.177842257793072,-0.326103110639506,-0.00787922227669213,,
0.183974749441109,-0.331460486174156,-0.0080333243764712,,
0.190107241089146,-0.336117520137213,-0.00816525222155784,,
0.196239732737183,-0.340775121235868,-0.00829571181877498,,
0.20237222438522,-0.345509285640254,-0.00842199557057643,,
0.208504716033257,-0.350279179587315,-0.00858207170698222,,
0.214637207681294,-0.354798683167855,-0.00870706867975235,,
0.220769699329331,-0.359321589561983,-0.00882447901781402,,
0.226902190977368,-0.363610268954133,-0.00897575803987793,,
0.233034682625405,-0.367950274117902,-0.0090729614104208,,
0.239167174273442,-0.371943475863489,-0.00920076496373889,,
0.245299665921479,-0.376175370803888,-0.00933442294922227,,
0.251432157569516,-0.38020118284636,-0.00945793723910127,,
0.257564649217553,-0.384574719902362,-0.00955240207991004,,
0.26369714086559,-0.388052962524956,-0.00968045102858861,,
0.269829632513627,-0.391695107335374,-0.00976750657923509,,
0.275962124161664,-0.395379220180046,-0.00987140367531802,,
0.282094615809701,-0.398852075014458,-0.00998267912937445,,
0.288227107457738,-0.402546467191844,-0.010081528092333,,
0.294359599105775,-0.405945523506565,-0.0101585224332106,,
0.300492090753812,-0.409098513863701,-0.0102877447428971,,
0.306624582401849,-0.412377691891393,-0.0103973354237663,,
0.312757074049886,-0.415538055011302,-0.0104594286984852,,
0.318889565697923,-0.418545929547297,-0.010559601559101,,
0.32502205734596,-0.42129192922091,-0.0106221402573308,,
0.331154548993997,-0.424136114244929,-0.0107410044082408,,
0.337287040642034,-0.426691131005913,-0.0107894235936015,,
0.343419532290071,-0.429770322843357,-0.010888522076212,,
0.349552023938108,-0.431900767717281,-0.0110076481196497,,
0.355684515586145,-0.434191428397642,-0.011074179132311,,
0.361817007234181,-0.436492297518768,-0.0111443766403547,,
0.367949498882218,-0.438638338621636,-0.0112190263213621,,
0.374081990530255,-0.440443034986453,-0.0112696396299437,,
0.380214482178292,-0.442982597302391,-0.0113356798518844,,
0.386346973826329,-0.445022300480633,-0.0113946221676922,,
0.392479465474366,-0.446675217181033,-0.0114605943388191,,
0.398611957122403,-0.448198543397287,-0.0114962756490531,,
0.40474444877044,-0.450042584794216,-0.0115712882677359,,
0.410876940418477,-0.45142065340543,-0.0116209612377944,,
0.417009432066514,-0.452572789372786,-0.0116525863070742,,
0.423141923714551,-0.453748815927209,-0.0117406172527241,,
0.429274415362588,-0.454904283816204,-0.0117469851592142,,
0.435406907010625,-0.455740312579621,-0.0118287966728778,,
0.441539398658662,-0.45671777078279,-0.0118333478288442,,
0.447671890306699,-0.457730674960836,-0.0118705819349287,,
0.453804381954736,-0.458491487365566,-0.0119204198766578,,
0.459936873602773,-0.458810572031396,-0.0119150253030247,,
0.46606936525081,-0.45930532694871,-0.0119496858510462,,
0.472201856898847,-0.459433783161659,-0.0119894275265264,,
0.478334348546884,-0.460115551042417,-0.0120261172260978,,
0.484466840194921,-0.460283068719679,-0.0120266946269454,,
0.490599331842958,-0.460134195625201,-0.0120326315449457,,
0.496731823490995,-0.460103570302909,-0.0120845996833729,,
0.502864315139032,-0.460225858916229,-0.0120368878140509,,
0.508996806787069,-0.459965189216994,-0.0120636647783567,,
0.515129298435106,-0.459423929180644,-0.0120894333533257,,
0.521261790083143,-0.458826948071789,-0.0120793040927425,,
0.52739428173118,-0.458445053138479,-0.0120958507513174,,
0.533526773379217,-0.457588607493534,-0.0120489493053273,,
0.539659265027254,-0.456710965155614,-0.0120800134709267,,
0.545791756675291,-0.455879827936731,-0.0120775553930326,,
0.551924248323328,-0.454947386121653,-0.0120557791324956,,
0.558056739971365,-0.453820204120609,-0.0120511104342138,,
0.564189231619402,-0.452604903426024,-0.0120249954187366,,
0.570321723267439,-0.451199470522206,-0.0120050668409117,,
0.576454214915476,-0.449977364200444,-0.0119583138694255,,
0.582586706563513,-0.448621626553402,-0.0119153078170111,,
0.58871919821155,-0.446592131815924,-0.011911874344114,,
0.594851689859586,-0.444656498019917,-0.0118733699561644,,
0.600984181507623,-0.443269284347185,-0.0118502244307601,,
0.60711667315566,-0.440997906277156,-0.0117992976760046,,
0.613249164803697,-0.43900782746374,-0.0117722753163383,,
0.619381656451734,-0.436899784445938,-0.0117107243859871,,
0.625514148099771,-0.434432957270444,-0.0116734737827349,,
0.631646639747808,-0.432299464042681,-0.0116185547135474,,
0.637779131395845,-0.429674760495092,-0.0115767673893505,,
0.643911623043882,-0.426847589539014,-0.0115448598060843,,
0.650044114691919,-0.424392175967431,-0.0114685294761814,,
0.656176606339956,-0.421499855309531,-0.011395265557208,,
0.662309097987993,-0.418483261063717,-0.0113345745416904,,
0.66844158963603,-0.415281709721002,-0.01125922991752,,
0.674574081284067,-0.412506927915789,-0.0112202141173912,,
0.680706572932104,-0.409462614917623,-0.0111445086176909,,
0.686839064580141,-0.405969626769481,-0.0111055732412519,,
0.692971556228178,-0.402803663185541,-0.0110001728408196,,
0.699104047876215,-0.39945295518055,-0.0109070978863368,,
0.705236539524252,-0.395697312358579,-0.0108434023242658,,
0.711369031172289,-0.392053820601116,-0.0107376884776591,,
0.717501522820326,-0.388255997069043,-0.0106794369807228,,
0.723634014468363,-0.384406351521703,-0.0105994257204163,,
0.7297665061164,-0.380741663071263,-0.0104977206854082,,
0.735898997764437,-0.376405131613031,-0.010397021977592,,
0.742031489412474,-0.372634530589664,-0.0102847092641558,,
0.748163981060511,-0.368440279274583,-0.0102109339330032,,
0.754296472708548,-0.364189101723851,-0.0100875371854392,,
0.760428964356585,-0.35962436907937,-0.0100165973048774,,
0.766561456004622,-0.355022701729069,-0.00986861771622838,,
0.772693947652659,-0.350611875507498,-0.0097973664516382,,
0.778826439300696,-0.345953636381295,-0.00968604356822622,,
0.784958930948733,-0.34143264406981,-0.00957295548793757,,
0.79109142259677,-0.336452413707838,-0.00947712344440799,,
0.797223914244807,-0.331730726286607,-0.0093771836062766,,
0.803356405892844,-0.326813377084064,-0.00924114796658904,,
0.809488897540881,-0.321706604591785,-0.00911788113421563,,
0.815621389188918,-0.316762316448336,-0.00899992638964031,,
0.821753880836955,-0.311358648470499,-0.0088779607713203,,
0.827886372484992,-0.306228552526752,-0.00874936741612853,,
0.834018864133029,-0.300973261399745,-0.0086094240099901,,
0.840151355781065,-0.295516849811293,-0.0084809090163418,,
0.846283847429102,-0.290112898265657,-0.00833200352419095,,
0.852416339077139,-0.284728229330353,-0.00822229942529784,,
0.858548830725176,-0.279115855452449,-0.00808798155313184,,
0.864681322373213,-0.273339012251121,-0.00792040126785354,,
0.87081381402125,-0.267553094880226,-0.00778327681513868,,
0.876946305669287,-0.262001120943509,-0.0076553082901496,,
0.883078797317324,-0.256037122994839,-0.00751907468445712,,
0.889211288965361,-0.25012381279024,-0.00733717692030478,,
0.895343780613398,-0.244123234595498,-0.00718279643083131,,
0.901476272261435,-0.238304494251868,-0.00705859132208086,,
0.907608763909472,-0.231952859121958,-0.00691153557478819,,
0.913741255557509,-0.225974611891387,-0.00674479664503069,,
0.919873747205546,-0.219817575163544,-0.00661428755631244,,
0.926006238853583,-0.213572774201909,-0.00643509532756026,,
0.93213873050162,-0.207305146032454,-0.00626981021065109,,
0.938271222149657,-0.200958402447077,-0.00612220799469876,,
0.944403713797694,-0.19456019130618,-0.0059674501325282,,
0.950536205445731,-0.188137380658719,-0.00579332459621362,,
0.956668697093768,-0.181771000003261,-0.00564073817365918,,
0.962801188741805,-0.175130338394215,-0.00549396494035248,,
0.968933680389842,-0.168668749850241,-0.0053246730739902,,
0.975066172037879,-0.16211493087964,-0.00514617166410947,,
0.981198663685916,-0.155369136509113,-0.00498448292962239,,
0.987331155333953,-0.148829212360664,-0.00480065499692239,,
0.99346364698199,-0.142104118439464,-0.00467938638391141,,
0.999596138630027,-0.135268645752502,-0.00444606488784549,,
1.00572863027806,-0.128497968307612,-0.00433030632863662,,
1.0118611219261,-0.121722753777938,-0.00413454888199682,,
1.01799361357414,-0.114872464673478,-0.00392161994657947,,
1.02412610522217,-0.107936467201769,-0.00375046183819228,,
1.03025859687021,-0.101139347059622,-0.0035922045144563,,
1.03639108851825,-0.0942665143151405,-0.00343625473196507,,
1.04252358016629,-0.0873046412817718,-0.00323411700595955,,
1.04865607181432,-0.0803534729328156,-0.00305479486201676,,
1.05478856346236,-0.0733678510962802,-0.00289442383874938,,
1.0609210551104,-0.0664232756986508,-0.00270629014544355,,
1.06705354675843,-0.0593584675542433,-0.00250503914216837,,
1.07318603840647,-0.0523078377997861,-0.00234206569079554,,
1.07931853005451,-0.0452993887554309,-0.00215351956831267,,
1.08545102170254,-0.0382933500373671,-0.00196130901259384,,
1.09158351335058,-0.0312251390793716,-0.00181366142943196,,
1.09771600499862,-0.0241656478311955,-0.00160759531551724,,
1.10384849664666,-0.0170600768156811,-0.00143322025955062,,
1.10998098829469,-0.0100642465383815,-0.00126458621772541,,
1.11611347994273,-0.00293237460950942,-0.0010707280074449,,
1.12224597159077,0.00416437035826098,-0.000867070479923182,,
1.1283784632388,0.0112794054490672,-0.00069320477398982,,
1.13451095488684,0.0183674661529931,-0.000484699141494183,,
1.14064344653488,0.025403066814103,-0.000286073249929242,,
1.14677593818291,0.0324831876196567,-0.000137235808592262,,
1.15290842983095,0.0394997892382334,6.2957313843981E-05,,
1.15904092147899,0.0465623288402488,0.000227895990244864,,
1.16517341312703,0.0535684384502623,0.000429338773087373,,
1.17130590477506,0.0605204220566407,0.000616998172839889,,
1.1774383964231,0.0674825432118335,0.000777057812078485,,
1.18357088807114,0.0745791109497295,0.000958060604916877,,
1.18970337971917,0.0814788826351162,0.00115426141292163,,
1.19583587136721,0.0885020063130699,0.00135090764443735,,
1.20196836301525,0.095426164829171,0.00153351066248186,,
1.20810085466328,0.102350039777473,0.00171524757925523,,
1.21423334631132,0.109247259352669,0.00189099190008912,,
1.22036583795936,0.115987098799416,0.00208301892482421,,
1.22649832960739,0.122914376561307,0.0022407607120889,,
1.23263082125543,0.129664991584417,0.00246115049131523,,
1.23876331290347,0.136497557701439,0.00259127602089926,,
1.24489580455151,0.143174976786431,0.00278159146455037,,
1.25102829619954,0.14985048178878,0.00299683000335804,,
1.25716078784758,0.156510957697781,0.003170990596153,,
1.26329327949562,0.1631807204522,0.00333431255018013,,
1.26942577114365,0.169758926253515,0.00351032082568725,,
1.27555826279169,0.176304521757945,0.00368900164226016,,
1.28169075443973,0.182830834652042,0.00388288047399943,,
1.28782324608776,0.18930553820672,0.00406132620594146,,
1.2939557377358,0.195656039065434,0.00421239076483326,,
1.30008822938384,0.201982436661233,0.00441304580794766,,
1.30622072103188,0.208447498910745,0.00459359080439992,,
1.31235321267991,0.214646007429193,0.00476487676583215,,
1.31848570432795,0.220983747736952,0.00490959816398417,,
1.32461819597599,0.227129193631011,0.00506998362227229,,
1.33075068762402,0.232970725736486,0.00528134120252588,,
1.33688317927206,0.239338276109115,0.00542612034076306,,
1.3430156709201,0.245226206995703,0.00557667348747559,,
1.34914816256813,0.251132392559351,0.00573992532854284,,
1.35528065421617,0.257087068216629,0.00591346315328023,,
1.36141314586421,0.262916619582597,0.00605811443847237,,
1.36754563751225,0.26849524889242,0.00622478119312397,,
1.37367812916028,0.274337029119719,0.00635867220109221,,
1.37981062080832,0.279886982635868,0.00654155979526871,,
1.38594311245636,0.285341444695701,0.0066986746901847,,
1.39207560410439,0.29107089662862,0.00684543761276224,,
1.39820809575243,0.296232149584283,0.00701013295594866,,
1.40434058740047,0.301683456952352,0.00717653575592703,,
1.4104730790485,0.307056783175696,0.00728906705682686,,
1.41660557069654,0.312189927473282,0.00745530488513468,,
1.42273806234458,0.317346891465985,0.00755488178559016,,
1.42887055399262,0.322360370152391,0.00772115673252349,,
1.43500304564065,0.327374132406596,0.00785249067959537,,
1.44113553728869,0.332376551948841,0.00800328715952237,,
1.44726802893673,0.337232083371201,0.00813926093483364,,
1.45340052058476,0.341866715478137,0.00830560187043572,,
1.4595330122328,0.346718560519111,0.00841862396205606,,
1.46566550388084,0.350928124495338,0.00855267994169528,,
1.47179799552887,0.355569278661651,0.00866238610273351,,
1.47793048717691,0.360138973742614,0.00881255981460338,,
1.48406297882495,0.364398729219266,0.00892127614561788,,
1.49019547047298,0.368638918517785,0.00904907557464441,,
1.49632796212102,0.372810484408946,0.00916084800585892,,
1.50246045376906,0.376826655146252,0.00929960980240541,,
1.5085929454171,0.380976102749091,0.00941863273854882,,
1.51472543706513,0.384789522510108,0.00952936172394603,,
1.52085792871317,0.388506245651665,0.00963284845299794,,
1.52699042036121,0.392041768969658,0.00975753404173929,,
1.53312291200924,0.395912752993873,0.00985844721272766,,
1.53925540365728,0.39932180507351,0.00995721575199671,,
1.54538789530532,0.402834359399783,0.0100775584615058,,
1.55152038695335,0.405988767595914,0.0101753577922095,,
1.55765287860139,0.40943496705722,0.0102492857221574,,
1.56378537024943,0.412661685042096,0.0103626666271617,,
1.56991786189747,0.415459932082676,0.0104820937438981,,
1.5760503535455,0.418478511303083,0.0105374871066393,,
1.58218284519354,0.421257192165532,0.0106361236685713,,
1.58831533684158,0.424470015328257,0.0107232617050537,,
1.59444782848961,0.426822777356601,0.0107821194728799,,
1.60058032013765,0.429705811169083,0.0108704824240173,,
1.60671281178569,0.431898924526587,0.0109363019963484,,
1.61284530343372,0.434222479071633,0.0110315401418637,,
1.61897779508176,0.436440546395449,0.0111224890239399,,
1.6251102867298,0.438448773548002,0.0111892076918769,,
1.63124277837784,0.440736882118172,0.0112788532977541,,
1.63737527002587,0.442944173865626,0.0113255402805721,,
1.64350776167391,0.444760425618252,0.0113512263697055,,
1.64964025332195,0.446608720532166,0.0114330193240555,,
1.65577274496998,0.447872582212331,0.0115241496749694,,
1.66190523661802,0.449730234863612,0.0115492253689213,,
1.66803772826606,0.450851461940877,0.0116027916704087,,
1.67417021991409,0.45209575744291,0.011667741017177,,
1.68030271156213,0.453462270666315,0.0116707764959187,,
1.68643520321017,0.454843245847469,0.0117233199730475,,
1.6925676948582,0.455260090512006,0.0117754345238326,,
1.69870018650624,0.456543801938101,0.0118221709981521,,
1.70483267815428,0.457234573096477,0.0118614342557866,,
1.71096516980232,0.457848780949121,0.0118848272386969,,
1.71709766145035,0.458411946597945,0.0119162873363061,,
1.72323015309839,0.458928323559933,0.011944332520331,,
1.72936264474643,0.459042034247334,0.011948819749775,,
1.73549513639446,0.459480430064595,0.0119935270725442,,
1.7416276280425,0.459693105913849,0.0120170190384568,,
1.74776011969054,0.459533457243009,0.0120081435625714,,
1.75389261133857,0.459828934889572,0.0120230405044386,,
1.76002510298661,0.459529770861622,0.0120571401487792,,
1.76615759463465,0.45889769823764,0.0120740992365311,,
1.77229008628269,0.45832772696164,0.0120594827465039,,
1.77842257793072,0.458278953300212,0.0120592022946635,,
1.78455506957876,0.457957670983939,0.0120380364293085,,
1.7906875612268,0.456994958306318,0.012058179470305,,
1.79682005287483,0.456107674663231,0.0120537912238636,,
1.80295254452287,0.455181258663882,0.0120428329806348,,
1.80908503617091,0.453893010153003,0.0120173324846311,,
1.81521752781894,0.45299920445054,0.0119917453785003,,
1.82135001946698,0.452272987317288,0.0119929001801955,,
1.82748251111502,0.450479420988583,0.0119700845981328,,
1.83361500276306,0.449320195826251,0.0119582849993836,,
1.83974749441109,0.447366697258906,0.0119126249652157,,
1.84587998605913,0.445626158108614,0.0118692044214783,,
1.85201247770717,0.444130905104461,0.0118308979995336,,
1.8581449693552,0.442218523867973,0.011817436311202,,
1.86427746100324,0.440064542866732,0.0117781235620655,,
1.87040995265128,0.437802806101869,0.011754879053659,,
1.87654244429931,0.435788056889939,0.0117206144376474,,
1.88267493594735,0.433501366158764,0.0116266177039548,,
1.88880742759539,0.431061548816126,0.0116059261321526,,
1.89493991924343,0.428633357753247,0.0115371659397905,,
1.90107241089146,0.426084366807992,0.0114753840491004,,
1.9072049025395,0.423244151733159,0.0114143280337613,,
1.91333739418754,0.420436546955212,0.0113486363144748,,
1.91946988583557,0.417582437058228,0.0113274704491197,,
1.92560237748361,0.414579170498967,0.011249851278039,,
1.93173486913165,0.411638855991086,0.0111697740290642,,
1.93786736077968,0.408505715379881,0.0111081076185435,,
1.94399985242772,0.404880301069604,0.011044407932181,,
1.95013234407576,0.401709162373332,0.0109536281460674,,
1.95626483572379,0.398420059472675,0.0108726270557367,,
1.96239732737183,0.39478245174704,0.010794727432816,,
1.96852981901987,0.390881125968331,0.0107021123368654,,
1.97466231066791,0.387350139735122,0.0106213587040407,,
1.98079480231594,0.383649863525908,0.0105734344336921,,
1.98692729396398,0.379612708771475,0.01045688607261,,
1.99305978561202,0.375625461949668,0.0103587238042309,,
1.99919227726005,0.37177205912899,0.0102555876399792,,
2.00532476890809,0.367413338490486,0.0101675051406822,,
2.01145726055613,0.363144792412066,0.0100633750221144,,
2.01758975220416,0.358545039144408,0.00993195858920704,,
2.0237222438522,0.354197094082266,0.009847955014469,,
2.02985473550024,0.349660009298188,0.0097577485049114,,
2.03598722714828,0.345014318047091,0.00962709094168934,,
2.04211971879631,0.34052373838205,0.00948999948330886,,
2.04825221044435,0.335526990195785,0.00943300177106998,,
2.05438470209239,0.33094340029267,0.00932126645848141,,
2.06051719374042,0.326109136455235,0.00916975647607865,,
2.06664968538846,0.320951605326935,0.0090598317275763,,
2.0727821770365,0.315707302452138,0.00893927043060305,,
2.07891466868453,0.310499579823414,0.00880627439394877,,
2.08504716033257,0.30539989652611,0.0086620520351004,,
2.09117965198061,0.300229037711256,0.00852262622757882,,
2.09731214362865,0.294897395954367,0.00838604205708604,,
