Time domain (s),Current (AC) (A),Potential (AC) (V),Frequency (Hz),Column 5
0,0.233281536743984,0.00321034863148562,0.01,0.4
0.244140625,0.237568602436838,0.00343230644236492,,
0.48828125,0.241907783752275,0.00365340469201447,,
0.732421875,0.246375895660078,0.00388305762247398,,
0.9765625,0.250638015012263,0.00411590661988726,,
1.220703125,0.25484953157688,0.00434115259356638,,
1.46484375,0.258932055800765,0.00453768853998016,,
1.708984375,0.2632104767221,0.00478701246096325,,
1.953125,0.267142859789216,0.0050191792669243,,
2.197265625,0.271020657299028,0.00520474898574497,,
2.44140625,0.275135568541923,0.00545001045663041,,
2.685546875,0.278681159831946,0.00566989440549515,,
2.9296875,0.282608603029622,0.00586138554612026,,
3.173828125,0.286232738243728,0.00609320784539813,,
3.41796875,0.290034708757648,0.00632066411938181,,
3.662109375,0.293637355539693,0.0064975017876141,,
3.90625,0.297022648066412,0.00670764404254198,,
4.150390625,0.300547985891733,0.00692118361090133,,
4.39453125,0.304045907441666,0.00715166881493268,,
4.638671875,0.307117024272049,0.00733997753243365,,
4.8828125,0.310373880193347,0.00754091020275682,,
5.126953125,0.313507733365607,0.0077422692427378,,
5.37109375,0.316607501438737,0.00796668294284508,,
5.615234375,0.31973666173503,0.00814664504792839,,
5.859375,0.322583014505927,0.0083474549237903,,
6.103515625,0.32542393342044,0.00854900156642069,,
6.34765625,0.328355004952219,0.00871441934974371,,
6.591796875,0.330803698233256,0.00890165361570716,,
6.8359375,0.333489505247376,0.00909685246687486,,
7.080078125,0.336172842326777,0.00929931665700856,,
7.32421875,0.338733670644085,0.00947737203698296,,
7.568359375,0.341075415751762,0.00966439823455367,,
7.8125,0.34349792772477,0.00984820789942731,,
8.056640625,0.345561311189545,0.0100292615108346,,
8.30078125,0.347929731592194,0.0101705024290926,,
8.544921875,0.349894317668184,0.0103675909505827,,
8.7890625,0.351959677080735,0.0105395270732314,,
9.033203125,0.353850412108608,0.0107132948799293,,
9.27734375,0.355488719808135,0.010882655729846,,
9.521484375,0.35719964358842,0.0110273621806809,,
9.765625,0.358741870827354,0.0111731192063527,,
10.009765625,0.360307315452653,0.0113380185241718,,
10.25390625,0.361966864590769,0.0114920573540727,,
10.498046875,0.363345335157792,0.0116501211135414,,
10.7421875,0.364743812196044,0.0118094537491111,,
10.986328125,0.365855282819875,0.01195538814456,,
11.23046875,0.367044556387375,0.0120930577905662,,
11.474609375,0.368036482170776,0.0122330707642102,,
11.71875,0.369236870444514,0.0123543746372787,,
11.962890625,0.369951422558902,0.0124923546803952,,
12.20703125,0.370609907155154,0.0126190103454058,,
12.451171875,0.371216523122294,0.0127461571882619,,
12.6953125,0.37202023988006,0.0129020106474256,,
12.939453125,0.372828155526849,0.0129996902305054,,
13.18359375,0.373237917696835,0.0131336828645838,,
13.427734375,0.373293985214971,0.0132227907120668,,
13.671875,0.373694608626494,0.0133404857923534,,
13.916015625,0.373945060007064,0.0134609983233371,,
14.16015625,0.373922336607643,0.0135376357110744,,
14.404296875,0.374270844396583,0.0136680024975844,,
14.6484375,0.373807484643181,0.0137540541273617,,
14.892578125,0.373690162743999,0.0138735331382955,,
15.13671875,0.373406367244714,0.0139768032803254,,
15.380859375,0.373110222071831,0.0140324291713356,,
15.625,0.37240036283341,0.0141266398108812,,
15.869140625,0.372082729228466,0.01423306167742,,
16.11328125,0.371500565615051,0.014299261535939,,
16.357421875,0.370862087490028,0.0143540005780616,,
16.6015625,0.370114685243869,0.0144557426112386,,
16.845703125,0.369290962014874,0.0145027046708064,,
17.08984375,0.36830002420536,0.0145359819698436,,
17.333984375,0.367177191881819,0.0146167397939516,,
17.578125,0.366136855377912,0.014707457613262,,
17.822265625,0.364680828860693,0.0147517284275507,,
18.06640625,0.363632588565684,0.0147951908449686,,
18.310546875,0.362315125386236,0.0148483983672811,,
18.5546875,0.360792657625059,0.0148818393922667,,
18.798828125,0.359261298098891,0.0149267685213066,,
19.04296875,0.357782054195308,0.0149469102239324,,
19.287109375,0.356005924138425,0.0150021370329427,,
19.53125,0.354424177943977,0.0150312256764638,,
19.775390625,0.352294353235244,0.0150693090142813,,
20.01953125,0.350309513694553,0.0150834576649994,,
20.263671875,0.348261937811984,0.0150954881112582,,
20.5078125,0.346343292521779,0.0151516051801144,,
20.751953125,0.344020318917971,0.015116653101062,,
20.99609375,0.341477274130645,0.0151465433195392,,
21.240234375,0.339130589153529,0.0151558756986048,,
21.484375,0.336966185358721,0.0151438964167046,,
21.728515625,0.334258642919068,0.0151446877587893,,
21.97265625,0.331622975579755,0.01512456311095,,
22.216796875,0.328823551568532,0.0151434461703461,,
22.4609375,0.326187390242276,0.0151235432347292,,
22.705078125,0.323237300213155,0.0151106464053257,,
22.94921875,0.320705617125539,0.0150853234586208,,
23.193359375,0.317504087741961,0.0150677774944712,,
23.4375,0.314414940388126,0.0150635751951258,,
23.681640625,0.310937272302893,0.0150297794305851,,
23.92578125,0.307755996384016,0.0149836530555461,,
24.169921875,0.304870618644549,0.0149628735039129,,
24.4140625,0.301542134616382,0.0148992079866388,,
24.658203125,0.297907131689509,0.0148623150729055,,
24.90234375,0.294589762367581,0.0148126822338024,,
25.146484375,0.290898444929101,0.0147610642175735,,
25.390625,0.287484501159634,0.0146990803022291,,
25.634765625,0.283614360447453,0.014644382191594,,
25.87890625,0.279937121636875,0.0146062476894175,,
26.123046875,0.276029437916956,0.0144921443471269,,
26.3671875,0.27220770792528,0.0144551832142481,,
26.611328125,0.268427225843421,0.0143740570067554,,
26.85546875,0.264129292437801,0.0142998072891007,,
27.099609375,0.260112684596746,0.0142104129212082,,
27.34375,0.2559347900185,0.0141464915821392,,
27.587890625,0.251756370579126,0.014069854194402,,
27.83203125,0.24737378016099,0.0139540590173102,,
28.076171875,0.243109900980317,0.0138647192247334,,
28.3203125,0.238746267311155,0.0137834020036345,,
28.564453125,0.234333481941072,0.0136692406750702,,
28.80859375,0.229715691989261,0.0135835437848484,,
29.052734375,0.225246839101043,0.0134356480889744,,
29.296875,0.220615927621033,0.0133567594694446,,
29.541015625,0.215925058475704,0.0132339274875237,,
29.78515625,0.211323570093042,0.0131431005175813,,
30.029296875,0.206577590529282,0.0130287345315816,,
30.2734375,0.201760723839069,0.012894025596478,,
30.517578125,0.196850987603398,0.0127878663736478,,
30.76171875,0.191913835092339,0.0126296798197179,,
31.005859375,0.186993972124317,0.0124948651449395,,
31.25,0.182011619807888,0.0123616195105005,,
31.494140625,0.176958627358479,0.0122352503659,,
31.73828125,0.171889827326864,0.0121091302211793,,
31.982421875,0.166712597161057,0.0119548696790566,,
32.2265625,0.161523017321652,0.0118126293503211,,
32.470703125,0.156501856155942,0.0116862090413616,,
32.71484375,0.151205359017361,0.0115409295497066,,
32.958984375,0.145822877276354,0.0113814468320173,,
33.203125,0.140595260442267,0.0112103532158119,,
33.447265625,0.135207591838348,0.0110188893628451,,
33.69140625,0.129804856632639,0.0108690119008026,,
33.935546875,0.124436700513005,0.0107246192580353,,
34.1796875,0.118896636936886,0.0105544534222051,,
34.423828125,0.113502793496168,0.0103711656337921,,
34.66796875,0.108022502340263,0.0102257155942742,,
34.912109375,0.102507879091756,0.0100404358068209,,
35.15625,0.0969391642728883,0.00985239655494397,,
35.400390625,0.0913860100427546,0.00967284717568884,,
35.64453125,0.0858659838120479,0.00949472698752629,,
35.888671875,0.0802063445213143,0.00932211208438272,,
36.1328125,0.0746119423813629,0.00910397454563583,,
36.376953125,0.0689160259244348,0.00892920050654622,,
36.62109375,0.0633016173132544,0.00876734376260346,,
36.865234375,0.0575654409203965,0.00856706940703145,,
37.109375,0.0518440841358563,0.00837756344353213,,
37.353515625,0.0462175728445497,0.00817926744317132,,
37.59765625,0.0405868626642198,0.00797248157018826,,
37.841796875,0.0348316368998367,0.00775706256437836,,
38.0859375,0.0291300704672376,0.00759560831339234,,
38.330078125,0.0233694417206553,0.00737085692851647,,
38.57421875,0.0176038731046338,0.00716071467358859,,
38.818359375,0.0118486473402508,0.00696491208298555,,
39.0625,0.00605939822510491,0.00675530193739071,,
39.306640625,0.000338288434036688,0.00654862521504018,,
39.55078125,-0.0054166594626904,0.00631104521990622,,
39.794921875,-0.011188155922039,0.00611256843881058,,
40.0390625,-0.0169453267600137,0.00587770697661361,,
40.283203125,-0.0226614349332747,0.0056771256348882,,
40.52734375,-0.0284221254282249,0.00543886344830202,,
40.771484375,-0.0341999819694766,0.00521637352808968,,
41.015625,-0.0399235616952644,0.00500774914914315,,
41.259765625,-0.0455899006839249,0.00476953471595865,,
41.50390625,-0.0512415435610037,0.00455969262527001,,
41.748046875,-0.0569933422909633,0.00430461441938768,,
41.9921875,-0.0627146990755034,0.00409999791522253,,
42.236328125,-0.0682639014100857,0.00388511784065981,,
42.48046875,-0.0740477475430324,0.00362861385464219,,
42.724609375,-0.0796264038491463,0.00339182520159298,,
42.96875,-0.08528496254344,0.00316284081875606,,
43.212890625,-0.0908603461860503,0.00293899674851161,,
43.45703125,-0.0963398963615392,0.00270132465753159,,
43.701171875,-0.101992835954346,0.00247682909445013,,
43.9453125,-0.107499061424807,0.00219998215932904,,
44.189453125,-0.112903278591347,0.00202650087304113,,
44.43359375,-0.118439390271915,0.00175552078440866,,
44.677734375,-0.123953025546535,0.00154001991562414,,
44.921875,-0.12927227695872,0.00131792225549709,,
45.166015625,-0.134706318587,0.00105613810764016,,
45.41015625,-0.140090344037207,0.000828750052801475,,
45.654296875,-0.145316725903934,0.000606478433854196,,
45.8984375,-0.150640361450247,0.000360875867242427,,
46.142578125,-0.155782889033243,0.000116852573842863,,
46.38671875,-0.160956352548602,-0.000114966314477716,,
46.630859375,-0.166113329249708,-0.000337046919818285,,
46.875,-0.171338290903971,-0.000601246025416557,,
47.119140625,-0.176382576833494,-0.000799286203982508,,
47.36328125,-0.181379995751712,-0.00105685440866532,,
47.607421875,-0.186423664197555,-0.00126246861782908,,
47.8515625,-0.191494131435106,-0.00151995325405885,,
48.095703125,-0.19630605825588,-0.00175413593576135,,
48.33984375,-0.201171335666598,-0.00200744556030363,,
48.583984375,-0.206008949808457,-0.00223209291098314,,
48.828125,-0.210621552897357,-0.0024632330188088,,
49.072265625,-0.215519680439846,-0.00272651798786061,,
49.31640625,-0.220079673919218,-0.00293309920340779,,
49.560546875,-0.224840720084768,-0.00316269755855147,,
49.8046875,-0.229452088206309,-0.00339790352743208,,
50.048828125,-0.233708032721695,-0.00363297305802224,,
50.29296875,-0.238272039844987,-0.00386591415128157,,
50.537109375,-0.242912985434795,-0.00407027142269456,,
50.78125,-0.247092361973873,-0.00432957239366605,,
51.025390625,-0.251310269494577,-0.00459300573935861,,
51.26953125,-0.255551394401646,-0.00478935578860185,,
51.513671875,-0.259603075315719,-0.0050580300701264,,
51.7578125,-0.263852289258995,-0.00523320319121545,,
52.001953125,-0.26781264433681,-0.00546013929421685,,
52.24609375,-0.271923850677627,-0.00569883978881114,,
52.490234375,-0.27564332537191,-0.0059312351289087,,
52.734375,-0.279375581978368,-0.00613879870014733,,
52.978515625,-0.283614298699085,-0.00637770214669864,,
53.22265625,-0.287030465409799,-0.00658963174323057,,
53.466796875,-0.290715361018008,-0.0067891573936838,,
53.7109375,-0.29421180060711,-0.00699245385738889,,
53.955078125,-0.297845753811727,-0.00719354854818199,,
54.19921875,-0.301290386520084,-0.00742717353837241,,
54.443359375,-0.30494372871225,-0.00760567404826951,,
54.6875,-0.307933522941989,-0.0078297074266418,,
54.931640625,-0.31114048618195,-0.00803849723701555,,
55.17578125,-0.314422288443916,-0.0082644526898048,,
55.419921875,-0.317405722591752,-0.00846737735916836,,
55.6640625,-0.320442260336059,-0.00865282428352732,,
55.908203125,-0.323583276319007,-0.00885194232458764,,
56.15234375,-0.326037341708059,-0.00905473055566119,,
56.396484375,-0.329199599129595,-0.00924152821909541,,
56.640625,-0.33205367044649,-0.00939559433665416,,
56.884765625,-0.334348795536334,-0.00959494261732985,,
57.12890625,-0.336989834983661,-0.00977291442885164,,
57.373046875,-0.339140160150567,-0.0099583613532106,,
57.6171875,-0.341875612852552,-0.0101631279394949,,
57.861328125,-0.344057985422445,-0.0103376325129609,,
58.10546875,-0.346085554833786,-0.0105082758828079,,
58.349609375,-0.34832319219303,-0.0107011450501662,,
58.59375,-0.350299572207307,-0.0108518274981226,,
58.837890625,-0.352393582862605,-0.0110166585967968,,
59.08203125,-0.354350265147492,-0.0111830860234692,,
59.326171875,-0.356056496051809,-0.0113350765735349,,
59.5703125,-0.357424839886482,-0.0115154786921048,,
59.814453125,-0.359610485119878,-0.0116792029351482,,
60.05859375,-0.361393777987448,-0.0118314953549312,,
60.302734375,-0.362564774038022,-0.0119684384670409,,
60.546875,-0.363801470352139,-0.0121331604150825,,
60.791015625,-0.365307142557222,-0.0122840475204744,,
61.03515625,-0.366363039649862,-0.012415903189829,,
61.279296875,-0.36749426975145,-0.0125644265018394,,
61.5234375,-0.368692188090469,-0.0127035662704245,,
61.767578125,-0.36962360047324,-0.012855737601225,,
62.01171875,-0.37037248468023,-0.0129644379872147,,
62.255859375,-0.370904261625365,-0.0131111620192694,,
62.5,-0.371678339166496,-0.0132223199999655,,
62.744140625,-0.372404252980594,-0.0133828532924909,,
62.98828125,-0.373052610844495,-0.0134713880991542,,
63.232421875,-0.373426805954519,-0.013603772466884,,
63.4765625,-0.373944998258696,-0.0137072916087941,,
63.720703125,-0.373888189760145,-0.013829224803477,,
63.96484375,-0.37427522853071,-0.0139131070644365,,
64.208984375,-0.374386128599621,-0.0140493952727518,,
64.453125,-0.374412309907649,-0.0141260190166599,,
64.697265625,-0.374318946375247,-0.0142413093720775,,
64.94140625,-0.3739980401068,-0.0143313040684481,,
65.185546875,-0.373761235115556,-0.0143856337956993,,
65.4296875,-0.373531284193159,-0.0145152348223045,,
65.673828125,-0.372930349075874,-0.014592105860614,,
65.91796875,-0.372567762659033,-0.0146529453997979,,
66.162109375,-0.371868524139907,-0.014756541288246,,
66.40625,-0.371214732419622,-0.0148197940796919,,
66.650390625,-0.370655292205627,-0.0148708356441434,,
66.89453125,-0.369455397918833,-0.0149790994276033,,
67.138671875,-0.368532630307581,-0.0150129224798023,,
67.3828125,-0.36699583692503,-0.0150714135749115,,
67.626953125,-0.366261772326357,-0.0151303412725503,,
67.87109375,-0.365177717977914,-0.0151909880926486,,
68.115234375,-0.363629995134229,-0.0152587024161912,,
68.359375,-0.362706054303985,-0.0152790453652951,,
68.603515625,-0.360799017706962,-0.0153343165167503,,
68.84765625,-0.35924073589235,-0.0153629549139125,,
69.091796875,-0.357396435637206,-0.0154066560983388,,
69.3359375,-0.355869521993534,-0.015440315424589,,
69.580078125,-0.354217135666104,-0.0154510940495336,,
69.82421875,-0.352314050964633,-0.0154872092650113,,
70.068359375,-0.350296855279115,-0.0155181807569402,,
70.3125,-0.348143998429122,-0.0155652246794822,,
70.556640625,-0.346172558284285,-0.0155239520966255,,
70.80078125,-0.34386638023657,-0.0155422894028598,,
71.044921875,-0.341306972131727,-0.0155619910919986,,
71.2890625,-0.338985295243647,-0.0155573658339532,,
71.533203125,-0.336599832291433,-0.0155554284102291,,
71.77734375,-0.333646593095545,-0.0155597671478649,,
72.021484375,-0.331203210174155,-0.0155296688609949,,
72.265625,-0.328811387140038,-0.0155268855198698,,
72.509765625,-0.325903532994623,-0.0155312106136769,,
72.75390625,-0.323039149700273,-0.0154842485541091,,
72.998046875,-0.320067571239092,-0.0154719827517988,,
73.2421875,-0.316807998389603,-0.0154398106029143,,
73.486328125,-0.313825305222183,-0.0154198906125109,,
73.73046875,-0.310663788781062,-0.015388850901437,,
73.974609375,-0.30731980591253,-0.0153221189335855,,
74.21875,-0.304031828813764,-0.0152819515008815,,
74.462890625,-0.300857468712102,-0.0152744064634205,,
74.70703125,-0.297533862805006,-0.0152168295048569,,
74.951171875,-0.293877865433017,-0.015143057321219,,
75.1953125,-0.290327581267027,-0.0151233556320802,,
75.439453125,-0.286639289498579,-0.015039596165582,,
75.68359375,-0.282749080566801,-0.0149709387123567,,
75.927734375,-0.278938465281363,-0.0149310032247465,,
76.171875,-0.27516885091227,-0.0148808911461482,,
76.416015625,-0.27133680894314,-0.0147682476935653,,
76.66015625,-0.267236593811826,-0.014687817321354,,
76.904296875,-0.263301308571414,-0.0146562455009476,,
77.1484375,-0.259182939419911,-0.0145409005702142,,
77.392578125,-0.255142126218604,-0.0144671676125845,,
77.63671875,-0.250441099466741,-0.014350419072938,,
77.880859375,-0.246508716399626,-0.0142645857444257,,
78.125,-0.241959837626492,-0.0141814965310294,,
78.369140625,-0.2374704842801,-0.0140852256732984,,
78.61328125,-0.233196262247789,-0.0139677488942769,,
78.857421875,-0.228509808110772,-0.0138965025244908,,
79.1015625,-0.224115794244558,-0.0137582632486222,,
79.345703125,-0.219348326248737,-0.0136323307065509,,
79.58984375,-0.214672986817958,-0.0135340678497795,,
79.833984375,-0.210077673272095,-0.0134335810488744,,
80.078125,-0.205254137758139,-0.0133242530467492,,
80.322265625,-0.200281356438749,-0.0132094692184848,,
80.56640625,-0.195406755024465,-0.0130567521345228,,
80.810546875,-0.190594395965115,-0.0129394561362357,,
81.0546875,-0.185739615776955,-0.0128183415712955,,
81.298828125,-0.180612093047381,-0.0126669070072634,,
81.54296875,-0.175633445633032,-0.0125210408309595,,
81.787109375,-0.170573352121303,-0.0123693913766201,,
82.03125,-0.165412361776278,-0.0122270572465597,,
82.275390625,-0.160262547885859,-0.0120798949064969,,
82.51953125,-0.1551668255658,-0.0119115573437583,,
82.763671875,-0.14977767500105,-0.0117746960946232,,
83.0078125,-0.144534003591285,-0.011610206091675,,
83.251953125,-0.13919079381232,-0.0114785840728926,,
83.49609375,-0.133940453578812,-0.0113302210758741,,
83.740234375,-0.128474982031225,-0.0111276375022364,,
83.984375,-0.123113494735334,-0.0109772688623484,,
84.228515625,-0.117777447767056,-0.0108362871768422,,
84.47265625,-0.112163039155875,-0.0106660804095244,,
84.716796875,-0.106660271594022,-0.0104568113596559,,
84.9609375,-0.10116114718588,-0.0103033865020619,,
85.205078125,-0.0955584090162497,-0.0101104644648657,,
85.44921875,-0.0900331650484478,-0.00995467751936863,,
85.693359375,-0.0845205177477159,-0.00976609251432992,,
85.9375,-0.078836765719282,-0.00957522898984076,,
86.181640625,-0.0732055615520082,-0.00938395615048027,,
86.42578125,-0.0675009385751935,-0.00919010633290895,,
86.669921875,-0.0618893086405726,-0.00900656783913734,,
86.9140625,-0.0561614682773934,-0.00880553966201081,,
87.158203125,-0.0505781808436803,-0.00860970807827144,,
87.40234375,-0.0448410164769345,-0.00842156138124039,,
87.646484375,-0.0391443590395906,-0.00823955099632157,,
87.890625,-0.0333748385280177,-0.00800658432088319,,
88.134765625,-0.0276523085244857,-0.00783107010406781,,
88.37890625,-0.0217962785493579,-0.0075917027673289,,
88.623046875,-0.0162031113767663,-0.00742278022542031,,
88.8671875,-0.0104224761589551,-0.00718680849663489,,
89.111328125,-0.00464375514055164,-0.00698683089434438,,
89.35546875,0.0011345953876439,-0.00676349505673191,,
89.599609375,0.00687324171522147,-0.00656522463855058,,
89.84375,0.0126430400944503,-0.00633548813963802,,
90.087890625,0.0183769626718766,-0.00613440538719523,,
90.33203125,0.0241457422030336,-0.00592218927025279,,
90.576171875,0.0298732738243728,-0.00568084528378154,,
90.8203125,0.0355990764914083,-0.00546469803859617,,
91.064453125,0.0412890651050093,-0.00526716268170446,,
91.30859375,0.0470072109744139,-0.00502588520889979,,
91.552734375,0.0526645964497158,-0.00482114591027338,,
91.796875,0.0583962960858944,-0.00458367506577151,,
92.041015625,0.0640808817172962,-0.00435380383404693,,
92.28515625,0.0697350562774626,-0.00414918732988223,,
92.529296875,0.0753521818168346,-0.00390047397024862,,
