Time domain (s),Current (AC) (A),Potential (AC) (V),Frequency (Hz),Column 5
0,0.121210488549036,0.0016036854869208,0.12589,0.5
0.0193931706251489,0.127980102614679,0.00181790120136993,,
0.0387863412502979,0.134800475316345,0.00196385163846902,,
0.0581795118754468,0.141500615271232,0.00217666509371695,,
0.0775726825005957,0.148212381505878,0.002351728906409,,
0.0969658531257447,0.154860663999522,0.00257767823093902,,
0.116359023750894,0.161594513076516,0.002775693727322,,
0.135752194376043,0.168161376165871,0.00297405566421327,,
0.155145365001192,0.17472426930604,0.00313471745005023,,
0.17453853562634,0.181192769815115,0.00336162361027048,,
0.193931706251489,0.187747120475339,0.00350877421627427,,
0.213324876876638,0.194065046483143,0.00372489122922826,,
0.232718047501787,0.200537162481655,0.00390462786449408,,
0.252111218126936,0.206801175161673,0.00406592066697131,,
0.271504388752085,0.213174645012106,0.00426845226284067,,
0.290897559377234,0.219414589875183,0.00446249606625049,,
0.310290730002383,0.225444871796871,0.00463275095474058,,
0.329683900627532,0.231712606304251,0.00483960480838297,,
0.349077071252681,0.237735019219517,0.00502397714759617,,
0.36847024187783,0.243843069610082,0.0051875960506309,,
0.387863412502979,0.24978044763162,0.00537932200206726,,
0.407256583128128,0.255660793079585,0.00550831335141488,,
0.426649753753277,0.261511612030477,0.00569080913787312,,
0.446042924378426,0.267143835654312,0.00589303141186015,,
0.465436095003575,0.272769820786569,0.00610513548892344,,
0.484829265628723,0.278495621784075,0.00623025000400901,,
0.504222436253872,0.284090698026241,0.00640246393108868,,
0.523615606879021,0.289546790600918,0.00655987577501227,,
0.54300877750417,0.295164587712979,0.00673169789437411,,
0.562401948129319,0.300296597739369,0.00692021514681462,,
0.581795118754468,0.305668222555919,0.00708487337137509,,
0.601188289379617,0.311151856653075,0.00725561492629367,,
0.620581460004766,0.316197662068568,0.00738876356174378,,
0.639974630629915,0.321318612950797,0.00756520076359468,,
0.659367801255064,0.326302317018307,0.00770428425489911,,
0.678760971880213,0.331359181577961,0.0078586688686646,,
0.698154142505362,0.336192027576401,0.008016468396014,,
0.717547313130511,0.340857568573429,0.00818816678662326,,
0.73694048375566,0.345287464729483,0.00832248672093527,,
0.756333654380809,0.34983050443734,0.0084729738789795,,
0.775726825005957,0.35467752882573,0.00861151708806274,,
0.795119995631106,0.359063755540738,0.00875828825922342,,
0.814513166256255,0.363446012306559,0.00892874111371844,,
0.833906336881404,0.367463884450659,0.0090547670972847,,
0.853299507506553,0.371900869801688,0.00917164540170834,,
0.872692678131702,0.375643397612955,0.00932209956541863,,
0.892085848756851,0.37973953446958,0.00943432979301928,,
0.911479019382,0.383907413979354,0.0095524330120984,,
0.930872190007149,0.38760145169699,0.00972464693917852,,
0.950265360632298,0.391572251586455,0.00981001977878382,,
0.969658531257447,0.395129326057173,0.00997015365527387,,
0.989051701882596,0.398542631653794,0.0100598075097347,,
1.00844487250774,0.402215118218706,0.0101823278452979,,
1.02783804313289,0.405470760119081,0.0102951519709134,,
1.04723121375804,0.408735192621226,0.0104111476768987,,
1.06662438438319,0.411948866487348,0.0105226973963579,,
1.08601755500834,0.414839556630404,0.0106546747329457,,
1.10541072563349,0.418027709394615,0.0107412353685801,,
1.12480389625864,0.421061884843968,0.0108885674434216,,
1.14419706688379,0.423625054179173,0.0109677249753317,,
1.16359023750894,0.426466970660799,0.0110699867897286,,
1.18298340813409,0.428740333705422,0.0111668664033675,,
1.20237657875923,0.431421183677214,0.011274027876385,,
1.22176974938438,0.433450678414692,0.011306774753026,,
1.24116292000953,0.436096082411608,0.0114344133346735,,
1.26055609063468,0.438438919566986,0.0115130223357784,,
1.27994926125983,0.440104029682743,0.0115774767675347,,
1.29934243188498,0.442286934599482,0.0116673863280852,,
1.31873560251013,0.444115946903064,0.0117360145431107,,
1.33812877313528,0.445907811824976,0.0118051871646498,,
1.35752194376043,0.447602980127427,0.0118737988825082,,
1.37691511438557,0.449243136276871,0.0119661500237855,,
1.39630828501072,0.450776670933889,0.0120533210546019,,
1.41570145563587,0.452042801156446,0.0120901716015522,,
1.43509462626102,0.453263844098961,0.0121578429808875,,
1.45448779688617,0.454432994134258,0.0122272341898904,,
1.47388096751132,0.455195507945782,0.0122405144093847,,
1.49327413813647,0.456150280725032,0.012355371810842,,
1.51266730876162,0.457035579393525,0.0123677570590224,,
1.53206047938677,0.458020693927268,0.0124223461848687,,
1.55145365001191,0.458170701292942,0.0124663111351193,,
1.57084682063706,0.458997017859242,0.0124942738333087,,
1.59023999126221,0.459286257014227,0.0125436539786516,,
1.60963316188736,0.459130011156975,0.0125770071261821,,
1.62902633251251,0.4596642528903,0.0126046728753644,,
1.64841950313766,0.459482769498937,0.0126521022307009,,
1.66781267376281,0.459725219967086,0.0126665537490571,,
1.68720584438796,0.459536363812949,0.0127060974585325,,
1.70659901501311,0.459261303047914,0.0126855089940245,,
1.72599218563826,0.458606545000012,0.0127362872742767,,
1.7453853562634,0.458221176361164,0.0127353304385864,,
1.76477852688855,0.457881178570158,0.0127529782830633,,
1.7841716975137,0.45692300297732,0.0127508831428451,,
1.80356486813885,0.456142907962258,0.0127427376666023,,
1.822958038764,0.455491836295743,0.0127798397953507,,
1.84235120938915,0.454518631609558,0.0127693640942592,,
1.8617443800143,0.453380390464352,0.0127513821821488,,
1.88113755063945,0.451998281012002,0.0127511017303088,,
1.9005307212646,0.450800490629006,0.0127283191425804,,
1.91992389188974,0.449525853372479,0.012727098352217,,
1.93931706251489,0.447551370788008,0.0127073347460627,,
1.95871023314004,0.446313597345352,0.012676369563466,,
1.97810340376519,0.444001669080065,0.0126104468838402,,
1.99749657439034,0.442409152320854,0.0126482913851067,,
2.01688974501549,0.440745176476293,0.0126365948936518,,
2.03628291564064,0.438361505557858,0.0125803890454326,,
2.05567608626579,0.43599569941076,0.012558975722571,,
2.07506925689094,0.434157612937611,0.0125121113952069,,
2.09446242751609,0.431550207025761,0.0124796243489476,,
2.11385559814123,0.429384599744761,0.0124412024468334,,
2.13324876876638,0.426829086740129,0.0123824725320518,,
2.15264193939153,0.424179145658428,0.0123411677499918,,
2.17203511001668,0.421333259227615,0.012277686651093,,
2.19142828064183,0.41830277015965,0.0122418713013763,,
2.21082145126698,0.415518417941221,0.0121796357385917,,
2.23021462189213,0.412647293976297,0.0120824385544864,,
2.24960779251728,0.409249017473022,0.0120577422953776,,
2.26900096314243,0.405805653689706,0.0119703568013896,,
2.28839413376757,0.402693497095628,0.0119223995367066,,
2.30778730439272,0.39915655593864,0.0118370266971017,,
2.32718047501787,0.39576565219814,0.0117666827767002,,
2.34657364564302,0.392310945702863,0.0116817388634392,,
2.36596681626817,0.388339011542202,0.0116222995704733,,
2.38535998689332,0.384548560772904,0.0115219308059982,,
2.40475315751847,0.380647234994195,0.0114522797666141,,
2.42414632814362,0.376252217677418,0.0113617268165478,,
2.44353949876877,0.372537479510454,0.0112372886853125,,
2.46293266939391,0.368345780305564,0.0111879332857203,,
2.48232584001906,0.364230927974204,0.011069693965013,,
2.50171901064421,0.359745168961746,0.010970199550393,,
2.52111218126936,0.355166683279014,0.0108627535012431,,
2.54050535189451,0.350822991733857,0.0107578108971973,,
2.55989852251966,0.346201403745675,0.0106537838859238,,
2.57929169314481,0.341601934045816,0.0105376438297262,,
2.59868486376996,0.336902648480708,0.0104306267069205,,
2.61807803439511,0.332169051211919,0.0103151795317404,,
2.63747120502026,0.327040160431318,0.0101921106653724,,
2.6568643756454,0.322186330415752,0.0100930616742634,,
2.67625754627055,0.317070767321704,0.00998543003198415,,
2.6956507168957,0.312052467982714,0.00982925547559121,,
2.71504388752085,0.306695872259512,0.00970722593074891,,
2.734437058146,0.301434838884575,0.00959393576016332,,
2.75383022877115,0.296024648847361,0.00944459103093909,,
2.7732233993963,0.290706299331049,0.00932307289827561,,
2.79261657002145,0.285283951324453,0.00919975657440153,,
2.8120097406466,0.279494914707768,0.00904384184839024,,
2.83140291127174,0.273923055579147,0.00891133660245602,,
2.85079608189689,0.267946084403672,0.00879118773465981,,
2.87018925252204,0.262506615991211,0.00864149244063528,,
2.88958242314719,0.256804422012971,0.00847835195544544,,
2.90897559377234,0.250771198075369,0.00834051812454684,,
2.92836876439749,0.244758107451495,0.00820542282338188,,
2.94776193502264,0.238599085749059,0.00803933346957786,,
2.96715510564779,0.232552534124903,0.0078926035413347,,
2.98654827627294,0.226628483789918,0.00774252468817549,,
3.00594144689809,0.22034607464894,0.00756282104724404,,
3.02533461752323,0.214103329553847,0.00743300896383481,,
3.04472778814838,0.207939699874677,0.00725505402261328,,
3.06412095877353,0.20171538668652,0.00710161387166286,,
3.08351412939868,0.195302217344226,0.00692268972187549,,
3.10290730002383,0.188884227349349,0.00675808923740018,,
3.12230047064898,0.182438447710169,0.00660085886231432,,
3.14169364127413,0.175904194917699,0.00644677532184845,,
3.16108681189928,0.169221884288175,0.00627787732535001,,
3.18047998252443,0.162797974815493,0.00610833593933569,,
3.19987315314957,0.156159652640789,0.00591126078147619,,
3.21926632377472,0.149485033787812,0.00571720460519076,,
3.23865949439987,0.14274065725628,0.00555615926021957,,
3.25805266502502,0.135939850732746,0.00537657109945755,,
3.27744583565017,0.129120895870076,0.00520434067521069,,
3.29683900627532,0.122347595423046,0.00502980064757308,,
3.31623217690047,0.11558705552697,0.00485514926405806,,
3.33562534752562,0.108841013034619,0.00466593913060054,,
3.35501851815077,0.101864075461928,0.00448860695743614,,
3.37441168877592,0.0948979489115746,0.00428133655032514,,
3.39380485940106,0.0880627952383862,0.00409785918242545,,
3.41319803002621,0.0810839435830521,0.00392284073694293,,
3.43259120065136,0.07403756734558,0.00374152037363862,,
3.45198437127651,0.0670141600998272,0.00353845674413122,,
3.47137754190166,0.0601081499228625,0.00337168275789335,,
3.49077071252681,0.0531417752506846,0.0031630472102071,,
3.51016388315196,0.0459961148375858,0.00297131713447918,,
3.52955705377711,0.0389488878967167,0.00280307902466381,,
3.54895022440226,0.0319796421005738,0.00262688928031896,,
3.5683433950274,0.0249236245579355,0.00243807507887128,,
3.58773656565255,0.0178724276678803,0.00219258485994267,,
3.6071297362777,0.0107324386107617,0.00202000799518709,,
3.62652290690285,0.00366539736993702,0.0018205242509346,,
3.645916077528,-0.00342464830858188,0.00163046451337268,,
3.66530924815315,-0.0104860536394013,0.0014430072039171,,
3.6847024187783,-0.0175863077586844,0.00122776041652584,,
3.70409558940345,-0.0246697604858764,0.00104848570193816,,
3.7234887600286,-0.031771290660255,0.000846597495585133,,
3.74288193065374,-0.0387795979207108,0.000660492953829195,,
3.76227510127889,-0.0458271084293789,0.00047217779168518,,
3.78166827190404,-0.0528726339634541,0.000281994325370682,,
3.80106144252919,-0.0599323378874794,7.91946505360741E-05,,
3.82045461315434,-0.0669047738213611,-0.0001188827102232,,
3.83984778377949,-0.0738379356150805,-0.000330308341291108,,
3.85924095440464,-0.0808198710702288,-0.000501930432502018,,
3.87863412502979,-0.0878544792440423,-0.000728288061917493,,
3.89802729565494,-0.0947720448088165,-0.000914673055513404,,
3.91742046628009,-0.101670965790806,-0.00108314212566762,,
3.93681363690523,-0.108598527120495,-0.00128229592657902,,
3.95620680753038,-0.115383453847285,-0.00149265130393283,,
3.97559997815553,-0.12214115806537,-0.00167910228619705,,
3.99499314878068,-0.128993006792725,-0.0018928230856341,,
4.01438631940583,-0.135861302452422,-0.00209662702551405,,
4.03377949003098,-0.142681958721886,-0.00226389386461756,,
4.05317266065613,-0.149203167395601,-0.00244768880298318,,
4.07256583128128,-0.156018719444684,-0.00265532008562408,,
4.09195900190643,-0.162503631440126,-0.00286064588916668,,
4.11135217253157,-0.169244038022472,-0.00300788104315153,,
4.13074534315672,-0.175733983346347,-0.00323642042291228,,
4.15013851378187,-0.182222936182925,-0.00342361171554906,,
4.16953168440702,-0.18870416179698,-0.00360747264258299,,
4.18892485503217,-0.195107689834109,-0.00380781630166904,,
4.20831802565732,-0.201437206675696,-0.00397392421478582,,
4.22771119628247,-0.207649893584094,-0.00415686130046389,,
4.24710436690762,-0.213945453181751,-0.00435918461959872,,
4.26649753753277,-0.220082073028066,-0.0045274701587692,,
4.28589070815791,-0.226440159325404,-0.00471291481384206,,
4.30528387878306,-0.232606482898664,-0.00489526006365137,,
4.32467704940821,-0.238598554059436,-0.0050717281976902,,
4.34407022003336,-0.244618343972561,-0.00528079679601268,,
4.36346339065851,-0.250564193582095,-0.00545335716360107,,
4.38285656128366,-0.256628858099412,-0.00560323392646378,,
4.40224973190881,-0.262268100026273,-0.00577688310707902,,
4.42164290253396,-0.267966962082874,-0.00596455487970671,,
4.44103607315911,-0.27384936339738,-0.00613300951484019,,
4.46042924378426,-0.279434160306832,-0.00632292284004388,,
4.4798224144094,-0.285148973052127,-0.00644361405220772,,
4.49921558503455,-0.290497699768906,-0.00665283318717957,,
4.5186087556597,-0.296032021610135,-0.00678794498551127,,
4.53800192628485,-0.301432783018032,-0.00695296614774721,,
4.55739509691,-0.306606264835027,-0.0071451416469861,,
4.57678826753515,-0.311875025432487,-0.00728431174841804,,
4.5961814381603,-0.317214819763598,-0.00744626443757834,,
4.61557460878545,-0.322248715331533,-0.00761890729100223,,
4.6349677794106,-0.326910286379374,-0.00774357638257639,,
4.65436095003574,-0.332192870907036,-0.00791016477568451,,
4.67375412066089,-0.336707270267193,-0.00809090567599524,,
4.69314729128604,-0.341831553071061,-0.00822605253080733,,
4.71254046191119,-0.346041187939238,-0.00836146127814619,,
4.73193363253634,-0.350880555997055,-0.00851796990217224,,
4.75132680316149,-0.355501860417437,-0.00867911423014611,,
4.77071997378664,-0.360239356743462,-0.00879245183008681,,
4.79011314441179,-0.364185628018313,-0.00894991522765709,,
4.80950631503694,-0.368569798866778,-0.00909551922424789,,
4.82889948566209,-0.372712157274641,-0.00921975938947828,,
4.84829265628723,-0.376881738191209,-0.00935426285477403,,
4.86768582691238,-0.381108599803176,-0.00952398364748008,,
4.88707899753753,-0.384768609384932,-0.00963166065696841,,
4.90647216816268,-0.388369636864494,-0.00976223573435497,,
4.92586533878783,-0.39244564040739,-0.00991476854111673,,
4.94525850941298,-0.395953019621332,-0.0100116893976732,,
4.96465168003813,-0.399696752595744,-0.0101234247102617,,
4.98404485066328,-0.403188322904891,-0.0102375686092433,,
5.00343802128843,-0.406230721820415,-0.0103627491129967,,
5.02283119191357,-0.409616237772734,-0.0104784272485161,,
5.04222436253872,-0.412726976527817,-0.0105933960058509,,
5.06161753316387,-0.415836226551956,-0.0106814413865224,,
5.08101070378902,-0.418985955879403,-0.0108005200006045,,
5.10040387441417,-0.421795191172194,-0.0109265562948999,,
5.11979704503932,-0.424558559373497,-0.0110075408880634,,
5.13919021566447,-0.426966900690445,-0.0111103512332655,,
5.15858338628962,-0.430099190598253,-0.0111936928591749,,
5.17797655691477,-0.432427778471731,-0.0113193352836065,,
5.19736972753992,-0.434545817254448,-0.0113970905563154,,
5.21676289816506,-0.436884471784791,-0.0114383664683331,,
5.23615606879021,-0.439181300064781,-0.0115252714823306,,
5.25554923941536,-0.440940554689807,-0.0116264465458462,,
5.27494241004051,-0.442917022248871,-0.0117299497720653,,
5.29433558066566,-0.444955874723716,-0.011796187960011,,
5.31372875129081,-0.446851241892265,-0.011872965775571,,
5.33312192191596,-0.448144594623526,-0.0119638486689788,,
5.35251509254111,-0.44979921273072,-0.0120032459660964,,
5.37190826316626,-0.451279436641525,-0.0120579485099661,,
5.3913014337914,-0.452906194212466,-0.0121314433892783,,
5.41069460441655,-0.454115398199373,-0.0122151665121764,,
5.4300877750417,-0.455146096256806,-0.0122462616099637,,
5.44948094566685,-0.456243007395306,-0.012328089620794,,
5.468874116292,-0.456998999147453,-0.0123261924465807,,
5.48826728691715,-0.457901099208038,-0.0124165288713289,,
5.5076604575423,-0.458753149552098,-0.012459475121513,,
5.52705362816745,-0.459093218235054,-0.0124933912348704,,
5.5464467987926,-0.459277820872206,-0.0125408205902064,,
5.56583996941774,-0.459794977645641,-0.0125458212939757,,
5.58523314004289,-0.46045937699871,-0.0125964160432441,,
5.60462631066804,-0.460044588200716,-0.0126166601293893,,
5.62401948129319,-0.460352188370686,-0.012659039289455,,
5.64341265191834,-0.459902733409263,-0.0126631470840564,,
5.66280582254349,-0.460123632724688,-0.0126801391661422,,
5.68219899316864,-0.459928608970923,-0.0127232297665381,,
5.70159216379379,-0.459284272039634,-0.0127126055909428,,
5.72098533441894,-0.458831697832422,-0.0127356026418433,,
5.74037850504409,-0.457947533435125,-0.0127353056928357,,
5.75977167566923,-0.457701963721186,-0.0127627569788462,,
5.77916484629438,-0.456729113494751,-0.0127676401402996,,
5.79855801691953,-0.455572724010409,-0.0127710859860724,,
5.81795118754468,-0.454963265918397,-0.0127812503031355,,
5.83734435816983,-0.453749595738657,-0.0127832959518526,,
5.85673752879498,-0.452272207505841,-0.012740716763636,,
5.87613069942013,-0.451263202385032,-0.0127594389861185,,
5.89552387004528,-0.449843449307364,-0.0127283273911636,,
5.91491704067043,-0.448117088547023,-0.0127505490752116,,
5.93431021129557,-0.446110846369063,-0.0127249949634147,,
5.95370338192072,-0.444582770392176,-0.0126696304707163,,
5.97309655254587,-0.442719659060764,-0.0126454621209535,,
5.99248972317102,-0.440661311299737,-0.0126263584014827,,
6.01188289379617,-0.438653934850582,-0.0125958716367309,,
6.03127606442132,-0.436295430574308,-0.0125686678082264,,
6.05066923504647,-0.434044469385808,-0.0125269650320106,,
6.07006240567162,-0.431694259467655,-0.0124936551895436,,
6.08945557629677,-0.429320229854387,-0.0124687960209098,,
6.10884874692192,-0.426712256806939,-0.0124038590470166,,
6.12824191754706,-0.424156460234508,-0.0123587248600496,,
6.14763508817221,-0.421240036313692,-0.0123425720713386,,
6.16702825879736,-0.418325810043319,-0.0122468740672912,,
6.18642142942251,-0.415217268938678,-0.012172933764468,,
6.20581460004766,-0.412126096361726,-0.0120971127845984,,
6.22520777067281,-0.408771205731699,-0.0120571917024264,,
6.24460094129796,-0.405712643451633,-0.0119794219946963,,
6.26399411192311,-0.402404328832592,-0.0119372552356563,,
6.28338728254826,-0.398903329894129,-0.0118390785322564,,
6.3027804531734,-0.395304570956958,-0.0117562648156935,,
6.32217362379855,-0.391879639080577,-0.011687554114832,,
6.3415667944237,-0.38778378579175,-0.0115995912199964,,
6.36095996504885,-0.38390854825055,-0.0115276140800549,,
6.380353135674,-0.380072726633411,-0.0114784380871549,,
6.39974630629915,-0.376159491007144,-0.0113659748370689,,
6.4191394769243,-0.371850111165666,-0.0112644657059202,,
6.43853264754945,-0.367898310318734,-0.0111818499553618,,
6.4579258181746,-0.36333457016155,-0.0110908845761188,,
6.47731898879974,-0.358879720039183,-0.0109691189859493,,
6.49671215942489,-0.354437063332174,-0.0108793084084016,,
6.51610533005004,-0.349833056547531,-0.0107636632672166,,
6.53549850067519,-0.345303698985976,-0.0106651916769547,,
6.55489167130034,-0.340470214959988,-0.0105607151178786,,
6.57428484192549,-0.335799569742579,-0.0104504315559923,,
6.59367801255064,-0.330817283514063,-0.0103340461044348,,
6.61307118317579,-0.325901352150514,-0.0102253442084419,,
6.63246435380094,-0.321084669516618,-0.0101096330785886,,
6.65185752442609,-0.316068922287819,-0.00998803246008961,,
6.67125069505123,-0.310427978954165,-0.00986202916012857,,
6.69064386567638,-0.305370476366963,-0.00975727214921207,,
6.71003703630153,-0.300164455145033,-0.00960384643328283,,
