Time domain (s),Current (AC) (A),Potential (AC) (V),Frequency (Hz),Column 5
0,-0.34463372720559,-0.00750158058437256,39.811,0.4
0.000239167174273442,-0.336339130681776,-0.00737179638147367,,
0.000478334348546884,-0.326734357285937,-0.00722780907803022,,
0.000717501522820326,-0.316022744393866,-0.00704588786565985,,
0.000956668697093768,-0.304189534145613,-0.00683091261298907,,
0.00119583587136721,-0.291489376810771,-0.00663388483554161,,
0.00143500304564065,-0.277398152241836,-0.0063854625427493,,
0.00167417021991409,-0.262472583724612,-0.00614556878112937,,
0.00191333739418754,-0.246904585186814,-0.0058586281553219,,
0.00215250456846098,-0.230217953214497,-0.00555738436628506,,
0.00239167174273442,-0.212313396431932,-0.00521263506200231,,
0.00263083891700786,-0.194184878318666,-0.00487012484157034,,
0.0028700060912813,-0.175105064848136,-0.00451692966659412,,
0.00310917326555475,-0.155582453830745,-0.00413608818686306,,
0.00334834043982819,-0.135318862397467,-0.00371375984779254,,
0.00358750761410163,-0.114647052503402,-0.0033066294353814,,
0.00382667478837507,-0.09353911388622,-0.00289685388764349,,
0.00406584196264851,-0.0721470710279127,-0.0024643046528583,,
0.00430500913692196,-0.0504435076530927,-0.00202829817979433,,
0.0045441763111954,-0.0285216020490578,-0.00157770865801998,,
0.00478334348546884,-0.00649867611499028,-0.00113660913930458,,
0.00502251065974228,0.0155504311271053,-0.000674232523266038,,
0.00526167783401572,0.0374229380367477,-0.000211008999864148,,
0.00550084500828917,0.0592554320039321,0.000239255680729578,,
0.00574001218256261,0.0808189809543334,0.000688509583186114,,
0.00597917935683605,0.102224114466655,0.00113708189923667,,
0.00621834653110949,0.123288736603692,0.00160802040067587,,
0.00645751370538294,0.143789935756998,0.0020843187815931,,
0.00669668087965638,0.163698381451778,0.00252750656504031,,
0.00693584805392982,0.183188605450158,0.00293783898337319,,
0.00717501522820326,0.201800273668767,0.00334624265719707,,
0.0074141824024767,0.21986787701701,0.003777588239394,,
0.00765334957675015,0.237066032469762,0.0041615940202675,,
0.00789251675102359,0.25341551835285,0.00455834401674071,,
0.00813168392529703,0.2688024706757,0.0049203070032231,,
0.00837085109957047,0.283154767344499,0.00525698748461156,,
0.00861001827384391,0.296627767253111,0.00557983031178422,,
0.00884918544811735,0.309087846933206,0.00587933388021122,,
0.0090883526223908,0.320329507816108,0.00615368546008987,,
0.00932751979666424,0.33056417631382,0.00642150251157902,,
0.00956668697093768,0.33930725123435,0.00668440634021295,,
0.00980585414521112,0.347218205147838,0.00688656196772452,,
0.0100450213194846,0.353701042806439,0.00712841492771421,,
0.010284188493758,0.358902478332498,0.00726881882688524,,
0.0105233556680314,0.363187074090632,0.00738999618868474,,
0.0107625228423049,0.365412238279542,0.00754883192448164,,
0.0110016900165783,0.367093769836663,0.00761848715475866,,
0.0112408571908518,0.367393866905098,0.00767459476758825,,
0.0114800243651252,0.36604750548943,0.00768688942619677,,
0.0117191915393987,0.363279449649146,0.00770224977344647,,
0.0119583587136721,0.359387573511432,0.00767992854375743,,
0.0121975258879455,0.354328653218695,0.00764363914330657,,
0.012436693062219,0.347844086605791,0.00759027237793752,,
0.0126758602364924,0.340137396293616,0.00746156566163281,,
0.0129150274107659,0.331667743146549,0.00732671016583941,,
0.0131541945850393,0.321507913670842,0.00717873050628048,,
0.0133933617593128,0.310506083449214,0.00698415063915725,,
0.0136325289335862,0.298159126779279,0.0067791120461691,,
0.0138716961078596,0.284845931647027,0.00654393573258538,,
0.0141108632821331,0.270557359293994,0.00629982918690564,,
0.0143500304564065,0.255276367170616,0.0060302922173805,,
0.01458919763068,0.238764606576448,0.00572749383126592,,
0.0148283648049534,0.221836661982024,0.00539457802713006,,
0.0150675319792268,0.203905429904488,0.00505642995969335,,
0.0153066991535003,0.185208518063868,0.00470381485825389,,
0.0155458663277737,0.166090482353551,0.00430962298607751,,
0.0157850335020472,0.14614826030148,0.00393461414575658,,
0.0160242006763206,0.12561689707041,0.00356002585875004,,
0.0162633678505941,0.104710597748902,0.00312612215225627,,
0.0165025350248675,0.0834412797719756,0.00268267333571792,,
0.0167417021991409,0.0618491104530107,0.00225774916757127,,
0.0169808693734144,0.0400420568134384,0.00180916379986584,,
0.0172200365476878,0.0181013797055344,0.00132340151919852,,
0.0174592037219613,-0.00393364890865935,0.000909112999345929,,
0.0176983708962347,-0.0258990253637596,0.000447467275963565,,
0.0179375380705082,-0.0477273204419207,-4.85086495016773E-06,,
0.0181767052447816,-0.0695030059105538,-0.000476949513462444,,
0.018415872419055,-0.0910482464698458,-0.000932771298537194,,
0.0186550395933285,-0.112246214207558,-0.00138715450124094,,
0.0188942067676019,-0.133072456769968,-0.0018507260687648,,
0.0191333739418754,-0.153338518137966,-0.00228842635655546,,
0.0193725411161488,-0.173121954261749,-0.00270010309530955,,
0.0196117082904222,-0.192325758455204,-0.00317881603232317,,
0.0198508754646957,-0.210619021214269,-0.00357456540194567,,
0.0200900426389691,-0.228327712173567,-0.00397031477156817,,
0.0203292098132426,-0.245184337402962,-0.0043474553821361,,
0.020568376987516,-0.260930665227518,-0.00471273928961535,,
0.0208075441617895,-0.276143178410795,-0.00504852065702188,,
0.0210467113360629,-0.290101829233653,-0.00540843453373618,,
0.0212858785103363,-0.302771235881236,-0.00576146438775416,,
0.0215250456846098,-0.315037981421151,-0.00604693162677883,,
0.0217642128588832,-0.32585506052575,-0.00629834709901989,,
0.0220033800331567,-0.335265697052627,-0.0065768055995381,,
0.0222425472074301,-0.344049834637871,-0.00676821826515139,,
0.0224817143817036,-0.351296314363411,-0.00698976140044039,,
0.022720881555977,-0.356749806727608,-0.00716156468014839,,
0.0229600487302504,-0.361623420168005,-0.00732241037074965,,
0.0231992159045239,-0.365054653480509,-0.00742508193654734,,
0.0234383830787973,-0.367189171065209,-0.0075171381566248,,
0.0236775502530708,-0.367623138595447,-0.00759982328871844,,
0.0239167174273442,-0.367385469127051,-0.00767316778668814,,
0.0241558846016176,-0.365469108526462,-0.00768944465012567,,
0.0243950517758911,-0.361915119458393,-0.00768190514433353,,
0.0246342189501645,-0.357462321145852,-0.00766571819229434,,
0.024873386124438,-0.351662420437228,-0.00758877868858088,,
0.0251125532987114,-0.344853057408693,-0.00750702312432994,,
0.0253517204729849,-0.336421256011204,-0.00737821344497247,,
0.0255908876472583,-0.327087063963899,-0.00724299685340268,,
0.0258300548215317,-0.316294622458128,-0.0070712950865639,,
0.0260692219958052,-0.304591948259808,-0.00687158736937699,,
0.0263083891700786,-0.292036282106064,-0.00667599817430009,,
0.0265475563443521,-0.277956851475416,-0.00643329540657867,,
0.0267867235186255,-0.262999173806836,-0.00613887328233265,,
0.027025890692899,-0.247111318722846,-0.00587544013659658,,
0.0272650578671724,-0.230607955906725,-0.00556909025025387,,
0.0275042250414458,-0.212963236256666,-0.00522286610900435,,
0.0277433922157193,-0.194509118998985,-0.00489167892400744,,
0.0279825593899927,-0.175599113540429,-0.00451558389598938,,
0.0282217265642662,-0.155945719479634,-0.00413750356629228,,
0.0284608937385396,-0.135736219616716,-0.00376017588200872,,
0.028700060912813,-0.115122020949986,-0.00333189743863693,,
0.0289392280870865,-0.0941667860468448,-0.00293235438808459,,
0.0291783952613599,-0.0726289552917117,-0.0024886793428669,,
0.0294175624356334,-0.051015297540686,-0.00205640854337874,,
0.0296567296099068,-0.029087772835164,-0.00160159753644162,,
0.0298958967841803,-0.00709269541506018,-0.00115137781154706,,
0.0301350639584537,0.0149991108235009,-0.000676111961524839,,
0.0303742311327271,0.0368721425942712,-0.000221775164703786,,
0.0306133983070006,0.0586683285210772,0.000219509977543275,,
0.030852565481274,0.0804316643161121,0.000694275514139697,,
0.0310917326555475,0.101642722707839,0.00113035014584417,,
0.0313308998298209,0.122657174295883,0.00158272919447899,,
0.0315700670040944,0.143089925383272,0.00202783992170019,,
0.0318092341783678,0.163189821893007,0.0024798477232717,,
0.0320484013526412,0.182696841447481,0.00291534373162294,,
0.0322875685269147,0.201361397143274,0.00333064157942964,,
0.0325267357011881,0.2192758645389,0.00374339870514584,,
0.0327659028754616,0.236615516376902,0.00413689738944623,,
0.033005070049735,0.253035642392972,0.0045008471277912,,
0.0332442372240084,0.268557700144985,0.00488619867926987,,
0.0334834043982819,0.282890731322971,0.00524656936389389,,
0.0337225715725553,0.29666654522821,0.00555537441148024,,
0.0339617387468288,0.308629427049243,0.00588102769493792,,
0.0342009059211022,0.320255162781048,0.0061661802440689,,
0.0344400730953757,0.330445372453806,0.00641180658241458,,
0.0346792402696491,0.339296383521583,0.00667844318425637,,
0.0349184074439225,0.347052966515095,0.0068910865413101,,
0.035157574618196,0.353655843001069,0.00708794029669679,,
0.0353967417924694,0.358952371013834,0.00727196282545339,,
0.0356359089667429,0.362927483951599,0.00739802730679928,,
0.0358750761410163,0.365690599922444,0.00752900791136746,,
0.0361142433152898,0.366697345314163,0.00758681804002714,,
0.0363534104895632,0.367071787417659,0.00766671446859313,,
0.0365925776638366,0.365967479604514,0.00769960463811925,,
0.0368317448381101,0.363557317305104,0.00770916425000268,,
0.0370709120123835,0.359648398617824,0.00767323449514468,,
0.037310079186657,0.354755457938247,0.00763436956819108,,
0.0375492463609304,0.348303000476697,0.00757637671636768,,
0.0377884135352038,0.340601497027434,0.00743834241759433,,
0.0380275807094773,0.331916712566287,0.00731693882711548,,
0.0382667478837507,0.322049323361384,0.007167735212394,,
0.0385059150580242,0.310701455285537,0.0069667049275437,,
0.0387450822322976,0.298451567050083,0.00677579112517179,,
0.0389842494065711,0.28508922021691,0.00654041758658597,,
0.0392234165808445,0.270671964264984,0.00628453844848043,,
0.0394625837551179,0.255582886069321,0.00603367114573139,,
0.0397017509293914,0.239289467704369,0.00573960576671029,,
0.0399409181036648,0.222205917222608,0.00541674843769924,,
0.0401800852779383,0.204384844233567,0.00508500438210735,,
0.0404192524522117,0.185942335669068,0.00474169366019517,,
0.0406584196264852,0.166544209361547,0.00436043452751722,,
0.0408975868007586,0.146643698332053,0.0039469233062035,,
0.041136753975032,0.126239320619756,0.00354410574053743,,
0.0413759211493055,0.105159199642353,0.00311984285622247,,
0.0416150883235789,0.0839034045580175,0.00270693491138685,,
0.0418542554978524,0.0623937310586881,0.00227733245016726,,
0.0420934226721258,0.0405651889870551,0.00182209073862927,,
0.0423325898463992,0.0186590909652258,0.00137858971547233,,
0.0425717570206727,-0.00335543719079505,0.000922303871568442,,
0.0428109241949461,-0.0253487239082271,0.000484940026428848,,
0.0430500913692196,-0.0471928265685938,3.58195408889372E-07,,
0.043289258543493,-0.0688672447137222,-0.000458713451654713,,
0.0435284257177665,-0.0905510486107852,-0.000909765582074673,,
0.0437675928920399,-0.111726292949077,-0.00137048318779831,,
0.0440067600663133,-0.132511781588613,-0.00185304636291139,,
0.0442459272405868,-0.152792415571456,-0.00226239265623196,,
0.0444850944148602,-0.172439758292188,-0.00270757444246117,,
0.0447242615891337,-0.191813247000882,-0.00311920912588404,,
0.0449634287634071,-0.210174679958209,-0.0035278346778358,,
0.0452025959376805,-0.227818658627852,-0.00395540688167717,,
0.045441763111954,-0.244446753147314,-0.00434829068802856,,
0.0456809302862274,-0.260678484892644,-0.00469117360570737,,
0.0459200974605009,-0.275825050818907,-0.00505925346763325,,
0.0461592646347743,-0.289683607537253,-0.00540550951292751,,
0.0463984318090478,-0.302795935228432,-0.00572887730665084,,
0.0466375989833212,-0.314628219251165,-0.00602391430884586,,
0.0468767661575946,-0.325476913520176,-0.00629298721954141,,
0.0471159333318681,-0.335356837643781,-0.00654078303291428,,
0.0473551005061415,-0.343512870829824,-0.00677349693433449,,
0.047594267680415,-0.350712236550588,-0.00699184821498866,,
0.0478334348546884,-0.356732702429675,-0.0071641300553642,,
0.0480726020289619,-0.361452253691935,-0.00733723705034572,,
0.0483117692032353,-0.364999326942789,-0.00746618594735216,,
0.0485509363775087,-0.366835970400302,-0.00755887009703304,,
0.0487901035517822,-0.367733235935574,-0.00763964968755859,,
0.0490292707260556,-0.367147182174975,-0.00767916574705696,,
0.0492684379003291,-0.365217669172004,-0.0076824736163994,,
0.0495076050746025,-0.362137413583159,-0.00767929336323503,,
0.0497467722488759,-0.357578469826043,-0.00764785192736639,,
0.0499859394231494,-0.351929358632051,-0.00760035550618809,,
0.0502251065974228,-0.344919992639595,-0.00752528383926299,,
0.0504642737716963,-0.336745002704579,-0.00737888633027506,,
0.0507034409459697,-0.327239705929572,-0.007250920657913,,
0.0509426081202432,-0.316783237294038,-0.00708913814855006,,
0.0511817752945166,-0.30478701135429,-0.00687918633270668,,
0.05142094246879,-0.291871475711897,-0.00667141704354446,,
0.0516601096430635,-0.278290045669093,-0.0064478552523477,,
0.0518992768173369,-0.26340992395071,-0.00615446710918111,,
0.0521384439916104,-0.247561834815706,-0.00587463963511636,,
0.0523776111658838,-0.230958933630384,-0.00556492532226116,,
0.0526167783401572,-0.213269014174955,-0.00522798380778111,,
0.0528559455144307,-0.195061396402293,-0.00489187759919352,,
0.0530951126887041,-0.176060435597687,-0.0045248868253327,,
0.0533342798629776,-0.156471877323282,-0.00415381378395807,,
0.053573447037251,-0.136293004650887,-0.00376690473503372,,
0.0538126142115245,-0.115681646409085,-0.00334978690650622,,
0.0540517813857979,-0.0946370616174614,-0.00294110189701691,,
0.0542909485600713,-0.0732031533656566,-0.00250739251515819,,
0.0545301157343448,-0.0515270680145924,-0.00207045792443594,,
0.0547692829086182,-0.029654375859846,-0.00161489282190086,,
0.0550084500828917,-0.00763132642904248,-0.0011777015486385,,
0.0552476172571651,0.0143880798480496,-0.000713491900224739,,
0.0554867844314386,0.0363732157809069,-0.000244316822336721,,
0.055725951605712,0.0581698956946568,0.00019194488308294,,
0.0559651187799854,0.0797687338373647,0.000674774892022612,,
0.0562042859542589,0.101223327792446,0.00113942249595711,,
0.0564434531285323,0.122158988462935,0.00160460956828024,,
0.0566826203028058,0.142622397615031,0.00203846106815542,,
0.0569217874770792,0.162595030738338,0.00246642482163439,,
0.0571609546513526,0.182114924827537,0.00290833644330091,,
0.0574001218256261,0.20085753046047,0.00332662747055634,,
0.0576392889998995,0.218911055180812,0.00374895580962642,,
0.057878456174173,0.236256881855613,0.00411274312738152,,
0.0581176233484464,0.252612048588556,0.00451000358856657,,
0.0583567905227199,0.267842407050182,0.00488370726343001,,
0.0585959576969933,0.282752661972144,0.00525725141807065,,
0.0588351248712667,0.295864063437803,0.00557387875729853,,
0.0590742920455402,0.308544955281832,0.00588690964059913,,
0.0593134592198136,0.319918757672235,0.0061563189939462,,
0.0595526263940871,0.330108967344993,0.00643934557356562,,
0.0597917935683605,0.338918730502953,0.00665178300451341,,
0.060030960742634,0.346832895331576,0.00689558791195433,,
0.0602701279169074,0.353357474886939,0.0071013515968632,,
0.0605092950911808,0.358558910412998,0.0072418686103739,,
0.0607484622654543,0.362549830932968,0.00741902596882493,,
0.0609876294397277,0.365466576843374,0.00752386555946538,,
0.0612267966140012,0.366821830024032,0.00759972757658423,,
0.0614659637882746,0.367213808664037,0.00764767645512121,,
0.061705130962548,0.366048246469846,0.00770187852638271,,
0.0619442981368215,0.363627710444613,0.00770396679111451,,
0.0621834653110949,0.359564914824301,0.0076994074131167,,
0.0624226324853684,0.354641593947672,0.00762090026067108,,
0.0626617996596418,0.348360796949137,0.00757742954983698,,
0.0629009668339153,0.34083391788455,0.00745291386483382,,
0.0631401340081887,0.332048113093371,0.00733511833175271,,
0.0633793011824621,0.32216343434543,0.0071962980333371,,
0.0636184683567356,0.311060830787242,0.0070120898810484,,
0.063857635531009,0.298921348633756,0.00677987484286957,,
0.0640968027052825,0.285379684539938,0.0065486691326444,,
0.0643359698795559,0.271114082579797,0.00630371567960086,,
0.0645751370538293,0.256020805495111,0.00601112948809845,,
0.0648143042281028,0.239710591574065,0.00571147220018453,,
0.0650534714023762,0.22254479226614,0.00542968407756605,,
0.0652926385766497,0.204834619346011,0.00505113678867186,,
0.0655318057509231,0.18633653725032,0.00473432672628027,,
0.0657709729251966,0.166974441115521,0.00436769704819584,,
0.06601014009947,0.147117215691989,0.00395645971514558,,
0.0662493072737435,0.126635251155312,0.00354561393173292,,
0.0664884744480169,0.105731977503835,0.0031215946783032,,
0.0667276416222903,0.084572756867036,0.00270118058190372,,
0.0669668087965638,0.0629904364127656,0.00226772933276864,,
0.0672059759708372,0.0411755098562745,0.00183212601081273,,
0.0674451431451107,0.0191812351649546,0.00137698871251146,,
0.0676843103193841,-0.0027683645821241,0.000922617111278168,,
0.0679234774936575,-0.0247687214876911,0.000466250057078899,,
0.068162644667931,-0.0466924177943977,-3.86328975388039E-06,,
0.0684018118422044,-0.0682272846278673,-0.000452947520700686,,
0.0686409790164779,-0.0900037110769162,-0.000888534890634674,,
0.0688801461907513,-0.111269108032475,-0.00136974069367168,,
0.0691193133650247,-0.132044222946188,-0.00179815980487641,,
0.0693584805392982,-0.15231967006612,-0.00229572368164632,,
0.0695976477135716,-0.172106811091983,-0.00270351537788871,,
0.0698368148878451,-0.191243186067592,-0.00312528684636382,,
0.0700759820621185,-0.209669084321101,-0.00354726714131237,,
0.070315149236392,-0.227328129592535,-0.00395915415672343,,
0.0705543164106654,-0.244257062160847,-0.00432359260702331,,
0.0707934835849388,-0.260075573827584,-0.00471446790875429,,
0.0710326507592123,-0.275174223020286,-0.00505476369845992,,
0.0712718179334857,-0.289466006288454,-0.00542590489847505,,
0.0715109851077592,-0.30237067421808,-0.00572148716979459,,
0.0717501522820326,-0.314347387673544,-0.00602599097210677,,
0.0719893194563061,-0.325285740572877,-0.00628671082387555,,
0.0722284866305795,-0.334989867092813,-0.00655946140079333,,
0.0724676538048529,-0.343481996645829,-0.00679029441377121,,
0.0727068209791264,-0.350483273602079,-0.00696742711909693,,
0.0729459881533998,-0.356657678162566,-0.00715976790236894,,
0.0731851553276733,-0.361329250942898,-0.00727660486393056,,
0.0734243225019467,-0.364642421375803,-0.00743640497198195,,
0.0736634896762201,-0.366922912102433,-0.00755450794403778,,
0.0739026568504936,-0.367906440107788,-0.00762366431107342,,
0.074141824024767,-0.367037949312,-0.00766764693680333,,
0.0743809911990405,-0.365553024558561,-0.00769511921949784,,
0.0746201583733139,-0.362276964894818,-0.00769818200777106,,
0.0748593255475874,-0.357767419832094,-0.00762849052289782,,
0.0750984927218608,-0.35209688195441,-0.00758928770310963,,
0.0753376598961342,-0.345302832521136,-0.0074897137299974,,
0.0755768270704077,-0.33700064094806,-0.00741022045253903,,
0.0758159942446811,-0.327685776139937,-0.0072385302871707,,
0.0760551614189546,-0.316929889668016,-0.00707580805867858,,
0.076294328593228,-0.305081921559813,-0.00689244681375367,,
0.0765334957675015,-0.292489453378747,-0.00665744742259866,,
0.0767726629417749,-0.278646704242607,-0.00643265732568832,,
0.0770118301160483,-0.26380758344057,-0.00617551072690548,,
0.0772509972903218,-0.247945168684192,-0.00586333835243913,,
0.0774901644645952,-0.231365484885234,-0.00556403200901467,,
0.0777293316388687,-0.213777820727198,-0.00524107026676734,,
0.0779684988131421,-0.195460784846457,-0.00489699239760277,,
0.0782076659874155,-0.17658554371908,-0.0045415943933711,,
0.078446833161689,-0.156929247484989,-0.00414954589291261,,
0.0786860003359624,-0.136802058196602,-0.00376847238376632,,
0.0789251675102359,-0.116182549170225,-0.00335849816084233,,
