Time domain (s),Current (AC) (A),Potential (AC) (V),Frequency (Hz),Column 5
0,-0.152989186258216,-0.00890532019544876,0.012589,0.3
0.193931706251489,-0.149242244567781,-0.00881780421692868,,
0.387863412502979,-0.145577122301524,-0.00875399136126598,,
0.581795118754468,-0.141664910664298,-0.00861718174424286,,
0.775726825005958,-0.137995600442601,-0.00853800482590517,,
0.969658531257447,-0.134209732808443,-0.00843720460721231,,
1.16359023750894,-0.130251674080083,-0.00834209819916998,,
1.35752194376043,-0.126465762362183,-0.0082164956358417,,
1.55145365001192,-0.122408823801694,-0.0081337337256131,,
1.7453853562634,-0.118546735378525,-0.0080243295263811,,
1.93931706251489,-0.114483625094229,-0.00790936858971802,,
2.13324876876638,-0.110518204381042,-0.00778785713478314,,
2.32718047501787,-0.106466908539462,-0.0076777662514429,,
2.52111218126936,-0.102418434057335,-0.00754332905552424,,
2.71504388752085,-0.0983264048386315,-0.00743553678463149,,
2.90897559377234,-0.0941881758588615,-0.00733955389879259,,
3.10290730002383,-0.0900007494236051,-0.00721340436059847,,
3.29683900627532,-0.0858378335486089,-0.00707774404979888,,
3.49077071252681,-0.0817228807843379,-0.00695904918591994,,
3.6847024187783,-0.0774626280081643,-0.00682239773030346,,
3.87863412502979,-0.0732441666189093,-0.00670134098941366,,
4.07256583128128,-0.0690646752571184,-0.00657052041766759,,
4.26649753753277,-0.064814826243933,-0.00644159778280473,,
4.46042924378426,-0.0605071393619319,-0.00629158696034704,,
4.65436095003575,-0.0562393041822246,-0.00615447024659188,,
4.84829265628724,-0.0519872068982239,-0.00603517568737777,,
5.04222436253872,-0.0476537310274598,-0.00589583680585504,,
5.23615606879021,-0.0433088374676536,-0.00575282594366699,,
5.4300877750417,-0.0389446793128226,-0.0056278046235092,,
5.62401948129319,-0.0346469112726535,-0.00545437536872706,,
5.81795118754468,-0.0303335816717436,-0.00531057501751597,,
6.01188289379617,-0.025934200607474,-0.0051879590687558,,
6.20581460004766,-0.0216296877548591,-0.00504491657428607,,
6.39974630629915,-0.0172627964080567,-0.00491812384637047,,
6.59367801255064,-0.0128563178614095,-0.0047711062285396,,
6.78760971880213,-0.00849573048963812,-0.00460050410890656,,
6.98154142505362,-0.00413091107868507,-0.00441840760902279,,
7.17547313130511,0.000281166103129505,-0.00430019777345825,,
7.3694048375566,0.00466256100087727,-0.00414299587903066,,
7.56333654380809,0.00903674820689382,-0.00400957091611653,,
7.75726825005958,0.0133763296758522,-0.00385867438977927,,
7.95119995631106,0.0177397163652073,-0.0036890304646704,,
8.14513166256256,0.0221283850802985,-0.00353071089630008,,
8.33906336881404,0.0264635581751094,-0.00337522768916143,,
8.53299507506553,0.0308230654952147,-0.00322093596462159,,
8.72692678131702,0.0351813825543002,-0.00305332836762728,,
8.92085848756851,0.0394664985606658,-0.00291784598841094,,
9.11479019382,0.0438106867806084,-0.00275246319520805,,
9.30872190007149,0.0481455072054875,-0.002586308047134,,
9.50265360632298,0.0523976485732297,-0.0024104338806028,,
9.69658531257447,0.0566938957243179,-0.00226408976676273,,
9.89051701882596,0.0610074237020644,-0.0020951114375749,,
10.0844487250774,0.0652984910135293,-0.00192889434295029,,
10.2783804313289,0.0695557681371533,-0.00177370637043772,,
10.4723121375804,0.0737608280689999,-0.0015974288923184,,
10.6662438438319,0.0778838701998316,-0.00144442486523388,,
10.8601755500834,0.0822106233000207,-0.00129229467992253,,
11.0541072563349,0.0863611957274038,-0.00108778275463672,,
11.2480389625864,0.090560987652144,-0.000931876465734227,,
11.4419706688379,0.0945776997985373,-0.000779788456798602,,
11.6359023750894,0.0988229641026093,-0.000624230122991509,,
11.8298340813409,0.102864230893004,-0.000472649548569404,,
12.0237657875923,0.106930118453013,-0.00030053830551191,,
12.2176974938438,0.110912467322927,-0.000123618955682581,,
12.4116292000953,0.114907027389229,2.57684472297903E-05,,
12.6055609063468,0.118881771813737,0.000198471477551365,,
12.7994926125983,0.122946645447692,0.000376917084957906,,
12.9934243188498,0.126844882538871,0.000550928900922454,,
13.1873560251013,0.130636106347618,0.000710545392829776,,
13.3812877313528,0.13450875282687,0.000867030288879356,,
13.5752194376043,0.138414770698419,0.00104489860715073,,
13.7691511438557,0.14217861850371,0.00121820924087768,,
13.9630828501072,0.146062219792718,0.00138643234934754,,
14.1570145563587,0.149661569116694,0.00151082102387701,,
14.3509462626102,0.153355279689298,0.00169237977497749,,
14.5448779688617,0.157066227004818,0.00190014059916432,,
14.7388096751132,0.1606872655296,0.00204253858590064,,
14.9327413813647,0.164191900935016,0.00220051019917555,,
15.1266730876162,0.16781031647718,0.00236539873798192,,
15.3206047938677,0.171325201352489,0.00253737290781997,,
15.5145365001192,0.174733205196591,0.00267779124094547,,
15.7084682063706,0.178248641118669,0.00287616518562928,,
15.9023999126221,0.181576434595157,0.00301931180302484,,
16.0963316188736,0.18489065027927,0.00317965583740421,,
16.2902633251251,0.188153728823273,0.00333614073345379,,
16.4841950313766,0.191431090499513,0.00351493693197913,,
16.6781267376281,0.194731728391252,0.00368325230126976,,
16.8720584438796,0.197829581072205,0.00383351354595529,,
17.0659901501311,0.200855136417138,0.0039553953621847,,
17.2599218563826,0.203926538853206,0.00412885888527192,,
17.453853562634,0.206930052327401,0.00428910538678373,,
17.6477852688855,0.2099635427458,0.00443336967812158,,
17.841716975137,0.212656354010078,0.00457640031048578,,
18.0356486813885,0.215690020763442,0.00473294056302764,,
18.22958038764,0.218427092104161,0.00490567127159602,,
18.4235120938915,0.22146446189181,0.005028478332056,,
18.617443800143,0.224042655428252,0.00519305054804819,,
18.8113755063945,0.22653109446705,0.00535063993792306,,
19.005307212646,0.229343108168276,0.0055172629801592,,
19.1992389188975,0.231769300964111,0.00559762742706083,,
19.3931706251489,0.234243985875569,0.00576252650996079,,
19.5871023314004,0.236822884751875,0.00592228007508755,,
19.7810340376519,0.239089847073501,0.00605021156513352,,
19.9749657439034,0.241784950692335,0.00621171544983046,,
20.1688974501549,0.243824617242915,0.00634593121977955,,
20.3628291564064,0.246056488906326,0.00649305296053715,,
20.5567608626579,0.24845005973347,0.00663666088203652,,
20.7506925689094,0.250167562301348,0.00673790527068041,,
20.9446242751609,0.252189242685405,0.00688544086711929,,
21.1385559814123,0.254217447463201,0.0070303694363667,,
21.3324876876638,0.256007247367099,0.007159207718479,,
21.5264193939153,0.257849947760766,0.00726260310225824,,
21.7203511001668,0.259624935527528,0.00739528734258288,,
21.9142828064183,0.261681882904766,0.00752272853226721,,
22.1082145126698,0.263328851486283,0.00763490714617943,,
22.3021462189213,0.264826817021614,0.00776624174249863,,
22.4960779251728,0.266252661555892,0.00790012010144592,,
22.6900096314243,0.267910386570329,0.00801750486167085,,
22.8839413376757,0.269116870407025,0.00810819724844691,,
23.0778730439272,0.270856238510675,0.00825578556535511,,
23.2718047501787,0.271686070860206,0.00832600923004678,,
23.4657364564302,0.273181567706014,0.00844220514369587,,
23.6596681626817,0.27438981489237,0.00855850386225931,,
23.8535998689332,0.275667361720324,0.00868881831750334,,
24.0475315751847,0.276487319311765,0.00874168640380457,,
24.2414632814362,0.277797135438479,0.00886908805313702,,
24.4353949876877,0.278318557932649,0.00897404923484491,,
24.6293266939392,0.27917977790611,0.0090583360846388,,
24.8232584001906,0.280229852628052,0.00915545773260806,,
25.0171901064421,0.280695905942929,0.00924976410753375,,
25.2111218126936,0.281563473975163,0.00931464191666986,,
25.4050535189451,0.281842083221287,0.00944714954342407,,
25.5989852251966,0.282622718115332,0.00952510993693956,,
25.7929169314481,0.283137792550729,0.00960217935452956,,
25.9868486376996,0.283196335759409,0.00966135280892155,,
26.1807803439511,0.283695540047875,0.00977334162914545,,
26.3747120502026,0.284174289480297,0.00987356324069122,,
26.568643756454,0.284246234146384,0.00991967256286763,,
26.7625754627055,0.284295431601871,0.0100005457622951,,
26.956507168957,0.284495924458101,0.0100881144612837,,
27.1504388752085,0.284402995931071,0.0101342554157418,,
27.34437058146,0.284120683650663,0.010202117203423,,
27.5383022877115,0.28410834020305,0.0102839393712921,,
27.732233993963,0.2840429199307,0.0103318543695314,,
27.9261657002145,0.283574397926301,0.0104196840348418,,
28.120097406466,0.283349394509811,0.0104349202503791,,
28.3140291127175,0.283046098368461,0.0105156774647748,,
28.5079608189689,0.282372675133684,0.0105580647218408,,
28.7018925252204,0.28192672400492,0.0106375566449808,,
28.8958242314719,0.281235138268655,0.0106306291753557,,
29.0897559377234,0.280690086889054,0.010683792496283,,
29.2836876439749,0.279991447754154,0.0107448507074412,,
29.4776193502264,0.279217513588813,0.0107563253175167,,
29.6715510564779,0.278131466533828,0.0108139145218153,,
29.8654827627294,0.27717326232912,0.0108495983712498,,
30.0594144689809,0.276270427303706,0.0108738919633593,,
30.2533461752323,0.275312046764033,0.0108959607516774,,
30.4472778814838,0.274111381981211,0.0109378919766869,,
30.6412095877353,0.272776878959271,0.0109935885161492,,
30.8351412939868,0.27185323640788,0.0109648769487385,,
31.0290730002383,0.270488932776703,0.0109915034216006,,
31.2230047064898,0.268846548904299,0.0110048627884423,,
31.4169364127413,0.267456324033133,0.0110118429785362,,
31.6108681189928,0.265714487239961,0.0110368298448131,,
31.8047998252443,0.264591057172204,0.0110321614472841,,
31.9987315314958,0.262966659466322,0.0110579812969709,,
32.1926632377472,0.261327978628202,0.0110598792338545,,
32.3865949439987,0.259485807239432,0.0110728168369438,,
32.5805266502502,0.257256580600509,0.0110513912383472,,
32.7744583565017,0.255649111051353,0.0110399192642956,,
32.9683900627532,0.253681389166861,0.0110367138597813,,
33.1623217690047,0.251781732579207,0.0110519078989433,,
33.3562534752562,0.24968775485913,0.011050220843936,,
33.5501851815077,0.247812608831737,0.011026583621665,,
33.7441168877592,0.245432615796968,0.0109935357956803,,
33.9380485940106,0.243214498260896,0.0109747883969082,,
34.1319803002621,0.240961466401576,0.0109408443229504,,
34.3259120065136,0.238449045807416,0.0109121037592814,,
34.5198437127651,0.236227754241958,0.0109304926588645,,
34.7137754190166,0.233539527686794,0.0108849632618466,,
34.9077071252681,0.231195683320035,0.0108301735144511,,
35.1016388315196,0.228726817462452,0.0108186725441413,,
35.2955705377711,0.226160438368725,0.0107786867044375,,
35.4895022440226,0.223335375880022,0.0107493873037976,,
35.6834339502741,0.220645385975199,0.0107053551680991,,
35.8773656565255,0.217763190957543,0.0106605954899286,,
36.071297362777,0.215048514157494,0.0106029403850432,,
36.2652290690285,0.212181660281871,0.0105720699144274,,
36.45916077528,0.209196132974198,0.0105338765706695,,
36.6530924815315,0.20637424451488,0.0104757997020326,,
36.847024187783,0.203150312333308,0.0104039627909898,,
37.0409558940345,0.200267940980687,0.0103404451699531,,
37.234887600286,0.197218051410459,0.0102642667282891,,
37.4288193065375,0.193866276378609,0.0102386841207127,,
37.6227510127889,0.190655569319479,0.0101809420270542,,
37.8166827190404,0.187388964076159,0.0100671422587206,,
38.0106144252919,0.184066284313682,0.0100104677545585,,
38.2045461315434,0.180704259811939,0.00995475276293245,,
38.3984778377949,0.177456191781909,0.00986147970919893,,
38.5924095440464,0.17402647669513,0.00978971660681305,,
38.7863412502979,0.170535551333313,0.00969281638481334,,
38.9802729565494,0.166873977808245,0.00962323854586655,,
39.1742046628009,0.163369121984121,0.00955084806989959,,
39.3681363690523,0.159726945305302,0.0094592857953848,,
39.5620680753038,0.156195308608232,0.00936149723348301,,
39.7559997815553,0.152559986951213,0.00927326689260832,,
39.9499314878068,0.148751526399549,0.00917108671563982,,
40.1438631940583,0.145006127640065,0.00907849639197966,,
40.3377949003098,0.141393222565586,0.00900606901168466,,
40.5317266065613,0.137498710550562,0.0088963893480023,,
40.7256583128128,0.133613147535058,0.00880760807822689,,
40.9195900190643,0.129738869957371,0.00867681913876206,,
41.1135217253157,0.125865540180126,0.00858998852633919,,
41.3074534315672,0.121934482743419,0.00848988289982477,,
41.5013851378187,0.117971354384789,0.00834160130875006,,
41.6953168440702,0.113958874277578,0.00821739188381443,,
41.8892485503217,0.11004033662345,0.0081414612283548,,
42.0831802565732,0.105936999925058,0.00800010974292853,,
42.2771119628247,0.10182154019776,0.00790843939145214,,
42.4710436690762,0.0977196582628361,0.00777276853655895,,
42.6649753753277,0.0936279596721933,0.007658396751137,,
42.8589070815792,0.0894477409286681,0.00754679806238379,,
43.0528387878306,0.0852897844745879,0.00740393613552071,,
43.2467704940821,0.0811637226074651,0.00732489497239053,,
43.4407022003336,0.0769249826971315,0.00715336629051544,,
43.6346339065851,0.0727083066994062,0.00706204389413445,,
43.8285656128366,0.06854060773846,0.00690791033100213,,
44.0224973190881,0.0642431482844812,0.00676868611649883,,
44.2164290253396,0.0599894199020459,0.00668203475367068,,
44.4103607315911,0.0557122610110165,0.00650430087259535,,
44.6042924378426,0.0513876239304182,0.00636778121815151,,
44.7982241440941,0.0470547211482933,0.00622300817428778,,
44.9921558503455,0.042718997006714,0.00610593710085361,,
45.186087556597,0.0384259679687534,0.00594654203491585,,
45.3800192628485,0.0341219620791656,0.00578348816843022,,
45.5739509691,0.0298056347838354,0.00564282995717091,,
45.7678826753515,0.0253621699780904,0.00550139411899364,,
45.961814381603,0.0210104213964848,0.00534315626735049,,
46.1557460878545,0.0167233657054942,0.0052120404609779,,
46.349677794106,0.0123408907560803,0.00508474161655981,,
46.5436095003575,0.0079816920221653,0.00491508714735689,,
46.7375412066089,0.00357968797527784,0.00472861484854725,,
46.9314729128604,-0.00083856093034328,0.00460520677474063,,
47.1254046191119,-0.00521043373993238,0.00446542372326642,,
47.3193363253634,-0.00958213021455557,0.00429271146686228,,
47.5132680316149,-0.013942717586327,0.00417740389311572,,
47.7071997378664,-0.0183156484057115,0.00400138869932976,,
47.9011314441179,-0.0226683007040174,0.00385252454707219,,
48.0950631503694,-0.0270590413549579,0.00368259856745423,,
48.2889948566209,-0.0314055219294572,0.0035000592156309,,
48.4829265628724,-0.0357013943687429,0.00336905939429011,,
48.6768582691238,-0.0400436429040606,0.00321220545495748,,
48.8707899753753,-0.0443428657076983,0.00301015952960881,,
49.0647216816268,-0.0487020423997426,0.00289304627979936,,
49.2586533878783,-0.0530270101084019,0.00273754198447262,,
49.4525850941298,-0.0573057780559952,0.00254095789971087,,
49.6465168003813,-0.0615144969383842,0.00236740211580333,,
49.8404485066328,-0.0658580239022046,0.00221781305709712,,
50.0343802128843,-0.0701219797126622,0.00206710632444862,,
50.2283119191358,-0.074297018616564,0.00190135316995121,,
50.4222436253872,-0.0784838278794398,0.00173284800697227,,
50.6161753316387,-0.0827988326625257,0.00155395691160276,,
50.8101070378902,-0.0869351660414123,0.0014053168213386,,
51.0040387441417,-0.0910853857988635,0.00124699725296828,,
51.1979704503932,-0.0952544733976662,0.0010730829698713,,
51.3919021566447,-0.0993807556834964,0.000894402756378199,,
51.5858338628962,-0.103340489594033,0.00072020378274873,,
51.7797655691477,-0.107355592683862,0.000557487327264461,,
51.9736972753992,-0.111465828487795,0.000383633672706996,,
52.1676289816506,-0.115505662556593,0.000187853575097208,,
52.3615606879021,-0.119325254252979,5.55660563015259E-05,,
52.5554923941536,-0.123391185896729,-0.000114361241328353,,
52.7494241004051,-0.127331390709792,-0.000291712899003205,,
52.9433558066566,-0.13118867400514,-0.00042277598490692,,
53.1372875129081,-0.135155064560639,-0.000598692327813399,,
53.3312192191596,-0.138849414347494,-0.000776055847594215,,
53.5251509254111,-0.142664421334768,-0.000940827083356854,,
53.7190826316626,-0.146497767158494,-0.00115251162844832,,
53.913014337914,-0.150191103019295,-0.00129895854720274,,
54.1069460441655,-0.15385018581297,-0.00141945645112118,,
54.300877750417,-0.157604401320749,-0.00163417637721475,,
54.4948094566685,-0.161093541291036,-0.00176747481100348,,
54.68874116292,-0.164720927874591,-0.00193196267424511,,
54.8826728691715,-0.168139357523552,-0.0021027769937656,,
55.076604575423,-0.171772386826015,-0.00225902991975158,,
55.2705362816745,-0.175257118422155,-0.00243259756576508,,
55.464467987926,-0.178624058261073,-0.0025947209159729,,
55.6583996941775,-0.182048835968806,-0.00274024259049632,,
55.8523314004289,-0.185255663658686,-0.00293666719583952,,
56.0462631066804,-0.188648877407523,-0.003058189194868,,
56.2401948129319,-0.191897364233097,-0.00322323457706952,,
56.4341265191834,-0.195100797474883,-0.00339552638773322,,
56.6280582254349,-0.198350298226511,-0.00355057596901487,,
56.8219899316864,-0.201343540188943,-0.00369228858965398,,
57.0159216379379,-0.204504212201498,-0.00386961915914119,,
57.2098533441894,-0.207715977270423,-0.00403378015547551,,
57.4037850504409,-0.210742061620254,-0.00415728312612629,,
57.5977167566924,-0.213389378463329,-0.00430402396149532,,
57.7916484629438,-0.216412156532549,-0.00448861018552726,,
57.9855801691953,-0.219043911814884,-0.00464314442422387,,
58.1795118754468,-0.22193122054655,-0.00478349685676349,,
58.3734435816983,-0.224654537759929,-0.00493158997216181,,
58.5673752879498,-0.227402762287241,-0.00510422710189751,,
58.7613069942013,-0.229598617533867,-0.00526517214962352,,
58.9552387004528,-0.232316644698269,-0.00537976404300355,,
59.1491704067043,-0.2347361367654,-0.00553180064948222,,
59.3431021129558,-0.237357047447331,-0.00563658785364263,,
59.5370338192072,-0.239825869221173,-0.00581109260599222,,
59.7309655254587,-0.242006603744473,-0.0059517929936268,,
59.9248972317102,-0.244247953412302,-0.00607186913379332,,
60.1188289379617,-0.246595324478379,-0.00622599215283248,,
60.3127606442132,-0.248848268170216,-0.0063518042800248,,
60.5066923504647,-0.250817356650694,-0.0064864299516203,,
60.7006240567162,-0.252640704281854,-0.00660589585235849,,
60.8945557629677,-0.255004959420916,-0.00676498513957569,,
61.0884874692192,-0.256785413571621,-0.00686362645506389,,
61.2824191754707,-0.258633051344334,-0.00699131411294029,,
61.4763508817221,-0.260443879192915,-0.00714560583748014,,
61.6702825879736,-0.262141455909646,-0.00726564111928329,,
61.8642142942251,-0.264007388435071,-0.00741115883977184,,
62.0581460004766,-0.265570068902888,-0.00750158367016773,,
62.2520777067281,-0.266860664518319,-0.00762108120318716,,
62.4460094129796,-0.268488192169846,-0.00774434165968074,,
62.6399411192311,-0.270120877619125,-0.00787995847609313,,
62.8338728254826,-0.271290683782914,-0.00796393295710862,,
63.0278045317341,-0.272714632716308,-0.00809588042887954,,
63.2217362379855,-0.27373543583391,-0.00818774057404381,,
63.415667944237,-0.275222468601355,-0.00830404324664302,,
63.6095996504885,-0.276126890641463,-0.0084276832905128,,
63.80353135674,-0.277354182004135,-0.00851093813712689,,
63.9974630629915,-0.27815632976402,-0.00859878230056577,,
64.191394769243,-0.278961607469549,-0.00871253198445388,,
64.3853264754945,-0.279845795072319,-0.00881013866073799,,
64.579258181746,-0.280391022786886,-0.00888505444716969,,
64.7731898879975,-0.281570527373799,-0.00897963496853382,,
64.967121594249,-0.282198279852408,-0.00907826442191606,,
65.1610533005004,-0.28278670963362,-0.00916563278312266,,
65.3549850067519,-0.283037502038873,-0.00923320988027143,,
65.5489167130034,-0.283668428546868,-0.00934224635423186,,
65.7428484192549,-0.284061611437086,-0.00944878387796244,,
65.9367801255064,-0.284413972782698,-0.00950848453704412,,
66.1307118317579,-0.284569632473847,-0.00958919957506454,,
66.3246435380094,-0.284871914689144,-0.00965635490846095,,
66.5185752442609,-0.284903434564298,-0.00974592698527132,,
66.7125069505123,-0.284936100616732,-0.00981269218719749,,
