Time domain (s),Current (AC) (A),Potential (AC) (V),Frequency (Hz),Column 5
0,-0.0091912837626355,-0.000736431252422065,6309.6,0.3
4.95277038164067E-06,-0.0441082079518253,-0.00125914615801559,,
9.90554076328135E-06,-0.0779702522912525,-0.00169401456259433,,
1.4858311144922E-05,-0.108970997306483,-0.00205569571719222,,
1.98110815265627E-05,-0.135713473313907,-0.00235588432108003,,
2.47638519082034E-05,-0.157139626434375,-0.00256963959833234,,
2.9716622289844E-05,-0.172305403344193,-0.00266793697158141,,
3.46693926714847E-05,-0.180856547096865,-0.00265971875914461,,
3.96221630531254E-05,-0.182252062017008,-0.00259668456365691,,
4.45749334347661E-05,-0.176588535582192,-0.00235321758705842,,
4.95277038164067E-05,-0.164206823281506,-0.00205735415324071,,
5.44804741980474E-05,-0.145284097671938,-0.00170410338188898,,
5.94332445796881E-05,-0.120768864535071,-0.00126672980454678,,
6.43860149613288E-05,-0.0917257021437923,-0.000727564848431062,,
6.93387853429694E-05,-0.0591114481068237,-0.000233679868087311,,
7.42915557246101E-05,-0.0245597577157569,0.000268370768621296,,
7.92443261062508E-05,0.00990162713089785,0.000760124308268662,,
8.41970964878915E-05,0.04449530728572,0.00122850986110778,,
8.91498668695321E-05,0.078087581169189,0.00169702583086595,,
9.41026372511728E-05,0.108852367958173,0.00206531542488175,,
9.90554076328135E-05,0.135338585176401,0.00235664735738439,,
0.000104008178014454,0.156648048633184,0.00256774368670021,,
0.000108960948396095,0.171945768181237,0.00265734205677992,,
0.000113913718777736,0.180272679982895,0.00268984117446047,,
0.000118866489159376,0.181686070860206,0.00257408545271609,,
0.000123819259541017,0.176207519804621,0.00237630332829619,,
0.000128772029922658,0.163908883314745,0.00206653784018496,,
0.000133724800304298,0.145197362910585,0.00168137580054983,,
0.000138677570685939,0.121014278723864,0.00125727555115862,,
0.00014363034106758,0.0919409630534163,0.000746813996415518,,
0.00014858311144922,0.0595781847196935,0.000261049902449795,,
0.000153535881830861,0.0251987735903122,-0.000268629655938213,,
0.000158488652212502,-0.00919719098399319,-0.000726572122627278,,
0.000163441422594142,-0.0441321454234464,-0.00124317105866201,,
0.000168394192975783,-0.0779836978324024,-0.00169914169939211,,
0.000173346963357424,-0.108928632830926,-0.00205868752025129,,
0.000178299733739064,-0.135656384868697,-0.00236789435678242,,
0.000183252504120705,-0.157036470479323,-0.00257149463302042,,
0.000188205274502346,-0.17230593234909,-0.00267703306507228,,
0.000193158044883986,-0.180757050092355,-0.00269227821898221,,
0.000198110815265627,-0.182311971821672,-0.0025607089591424,,
0.000203063585647268,-0.176692308709625,-0.00235845567556359,,
0.000208016356028908,-0.164136245211404,-0.00206902160121514,,
0.000212969126410549,-0.145199148302115,-0.00166790003439576,,
0.00021792189679219,-0.120783015416084,-0.00127250513289834,,
0.00022287466717383,-0.0917933266032155,-0.00076140706572847,,
0.000227827437555471,-0.0591783672263832,-0.000240547194823026,,
0.000232780207937112,-0.0245892497388038,0.000266336653984567,,
0.000237732978318752,0.00989389043426894,0.000729419883119142,,
0.000242685748700393,0.0445148363831935,0.00122856047065856,,
0.000247638519082034,0.078124633553899,0.00168028574868684,,
0.000252591289463674,0.108845534978245,0.00207358035382743,,
0.000257544059845315,0.135400302414467,0.00234654491244157,,
0.000262496830226956,0.156789028438422,0.00255822130506989,,
0.000267449600608596,0.171727245074744,0.00267454541100021,,
0.000272402370990237,0.180376585361553,0.00267397702681471,,
0.000277355141371878,0.181762908821597,0.00256671592351498,,
0.000282307911753518,0.176254513073034,0.00234947637334404,,
0.000287260682135159,0.16385675429045,0.00204275913740659,,
0.0002922134525168,0.145187399985012,0.00168583333406014,,
0.00029716622289844,0.120870565726654,0.00126813324632025,,
0.000302118993280081,0.0919422414819191,0.000751435037705583,,
0.000307071763661722,0.0595583029522882,0.00025956859982923,,
0.000312024534043362,0.0251919626522542,-0.000250813147545159,,
0.000316977304425003,-0.00920367129399006,-0.000741410453609426,,
0.000321930074806644,-0.0440508990879074,-0.00122634532955113,,
0.000326882845188285,-0.0779531037158186,-0.00168303229007671,,
0.000331835615569925,-0.108933614293712,-0.00207074621898373,,
0.000336788385951566,-0.135664496277128,-0.002378160309505,,
0.000341741156333206,-0.156939177661887,-0.00256731350551798,,
0.000346693926714847,-0.172224906432259,-0.00267254244070214,,
0.000351646697096488,-0.180745411984606,-0.00267284999104911,,
0.000356599467478129,-0.182233282343139,-0.00258190852135254,,
0.000361552237859769,-0.176703550063701,-0.00235246817640267,,
0.00036650500824141,-0.164149734836295,-0.00206708286611601,,
0.000371457778623051,-0.145210036986259,-0.00168866357586062,,
0.000376410549004691,-0.120783015416084,-0.00125293091587642,,
0.000381363319386332,-0.0916700684620505,-0.000771690537141101,,
0.000386316089767973,-0.0591320792978342,-0.000253742661926459,,
0.000391268860149613,-0.0245678691241883,0.000268501185540782,,
0.000396221630531254,0.00995558563046363,0.000746862659445124,,
0.000401174400912895,0.0444988119431672,0.00124461927042274,,
0.000406127171294535,0.0780942378141518,0.001703908729771,,
0.000411079941676176,0.108859729943,0.00206368813317237,,
0.000416032712057817,0.135344668732725,0.00235612958274967,,
0.000420985482439457,0.156689311015204,0.00256738163376014,,
0.000425938252821098,0.171805207171543,0.00268370573969001,,
0.000430891023202739,0.180287800706222,0.00269396001328515,,
0.000435843793584379,0.182015883372054,0.00254839526613537,,
0.00044079656396602,0.176282329913904,0.00235007590186864,,
0.000445749334347661,0.164016866439488,0.00207588892795085,,
0.000450702104729301,0.145131391591467,0.00167678979664121,,
0.000455654875110942,0.120873320960497,0.00126180315943136,,
0.000460607645492583,0.0919643715201397,0.000777763683234234,,
0.000465560415874223,0.0595221763261492,0.000260903913360977,,
0.000470513186255864,0.0252194047813226,-0.000253236566418735,,
0.000475465956637505,-0.00923497075043753,-0.000747756112668085,,
0.000480418727019145,-0.0440512517578392,-0.00122157635265152,,
0.000485371497400786,-0.078040609942647,-0.00168399192502022,,
0.000490324267782427,-0.108998461477423,-0.00207910847398818,,
0.000495277038164067,-0.135688081078817,-0.00235816369738595,,
0.000500229808545708,-0.1569515211095,-0.00258085156034982,,
0.000505182578927349,-0.172254751125238,-0.00264624493951171,,
0.000510135349308989,-0.180831639782932,-0.0026830692272628,,
0.00051508811969063,-0.18236597440498,-0.00256443265416628,,
0.000520040890072271,-0.176641391988221,-0.0023618231572109,,
0.000524993660453911,-0.164086695085985,-0.00204467840729317,,
0.000529946430835552,-0.145299218395264,-0.0016847082448157,,
0.000534899201217193,-0.120858398614007,-0.00125133671502686,,
0.000539851971598833,-0.0916627064772241,-0.000754623439403801,,
0.000544804741980474,-0.0591265688301498,-0.000242517074260817,,
0.000549757512362115,-0.0245802566555429,0.000265264120812514,,
0.000554710282743756,0.00990290555940064,0.000737848319844137,,
0.000559663053125396,0.0444816633677333,0.00123495284622521,,
0.000564615823507037,0.0780953178658179,0.00170127703313083,,
0.000569568593888678,0.108816439708871,0.00206378545923158,,
0.000574521364270318,0.135471409489466,0.00236958783021279,,
0.000579474134651959,0.156454785510556,0.00257950067464874,,
0.0005844269050336,0.171942439858756,0.00262797294516215,,
0.00058937967541524,0.180367944948224,0.00268261568782746,,
0.000594332445796881,0.181794031943079,0.00258056347521496,,
0.000599285216178522,0.176114481068237,0.00235979293561694,,
0.000604237986560162,0.163781922139296,0.00206419033563776,,
0.000609190756941803,0.145123280183036,0.00168726597365154,,
0.000614143527323444,0.120864305835365,0.00125949069226516,,
0.000619096297705084,0.0918377630146226,0.000767964895596052,,
0.000624049068086725,0.0595339687269938,0.000271315855171927,,
0.000629001838468366,0.0252260614262854,-0.000246256341454476,,
0.000633954608850006,-0.0091912837626355,-0.000738206479741432,,
0.000638907379231647,-0.044004302573168,-0.00123911840155788,,
0.000643860149613288,-0.0780328952878889,-0.00168861296630984,,
0.000648812919994928,-0.108870927213334,-0.00206485604588202,,
0.000653765690376569,-0.13570042452643,-0.00236008296727297,,
0.00065871846075821,-0.156901177476735,-0.0025736435924073,,
0.00066367123113985,-0.172211416807367,-0.00267324124180668,,
0.000668624001521491,-0.180777108194727,-0.002681685250701,,
0.000673576771903132,-0.182127657698564,-0.00254479420194542,,
0.000678529542284772,-0.176619879122381,-0.00238365728532708,,
0.000683482312666413,-0.164038026635397,-0.0020579225374262,,
0.000688435083048054,-0.145244510472093,-0.00170314374694547,,
0.000693387853429694,-0.120848832442107,-0.00124443824395248,,
0.000698340623811335,-0.0917170617304632,-0.000791607341891432,,
0.000703293394192976,-0.0591392649476946,-0.000234511032632945,,
0.000708246164574616,-0.0245479873567829,0.000294356826421982,,
0.000713198934956257,0.00993017135350311,0.000770505105740948,,
0.000718151705337898,0.0445199941809461,0.00124871864403531,,
0.000723104475719538,0.0780746866748075,0.00168477831957858,,
0.000728057246101179,0.108854197433445,0.00205462513054178,,
0.00073301001648282,0.135392742052803,0.00236844716879903,,
0.00073796278686446,0.156712366811996,0.00255859893017973,,
0.000742915557246101,0.171945217134469,0.00265991535778465,,
0.000747868327627742,0.180223306192443,0.00265268987115119,,
0.000752821098009382,0.181783716347574,0.00255601005700568,,
0.000757773868391023,0.176347904479349,0.00235432321109119,,
0.000762726638772664,0.163783949991404,0.00206645219325319,,
0.000767679409154304,0.145094537583594,0.00168751123532029,,
0.000772632179535945,0.120912004443641,0.00126438813956309,,
0.000777584949917586,0.0918902887925904,0.000751598545484899,,
0.000782537720299226,0.0595243805132229,0.00025045693416903,,
0.000787490490680867,0.0252459431936907,-0.000255451707525722,,
0.000792443261062508,-0.00921138594874824,-0.000737260470446088,,
0.000797396031444149,-0.0440562773043674,-0.00124614728955175,,
0.000802348801825789,-0.077957688424932,-0.00168140499836733,,
0.00080730157220743,-0.10899718304892,-0.00204232117014014,,
0.00081225434258907,-0.13570099761507,-0.00236431275780502,,
0.000817207112970711,-0.157001467988591,-0.00255603730830156,,
0.000822159883352352,-0.172370999951508,-0.00266276311827562,,
0.000827112653733993,-0.18073029126128,-0.00264884743833438,,
0.000832065424115633,-0.182237117628647,-0.00255291314180228,,
0.000837018194497274,-0.176545201264322,-0.00236047227150982,,
0.000841970964878915,-0.164073249544835,-0.00205328592396681,,
0.000846923735260555,-0.145322450527021,-0.00167429630300475,,
0.000851876505642196,-0.120831463447966,-0.00126428886698227,,
0.000856829276023837,-0.0916778272005502,-0.000768175119883807,,
0.000861782046405477,-0.0591213669486557,-0.000273071617279186,,
0.000866734816787118,-0.0245824167588752,0.000258023062009283,,
0.000871687587168759,0.00991820261769257,0.000734449693857719,,
0.000876640357550399,0.0445212726094489,0.00125771935798813,,
0.00088159312793204,0.0781609365150039,0.0016769026948702,,
0.000886545898313681,0.108817718137374,0.00204692469273926,,
0.000891498668695321,0.135427568208569,0.00234905592476853,,
0.000896451439076962,0.156615625041329,0.00254604776158818,,
0.000901404209458603,0.171888305024224,0.00266406144790565,,
0.000906356979840243,0.180427810669147,0.00265596002673929,,
0.000911309750221884,0.181717943405293,0.00255236616935006,,
0.000916262520603525,0.176222993197879,0.00235943088267687,,
0.000921215290985165,0.163727037881159,0.00205802375652819,,
0.000926168061366806,0.145244532513964,0.0016927785216434,,
0.000931120831748447,0.120916258524694,0.00125459324496768,,
0.000936073602130087,0.0919533065010294,0.00078584953223082,,
0.000941026372511728,0.0595781847196935,0.000260888341191645,,
0.000945979142893369,0.0252203305398936,-0.000245833946357354,,
0.000950931913275009,-0.00918762481209305,-0.000741753041337834,,
0.00095588468365665,-0.0440741312196649,-0.00126699063838531,,
0.000960837454038291,-0.0779053610238008,-0.00169133030988222,,
0.000965790224419931,-0.108968440449478,-0.00208294896028338,,
0.000970742994801572,-0.135600927521921,-0.00236013163030258,,
0.000975695765183213,-0.156975502664862,-0.00255753612961307,,
0.000980648535564854,-0.172267270907817,-0.00267476926093613,,
0.000985601305946494,-0.180841602708505,-0.00266460063427276,,
0.000990554076328135,-0.182130126388087,-0.00257006199342946,,
0.000995506846709775,-0.176715144087709,-0.00235635732572748,,
0.00100045961709142,-0.164103446907746,-0.00205070094383508,,
0.00100541238747306,-0.145255884077393,-0.00168324446088564,,
0.0010103651578547,-0.120803646607095,-0.00124388543193632,,
0.00101531792823634,-0.0917439528127631,-0.000752034566229742,,
0.00102027069861798,-0.0590963273834977,-0.000251936290267984,,
0.00102522346899962,-0.0246231501359983,0.000265133703893028,,
0.00103017623938126,0.00990180346586375,0.000742210473816396,,
0.0010351290097629,0.0444947562389515,0.0012533241131556,,
0.00104008178014454,0.0781062065499623,0.00166568683981039,,
0.00104503455052618,0.108892528246657,0.00205506115128662,,
0.00104998732090782,0.13539144158243,0.00234360177241211,,
0.00105494009128946,0.156668327154262,0.00258282143978805,,
0.0010598928616711,0.171859915094714,0.0026522655295329,,
0.00106484563205274,0.180112016787089,0.0026718903561056,,
0.00106979840243439,0.181958199796333,0.00255486939559191,,
0.00107475117281603,0.17630849361447,0.00236768023945277,,
0.00107970394319767,0.163972848823625,0.0020729769322605,,
0.00108465671357931,0.145131391591467,0.00169351041360821,,
0.00108960948396095,0.120775653431258,0.00123868238081304,,
0.00109456225434259,0.0919416904351506,0.000738467313580404,,
0.00109951502472423,0.0595137122477859,0.000253481828088375,,
0.00110446779510587,0.025242813248046,-0.000254653633840363,,
0.00110942056548751,-0.0092193210222138,-0.000713326045973073,,
0.00111437333586915,-0.0440813168695254,-0.00123784732322507,,
0.00111932610625079,-0.0779988185557284,-0.00168869472019972,,
0.00112427887663243,-0.108931939111536,-0.00208296453245271,,
0.00112923164701407,-0.135648802465163,-0.00237114699368046,,
0.00113418441739571,-0.157108900066566,-0.00255820183985778,,
0.00113913718777736,-0.172217500363691,-0.0026698893323287,,
0.001144089958159,-0.180776755524795,-0.0026625022844371,,
0.00114904272854064,-0.18227454472516,-0.00259059779191606,,
0.00115399549892228,-0.176641744658153,-0.00234418378224577,,
0.00115894826930392,-0.164149558501329,-0.00207207958599431,,
0.00116390103968556,-0.145292385415335,-0.0016967494248572,,
0.0011688538100672,-0.120795535198663,-0.00124157491129129,,
0.00117380658044884,-0.0916759756834082,-0.000780459615073337,,
0.00117875935083048,-0.0591326523864733,-0.000241279086787838,,
0.00118371212121212,-0.0245366137514823,0.000263019781887586,,
0.00118866489159376,0.0099314497820059,0.000730967367460256,,
0.0011936176619754,0.0445330650102936,0.00123440392725138,,
0.00119857043235704,0.0781530014415383,0.00165133708564502,,
0.00120352320273868,0.108830237919953,0.00206840260747887,,
0.00120847597312032,0.13529582394717,0.00236516144104115,,
0.00121342874350197,0.156706106920707,0.00257016515905262,,
0.00121838151388361,0.171870958071953,0.00267433518671245,,
0.00122333428426525,0.180298468971659,0.00266678268451992,,
0.00122828705464689,0.181877328172597,0.00254718452995917,,
0.00123323982502853,0.176416102027411,0.00236185624807161,,
0.00123819259541017,0.163847893458414,0.00207720866931327,,
0.00124314536579181,0.145101723233454,0.00169806916622006,,
0.00124809813617345,0.12086355641176,0.00123938312843919,,
0.00125305090655509,0.0919135209243479,0.000767299185351344,,
0.00125800367693673,0.0596596294320692,0.000253791324956509,,
0.00126295644731837,0.0252271414779515,-0.000260024085785737,,
0.00126790921770001,-0.00920071768331122,-0.000739294585083261,,
0.00127286198808165,-0.0440437134380469,-0.00121778452938592,,
0.00127781475846329,-0.0779523542922135,-0.00167977770665795,,
0.00128276752884493,-0.108865769415582,-0.00207507333557455,,
0.00128772029922658,-0.135775278719455,-0.00237035086651627,,
0.00129267306960822,-0.157193805352648,-0.00255745242920202,,
0.00129762583998986,-0.17224496453463,-0.00265950853485686,,
0.0013025786103715,-0.180777681283366,-0.00266889660652492,,
0.00130753138075314,-0.182468954025066,-0.00259523635189662,,
0.00131248415113478,-0.176611723630208,-0.00236953527414041,,
0.00131743692151642,-0.164236271220811,-0.00205631276440732,,
0.00132238969189806,-0.145204350183609,-0.00168374860987219,,
0.0013273424622797,-0.12082890659096,-0.0012454640606161,,
0.00133229523266134,-0.0917391917686838,-0.000763929757182424,,
0.00133724800304298,-0.0591422185583735,-0.000238479989326024,,
0.00134220077342462,-0.0245876186403692,0.000266093338836537,,
0.00134715354380626,0.00988209803342429,0.000744227069762626,,
0.0013521063141879,0.0445177679520016,0.0012157212169317,,
0.00135705908456954,0.0780798444725601,0.00168316660003853,,
0.00136201185495119,0.108860457324734,0.0020548197826602,,
0.00136696462533283,0.135291966619791,0.00239036499732626,,
0.00137191739571447,0.156731344862701,0.00257699744840689,,
0.00137687016609611,0.171914071971116,0.00266818028672988,,
0.00138182293647775,0.180300320488801,0.00269220035813511,,
0.00138677570685939,0.181797382307431,0.00255200411640955,,
0.00139172847724103,0.176215807548018,0.00235684590254515,,
0.00139668124762267,0.163975956727399,0.00206132894949773,,
0.00140163401800431,0.145103751085562,0.00170348828119504,,
0.00140658678838595,0.120845305742789,0.00126248444184585,,
0.00141153955876759,0.0919358052556637,0.000762238230274104,,
0.00141649232914923,0.059483118131202,0.000225105442273943,,
0.00142144509953087,0.0251996993488831,-0.000249707523512832,,
0.00142639786991251,-0.00918890324059584,-0.000724927312226953,,
0.00143135064029415,-0.0440918087999965,-0.0012472860044439,,
0.0014363034106758,-0.0779795980444452,-0.00169150938983131,,
0.00144125618105744,-0.108918625821611,-0.00206277326821569,,
0.00144620895143908,-0.135630772214899,-0.00238269959690474,,
0.00145116172182072,-0.157002173328455,-0.00256497184053428,,
0.00145611449220236,-0.172156532549231,-0.00267644521567512,,
0.001461067262584,-0.180799987656552,-0.00267258915721014,,
0.00146602003296564,-0.182185760069829,-0.00255973180550795,,
0.00147097280334728,-0.176626844353534,-0.00235748046845075,,
0.00147592557372892,-0.163935576020208,-0.00207608163354767,,
0.00148087834411056,-0.145328710418311,-0.00168903730792813,,
0.0014858311144922,-0.120782618662411,-0.00123091770781114,,
0.00149078388487384,-0.0916365648185293,-0.000757681424182977,,
0.00149573665525548,-0.0591731653448892,-0.00026137497148726,,
0.00150068942563712,-0.0246633545082238,0.000267346898478849,,
0.00150564219601877,0.00992871659003443,0.000750183424584439,,
0.00151059496640041,0.0444982388545281,0.00124880039792519,,
0.00151554773678205,0.0780343500513576,0.00168858182197162,,
0.00152050050716369,0.108838724040187,0.00206515191710244,,
0.00152545327754533,0.135409692251401,0.00234344215767512,,
0.00153040604792697,0.156697422423636,0.00256337958620634,,
0.00153535881830861,0.171857887242606,0.00267389527292483,,
0.00154031158869025,0.180258132348209,0.00266126624348573,,
0.00154526435907189,0.181844904580742,0.00257194038637198,,
0.00155021712945353,0.176299103777536,0.00235281271065269,,
0.00155516989983517,0.163836652104337,0.00205909823622141,,
0.00156012267021681,0.145241027856516,0.00165808762110942,,
0.00156507544059845,0.120736044189542,0.00126245329750674,,
0.00157002821098009,0.0918893850758902,0.000770277362762251,,
0.00157498098136173,0.0595472379331779,0.000254297420464233,,
0.00157993375174338,0.0252426369130801,-0.00025816710457649,,
0.00158488652212502,-0.00917973382236897,-0.000744779881778346,,
