Time domain (s),Current (AC) (A),Potential (AC) (V),Frequency (Hz),Column 5
0,-0.123642770871566,-0.00249776344270769,3.1623,0.4
0.000772034990355121,-0.129086692238724,-0.00261586972401995,,
0.00154406998071024,-0.134441757704344,-0.00276056492850341,,
0.00231610497106536,-0.139703027398986,-0.00289982441361269,,
0.00308813996142048,-0.145015795232532,-0.00301614451968302,,
0.00386017495177561,-0.150314793180016,-0.00313411356784377,,
0.00463220994213073,-0.155590079754192,-0.00327345453513672,,
0.00540424493248585,-0.160769038874303,-0.00342504784976905,,
0.00617627992284097,-0.16586080929881,-0.00353478290881837,,
0.00694831491319609,-0.170985676848561,-0.00370337383586827,,
0.00772034990355121,-0.176166611916447,-0.00381398375626052,,
0.00849238489390633,-0.181302594172436,-0.00392708102753048,,
0.00926441988426145,-0.186175096142209,-0.00405901569315947,,
0.0100364548746166,-0.19112478357197,-0.00418579982705847,,
0.0108084898649717,-0.195947084118567,-0.00430064682101428,,
0.0115805248553268,-0.201019836045733,-0.00443832383634168,,
0.0123525598456819,-0.205781870185171,-0.00454784018005538,,
0.0131245948360371,-0.210547362233216,-0.00469541513645977,,
0.0138966298263922,-0.21512143434049,-0.00480077588879357,,
0.0146686648167473,-0.219984488809961,-0.00492234516292234,,
0.0154406998071024,-0.224613887454955,-0.00504340195699937,,
0.0162127347974575,-0.229316890154593,-0.00517497638560505,,
0.0169847697878127,-0.233470579372587,-0.00527033627199813,,
0.0177568047781678,-0.237991362638285,-0.00539283401416979,,
0.0185288397685229,-0.242490780968659,-0.00549280836529364,,
0.019300874758878,-0.246777846661513,-0.00561010840183895,,
0.0200729097492332,-0.251103258090889,-0.00570292947492224,,
0.0208449447395883,-0.255386063146351,-0.00582077844407491,,
0.0216169797299434,-0.259383158503121,-0.00592754583621558,,
0.0223890147202985,-0.263614650664783,-0.00603120618402775,,
0.0231610497106536,-0.267795076926117,-0.00615301776043964,,
0.0239330847010088,-0.27158463601807,-0.00625074706297024,,
0.0247051196913639,-0.275524181895873,-0.00634686173169818,,
0.025477154681719,-0.279276753715399,-0.00646030208584758,,
0.0262491896720741,-0.283297869187317,-0.00653833628681921,,
0.0270212246624292,-0.286886622586565,-0.00667024950976858,,
0.0277932596527844,-0.29079751722162,-0.00674084095652017,,
0.0285652946431395,-0.294129459158394,-0.00684639040443846,,
0.0293373296334946,-0.297706171625884,-0.00694528404449146,,
0.0301093646238497,-0.301136663957972,-0.00704961554818651,,
0.0308813996142048,-0.304529613282321,-0.00713032579561945,,
0.03165343460456,-0.307772884562661,-0.00718787794867692,,
0.0324254695949151,-0.311181641469216,-0.00727652842050519,,
0.0331975045852702,-0.314425159743028,-0.00737225283245779,,
0.0339695395756253,-0.31731035223739,-0.00746333919273123,,
0.0347415745659805,-0.320381716061245,-0.00755458208456883,,
0.0355136095563356,-0.323162800807175,-0.00761834403774753,,
0.0362856445466907,-0.325934314556066,-0.00769225909989579,,
0.0370576795370458,-0.32895745290452,-0.00777228532583729,,
0.0378297145274009,-0.331549402399295,-0.00785567161973111,,
0.0386017495177561,-0.334287695526207,-0.00790433792620648,,
0.0393737845081112,-0.336581709145427,-0.00798679789632528,,
0.0401458194984663,-0.339307776095478,-0.00809227872766716,,
0.0409178544888214,-0.341910840296491,-0.00812490590951986,,
0.0416898894791765,-0.343996206180271,-0.0082034547348111,,
0.0424619244695317,-0.346110717293742,-0.00825315028992524,,
0.0432339594598868,-0.348625851818736,-0.00831658631436882,,
0.0440059944502419,-0.350377344276791,-0.00838406857252405,,
0.044778029440597,-0.352375274471496,-0.00842805179769224,,
0.0455500644309522,-0.354181228990118,-0.00850037581298624,,
0.0463220994213073,-0.355832380350187,-0.00853797769659348,,
0.0470941344116624,-0.357675939624916,-0.00859029783573684,,
0.0478661694020175,-0.359477757002882,-0.00864266943731229,,
0.0486382043923726,-0.361073273083392,-0.00866742286707733,,
0.0494102393827278,-0.362410001753654,-0.00873319185510235,,
0.0501822743730829,-0.363760623806713,-0.00878208116544954,,
0.050954309363438,-0.365111739846716,-0.00880664375536311,,
0.0517263443537931,-0.366484714808988,-0.00886390643224111,,
0.0524983793441482,-0.367253605487207,-0.0089171872034477,,
0.0532704143345034,-0.368832881746935,-0.00892265937537751,,
0.0540424493248585,-0.369657592949818,-0.00896272931145026,,
0.0548144843152136,-0.370357078462416,-0.00895950433238157,,
0.0555865193055687,-0.371023219856299,-0.0090225672541937,,
0.0563585542959238,-0.37193067387229,-0.00905294509891696,,
0.057130589286279,-0.372504192714187,-0.00909600414457801,,
0.0579026242766341,-0.373066843843317,-0.00906677133896583,,
0.0586746592669892,-0.373558360852523,-0.00909819987500793,,
0.0594466942573443,-0.373741630008719,-0.00911919654724125,,
0.0602187292476995,-0.373832029619457,-0.00916820379232819,,
0.0609907642380546,-0.374261304273728,-0.00915091241519495,,
0.0617627992284097,-0.37429934126841,-0.00916448134308423,,
0.0625348342187648,-0.374615739905994,-0.00918456884568641,,
0.0633068692091199,-0.374370722381807,-0.00921009421193109,,
0.0640789041994751,-0.374107921327639,-0.00922656219015305,,
0.0648509391898302,-0.373717671641939,-0.00917590600297569,,
0.0656229741801853,-0.373432394181822,-0.00919553034369081,,
0.0663950091705404,-0.372803240060365,-0.00918407351977901,,
0.0671670441608955,-0.372339201074916,-0.00917750348263402,,
0.0679390791512507,-0.371920794133411,-0.00918664449710827,,
0.0687111141416058,-0.371348510258874,-0.00919091587895959,,
0.0694831491319609,-0.370415862908743,-0.00917619762342348,,
0.070255184122316,-0.369326374703917,-0.00914279850509159,,
0.0710272191126712,-0.368584653307613,-0.00915897486286621,,
0.0717992541030263,-0.367429217845772,-0.00910584847895546,,
0.0725712890933814,-0.366339235654002,-0.00909682539922141,,
0.0733433240837365,-0.364990960038926,-0.0090789336270487,,
0.0741153590740916,-0.363662320404872,-0.00903817538094875,,
0.0748873940644468,-0.362243281160079,-0.00900865095488879,,
0.0756594290548019,-0.360576322217804,-0.00900544312996399,,
0.076431464045157,-0.359200383333869,-0.00898568155609736,,
0.0772034990355121,-0.357435367983224,-0.0089248379516631,,
0.0779755340258672,-0.356292282194982,-0.00892521319856288,,
0.0787475690162224,-0.354479103117305,-0.00886903552129148,,
0.0795196040065775,-0.352183854530725,-0.00883867268644423,,
0.0802916389969326,-0.350116951408974,-0.00879341791035326,,
0.0810636739872877,-0.348522855540928,-0.00875926615395439,,
0.0818357089776428,-0.34605730495543,-0.00866701331188979,,
0.082607743967998,-0.343589160938476,-0.00865078334741565,,
0.0833797789583531,-0.341311387140038,-0.00859508384190777,,
0.0841518139487082,-0.33921614151738,-0.0085710165779016,,
0.0849238489390633,-0.336687916338371,-0.00851586600500154,,
0.0856958839294184,-0.334089545013325,-0.0084061288016839,,
0.0864679189197736,-0.331115187875584,-0.00839300588153824,,
0.0872399539101287,-0.328427713655528,-0.00833084140801743,,
0.0880119889004838,-0.326031876977492,-0.00827850197046187,,
0.0887840238908389,-0.323223808194749,-0.0081814459680829,,
0.0895560588811941,-0.31994916874347,-0.0081529186266418,,
0.0903280938715492,-0.316733313738518,-0.00808980853093422,,
0.0911001288619043,-0.313771615016215,-0.00802971756456694,,
0.0918721638522594,-0.310979353815679,-0.00794943617073374,,
0.0926441988426145,-0.307560470176773,-0.00785337296443744,,
0.0934162338329697,-0.304563698381452,-0.00781151685312276,,
0.0941882688233248,-0.30098920885521,-0.00773524738471343,,
0.0949603038136799,-0.297466032222768,-0.00764589359298196,,
0.095732338804035,-0.294059560005829,-0.00756501180410929,,
0.0965043737943901,-0.290389484005938,-0.00748720060700947,,
0.0972764087847453,-0.286760655915864,-0.00741565067246297,,
0.0980484437751004,-0.283047788296955,-0.00729829702921769,,
0.0988204787654555,-0.279211547438801,-0.00723163816997374,,
0.0995925137558106,-0.275414763787793,-0.00712517955242475,,
0.100364548746166,-0.271275894178117,-0.00706989174637274,,
0.101136583736521,-0.267498376017922,-0.00696471968962253,,
0.101908618726876,-0.263338511963129,-0.00685270312942343,,
0.102680653717231,-0.259114182612154,-0.00680417405610001,,
0.103452688707586,-0.255019524833959,-0.00669325321684777,,
0.104224723697941,-0.250875221367899,-0.00656291817514454,,
0.104996758688296,-0.246594083518373,-0.00648817756981757,,
0.105768793678652,-0.242148695009991,-0.00640328385552147,,
0.106540828669007,-0.237680336108717,-0.00628050950277803,,
0.107312863659362,-0.233345353682302,-0.00618665918105554,,
0.108084898649717,-0.228767020937637,-0.00610238087167447,,
0.108856933640072,-0.224182389859436,-0.00595595309864905,,
0.109628968630427,-0.219530576556862,-0.00586634199475755,,
0.110401003620782,-0.214987502130319,-0.00577312423209442,,
0.111173038611137,-0.21015390163238,-0.00563879013057589,,
0.111945073601493,-0.205516352202811,-0.00553366953625734,,
0.112717108591848,-0.200718504009939,-0.00546115896964761,,
0.113489143582203,-0.195795430126782,-0.00529932677532674,,
0.114261178572558,-0.190813571797297,-0.00518089456527893,,
0.115033213562913,-0.18590278583937,-0.0050882621877788,,
0.115805248553268,-0.180945194618506,-0.00494910777180158,,
0.116577283543623,-0.175838913327521,-0.00484927065382923,,
0.117349318533978,-0.170721887820505,-0.00472418263591656,,
0.118121353524334,-0.165690136809684,-0.00459835913408035,,
0.118893388514689,-0.160359523697789,-0.00447908208244163,,
0.119665423505044,-0.155289797440654,-0.00435065115072053,,
0.120437458495399,-0.149954861942999,-0.0042252028957841,,
0.121209493485754,-0.144818941435378,-0.0041020554404092,,
0.121981528476109,-0.139500677997081,-0.00398525072977129,,
0.122753563466464,-0.134129557955783,-0.00387830965192304,,
0.123525598456819,-0.128731515626042,-0.00371659968087767,,
0.124297633447175,-0.123271230941366,-0.00362034777899778,,
0.12506966843753,-0.117754878738555,-0.00348585929018341,,
0.125841703427885,-0.112379559808234,-0.00331256812768244,,
0.12661373841824,-0.106854130595328,-0.0032246188314895,,
0.127385773408595,-0.101277697230462,-0.00303672949246092,,
0.12815780839895,-0.0958500156840855,-0.00293071902692343,,
0.128929843389305,-0.0902976024343677,-0.0027861910753435,,
0.12970187837966,-0.0847268499193566,-0.00266933919081014,,
0.130473913370015,-0.0789999357816973,-0.00253723512800885,,
0.131245948360371,-0.0734709251634479,-0.00241183833550451,,
0.132017983350726,-0.067708073475618,-0.00224278210229922,,
0.132790018341081,-0.0620529726899318,-0.00214346175291436,,
0.133562053331436,-0.0563849047469675,-0.00197384157722569,,
0.134334088321791,-0.0506744156751937,-0.00185690392197246,,
0.135106123312146,-0.0449835008360729,-0.00170572016252768,,
0.135878158302501,-0.0393238306711554,-0.0016082009982612,,
0.136650193292856,-0.0335725259281397,-0.00145034856534387,,
0.137422228283212,-0.0278774739483635,-0.00128896237876619,,
0.138194263273567,-0.0220974562142323,-0.0011483863131061,,
0.138966298263922,-0.0163741852302844,-0.00100350026877072,,
0.139738333254277,-0.0106231892291087,-0.000875255888365789,,
0.140510368244632,-0.00482946335728347,-0.000728793807051709,,
0.141282403234987,0.000919803689588484,-0.00061144230807475,,
0.142054438225342,0.00668660727296977,-0.000445475965054065,,
0.142826473215697,0.0124519597697033,-0.000312205420462064,,
0.143598508206053,0.0182444197999847,-0.000183394953305438,,
0.144370543196408,0.0239445351459361,-3.93387406854018E-05,,
0.145142578186763,0.0296570001654856,0.000117883277440889,,
0.145914613177118,0.0353778320888979,0.000236778649376213,,
0.146686648167473,0.0411330578532809,0.000409332183685773,,
0.147458683157828,0.0468746681025221,0.00055262074836282,,
0.148230718148183,0.0524604254709548,0.000698739746797017,,
0.149002753138538,0.0581099071551539,0.000801441606813835,,
0.149774788128894,0.0638848615231099,0.000972262572580984,,
0.150546823119249,0.0695373071289726,0.00111355696802029,,
0.151318858109604,0.0751460040161138,0.00123250380238771,,
0.152090893099959,0.0807713112142446,0.00138801040611547,,
0.152862928090314,0.0864472211999437,0.00151534561689015,,
0.153634963080669,0.092009267195068,0.00164813584545032,,
0.154406998071024,0.09748165455987,0.00181194076632929,,
0.155179033061379,0.10304274345529,0.00193111060456852,,
0.155951068051734,0.108604017595815,0.00207664636210714,,
0.15672310304209,0.114125309668065,0.00220020337266957,,
0.157495138032445,0.119587076313573,0.0023479005523499,,
0.1582671730228,0.125062921586982,0.00248309664960367,,
0.159039208013155,0.130344136004485,0.00260525130889588,,
0.15981124300351,0.135724147810773,0.00274207704982787,,
0.160583277993865,0.141076496348202,0.00289500195488657,,
0.16135531298422,0.14633696331406,0.00303194348629043,,
0.162127347974575,0.151652293704877,0.00313829917897523,,
0.162899382964931,0.157005846335481,0.00328534450118445,,
0.163671417955286,0.16202845858784,0.00343606081020553,,
0.164443452945641,0.167267221002349,0.00355586535177199,,
0.165215487935996,0.172305856956201,0.00366930570592139,,
0.165987522926351,0.177448508035933,0.00380971237440964,,
0.166759557916706,0.182351359328573,0.00393816260454249,,
0.167531592907061,0.187481382867051,0.00405925370690774,,
0.168303627897416,0.192470404007222,0.0041870349254256,,
0.169075662887772,0.197244015965658,0.00431728634067685,,
0.169847697878127,0.20217848242271,0.00443669633693178,,
0.170619732868482,0.207070219009112,0.00454738773950814,,
0.171391767858837,0.211778130704006,0.00468182476589085,,
0.172163802849192,0.216359365621967,0.00478319289121298,,
0.172935837839547,0.221100127448632,0.00489659893707461,,
0.173707872829902,0.225626560690001,0.00501774150187151,,
0.174479907820257,0.230266055193161,0.00516751433297369,,
0.175251942810613,0.234731728040428,0.00528145215729836,,
0.176023977800968,0.239141580363031,0.0054018399397604,,
0.176796012791323,0.243344390407762,0.00551853958126625,,
0.177568047781678,0.247789068809911,0.00561858254896608,,
0.178340082772033,0.252244059189516,0.00572396045544421,,
0.179112117762388,0.256455328760661,0.0058369333591699,,
0.179884152752743,0.260380024155962,0.00591274609849579,,
0.180656187743098,0.264594226774586,0.00604789931038985,,
0.181428222733453,0.268673323964048,0.00614750055888225,,
0.182200257723809,0.272643991019317,0.00624390255952179,,
0.182972292714164,0.276546734869797,0.00636027627229208,,
0.183744327704519,0.280511227088268,0.00646802145063985,,
0.184516362694874,0.283960243930753,0.0065686648133787,,
0.185288397685229,0.287661935095055,0.00666321845500484,,
0.186060432675584,0.291303853839143,0.00674994551843877,,
0.186832467665939,0.294944043628927,0.00683916850982236,,
0.187604502656294,0.298288088245828,0.00693787345429175,,
0.18837653764665,0.301688694367808,0.00701007953484556,,
0.189148572637005,0.305074233887998,0.00712377291261879,,
0.18992060762736,0.3084385319696,0.00717381155061281,,
0.190692642617715,0.31123128715708,0.00727042368951603,,
0.19146467760807,0.314794414983612,0.00738862003008434,,
0.192236712598425,0.317855899068588,0.00746791934917468,,
0.19300874758878,0.320503669088026,0.00751536771142725,,
0.193780782579135,0.323702975530357,0.00758009029666962,,
0.194552817569491,0.326136355216132,0.00770335997532001,,
0.195324852559846,0.329249954923691,0.00777842650938299,,
0.196096887550201,0.332067409458368,0.00784742047647624,,
0.196868922540556,0.334419281298395,0.0079055901787175,,
0.197640957530911,0.337161402824123,0.00799655860425119,,
0.198412992521266,0.339552299632721,0.00804700894170063,,
0.199185027511621,0.341776722841215,0.00811487073529138,,
0.199957062501976,0.344256784293191,0.0082134598892889,,
0.200729097492332,0.346081325070578,0.00826824593662945,,
0.201501132482687,0.348422329197839,0.00833955571316025,,
0.202273167473042,0.35029256376754,0.00839848448627256,,
0.203045202463397,0.352391761285749,0.00845066310372822,,
0.203817237453752,0.354216549056608,0.00848797336688811,,
0.204589272444107,0.356342174876318,0.00854221477015749,,
0.205361307434462,0.35776708021607,0.00860282464937967,,
0.206133342424817,0.359445153864583,0.00865138374245511,,
0.206905377415172,0.361036285810966,0.0086413314140823,,
0.207677412405528,0.362103050616372,0.00869996427821063,,
0.208449447395883,0.363357777453942,0.00879662787954638,,
0.209221482386238,0.364998061101245,0.00881131182679429,,
0.209993517376593,0.366336765719282,0.00886412943611337,,
0.210765552366948,0.367320787711581,0.00886781757706911,,
0.211537587357303,0.3683539614048,0.00893192261312814,,
0.212309622347658,0.369607206281538,0.00896441256182889,,
0.213081657338013,0.370165905515117,0.00896595643478726,,
0.213853692328369,0.370850077432453,0.00901213539038537,,
0.214625727318724,0.371586611965846,0.00905241332045392,,
0.215397762309079,0.372191498978682,0.00907709813364299,,
0.216169797299434,0.372774403572514,0.00911101187629448,,
0.216941832289789,0.373201455285537,0.00911195535421339,,
0.217713867280144,0.373537119413934,0.00914211233933271,,
0.218485902270499,0.373558607845995,0.00913884876344051,,
0.219257937260854,0.373627519024672,0.00914917984665298,,
0.22002997225121,0.373705568961812,0.00915777407278773,,
0.220802007241565,0.373755461643149,0.00914461684435386,,
0.22157404223192,0.374067414398237,0.0091859411772055,,
0.222346077222275,0.373562806735018,0.00918322653392023,,
0.22311811221263,0.373148845676009,0.00917207634033224,,
0.223890147202985,0.372980643121602,0.00919398218219669,,
0.22466218219334,0.37221644531935,0.00917573446153641,,
0.225434217183695,0.371709861708355,0.00917928536934065,,
0.22620625217405,0.371132637964379,0.00915408164329579,,
0.226978287164406,0.370482798139645,0.00916859833764017,,
0.227750322154761,0.37025309421072,0.00914074000781406,,
0.228522357145116,0.369213992674174,0.00912773287814028,,
0.229294392135471,0.36797136851673,0.00911738892931968,,
0.230066427125826,0.366903615737436,0.00910635881473931,,
0.230838462116181,0.36558763451882,0.00905086515895936,,
0.231610497106536,0.364590521872507,0.00908279330944506,,
0.232382532096891,0.36298506430475,0.00905937790291,,
0.233154567087247,0.36148482595605,0.00904066273182647,,
0.233926602077602,0.360141675455518,0.00900914628079663,,
0.234698637067957,0.358590062464649,0.00894135310378186,,
0.235470672058312,0.357031780650037,0.00891998332891708,,
0.236242707048667,0.35536951458373,0.00889828333678055,,
0.237014742039022,0.3532942754323,0.00885490050665139,,
0.237786777029377,0.351626081522665,0.00880635427918364,,
0.238558812019732,0.349622717471577,0.00877559689902485,,
0.239330847010088,0.347683077736255,0.00873362070870254,,
0.240102882000443,0.345307247529448,0.00866390626756175,,
0.240874916990798,0.343329323805972,0.0086408167897627,,
0.241646951981153,0.340544966396538,0.00859390020597361,,
0.242418986971508,0.338356357241478,0.00854118981005447,,
0.243191021961863,0.335752305066577,0.00848797336688811,,
0.243963056952218,0.333153439754587,0.00843334170684296,,
0.244735091942573,0.330768223795845,0.00837587103596915,,
0.245507126932929,0.328004119851112,0.00831283384537329,,
0.246279161923284,0.325083916032099,0.00826490087855314,,
0.247051196913639,0.322222990646357,0.00817961047467719,,
0.247823231903994,0.31953891258654,0.00814762228468791,,
0.248595266894349,0.316453470134784,0.00807168946635395,,
0.249367301884704,0.31335567800943,0.00798230351060258,,
0.250139336875059,0.309963716658969,0.00792059576616522,,
0.250911371865414,0.307004734864858,0.00784026719843611,,
0.25168340685577,0.303576218480546,0.00778575132886328,,
0.252455441846125,0.300274656740822,0.00770564147646979,,
0.25322747683648,0.296728077476912,0.0076432003923772,,
0.253999511826835,0.29296093304254,0.00753948643786551,,
0.25477154681719,0.2895855202547,0.00747349444596868,,
0.255543581807545,0.285999669028748,0.00738407418192955,,
0.2563156167979,0.282137926094613,0.00727726819296493,,
0.257087651788255,0.278384860288143,0.00717987125197395,,
0.25785968677861,0.274735778733368,0.00713343498421626,,
