Time domain (s),Current (AC) (A),Potential (AC) (V),Frequency (Hz),Column 5
0,-0.261973585022108,-0.00662431374819894,0.12589,0.3
0.0193931706251489,-0.263789614752183,-0.00669041467221598,,
0.0387863412502979,-0.265105073597806,-0.00678283365435162,,
0.0581795118754468,-0.266506054901892,-0.00683061948744212,,
0.0775726825005957,-0.268164485256193,-0.00688813883711958,,
0.0969658531257447,-0.269532139251723,-0.00693266522721503,,
0.116359023750894,-0.270947359604304,-0.00697972351783349,,
0.135752194376043,-0.272247565475377,-0.00703673543299699,,
0.155145365001192,-0.273744781587103,-0.00706757690735493,,
0.17453853562634,-0.274668953143391,-0.00709810205889871,,
0.193931706251489,-0.275847223385543,-0.00716454961999924,,
0.213324876876638,-0.276861325774441,-0.0072520774606244,,
0.232718047501787,-0.278063224902024,-0.00726822046822839,,
0.252111218126936,-0.278807711128059,-0.00731487808328257,,
0.271504388752085,-0.279757098584471,-0.00736641761376511,,
0.290897559377234,-0.280624093528066,-0.00738057833173533,,
0.310290730002383,-0.281024594319369,-0.00742699343263231,,
0.329683900627532,-0.281992320612235,-0.0074669344599374,,
0.349077071252681,-0.282461151202825,-0.00750258272305526,,
0.36847024187783,-0.283072901283278,-0.00751392816798147,,
0.387863412502979,-0.283511666762181,-0.0075220892965806,,
0.407256583128128,-0.284008402361125,-0.00755977520582496,,
0.426649753753277,-0.284237770068021,-0.00758818099451553,,
0.446042924378426,-0.284329816920222,-0.00760526242646753,,
0.465436095003575,-0.284605957476823,-0.00764805035909788,,
0.484829265628723,-0.284890385776822,-0.00764774458037776,,
0.504222436253872,-0.284831137228279,-0.00764947512977221,,
0.523615606879021,-0.284954615788151,-0.00768720057936845,,
0.54300877750417,-0.284784584797281,-0.00773929762881043,,
0.562401948129319,-0.284478335045252,-0.00771516351611945,,
0.581795118754468,-0.284682001930868,-0.0077250749642892,,
0.601188289379617,-0.284283793494121,-0.00777082578727661,,
0.620581460004766,-0.283967095895363,-0.00774753388407801,,
0.639974630629915,-0.283580613733849,-0.00775586371817782,,
0.659367801255064,-0.283005893996235,-0.00776387722946392,,
0.678760971880213,-0.282372675133684,-0.00775135084603251,,
0.698154142505362,-0.281932895728726,-0.00775353347344865,,
0.717547313130511,-0.28112382682143,-0.00775909021088017,,
0.73694048375566,-0.280461909443178,-0.00776064019266842,,
0.756333654380809,-0.279361358837247,-0.00775791981646856,,
0.775726825005957,-0.278710374226881,-0.00774501384566051,,
0.795119995631106,-0.277833107771523,-0.00774977977605662,,
0.814513166256255,-0.276463161421436,-0.00769971641870582,,
0.833906336881404,-0.275990760047787,-0.00769436001905666,,
0.853299507506553,-0.274441481037379,-0.00769985349192526,,
0.872692678131702,-0.273155470131061,-0.00767002425057228,,
0.892085848756851,-0.272073126110359,-0.00764650037730963,,
0.911479019382,-0.27077512442636,-0.00763614607720031,,
0.930872190007149,-0.269569478180752,-0.00761142017724525,,
0.950265360632298,-0.268119696174854,-0.00759767067893335,,
0.969658531257447,-0.266188828298235,-0.00756917131141011,,
0.989051701882596,-0.264858733650442,-0.00753621970028107,,
1.00844487250774,-0.263225695531231,-0.00752677219223852,,
1.02783804313289,-0.26167006846205,-0.00748300234087296,,
1.04723121375804,-0.259831071102667,-0.00746816680090001,,
1.06662438438319,-0.257993660757976,-0.00741004775588783,,
1.08601755500834,-0.25613367953765,-0.00739715232917337,,
1.10541072563349,-0.25406262536314,-0.00733531253706232,,
1.12480389625864,-0.252018021433515,-0.00729360010199942,,
1.14419706688379,-0.25030298755516,-0.0072636548756142,,
1.16359023750894,-0.248052424385362,-0.00723638916706548,,
1.18298340813409,-0.245746844706204,-0.00719268258026284,,
1.20237657875923,-0.243662918079183,-0.00711693381042089,,
1.22176974938438,-0.241217328437099,-0.00705959502835007,,
1.24116292000953,-0.238694151410018,-0.00705231828561814,,
1.26055609063468,-0.23636436975679,-0.0069970369198491,,
1.27994926125983,-0.233764531103284,-0.00691307430093913,,
1.29934243188498,-0.23130730335345,-0.00689549729657868,,
1.31873560251013,-0.228740042584894,-0.00680396270031025,,
1.33812877313528,-0.226091359145833,-0.00675334050598808,,
1.35752194376043,-0.223455592243025,-0.00669125688170791,,
1.37691511438557,-0.220750657949842,-0.00664452677600913,,
1.39630828501072,-0.217908843639377,-0.00659545456347521,,
1.41570145563587,-0.21524354062978,-0.00654607789023309,,
1.43509462626102,-0.212245140869596,-0.0064487229541883,,
1.45448779688617,-0.209266843295524,-0.00638841073766638,,
1.47388096751132,-0.206385397701474,-0.00632588426144665,,
1.49327413813647,-0.203223359092933,-0.00624784874126272,,
1.51266730876162,-0.200257713552665,-0.00617608432086492,,
1.53206047938677,-0.196984760250572,-0.00609137175328378,,
1.55145365001191,-0.193911065459948,-0.00602885713916956,,
1.57084682063706,-0.190767894692758,-0.00593551027677997,,
1.59023999126221,-0.187319444015853,-0.00587786571598858,,
1.60963316188736,-0.184084799485102,-0.00581467496185972,,
1.62902633251251,-0.180832521457761,-0.00575011215752541,,
1.64841950313766,-0.177395532553639,-0.00563263118244484,,
1.66781267376281,-0.173772025339335,-0.0055487542342969,,
1.68720584438796,-0.170360693172751,-0.00551854408755537,,
1.70659901501311,-0.166859871010972,-0.00540048055129239,,
1.72599218563826,-0.16325434996319,-0.00530888532648444,,
1.7453853562634,-0.15971583620245,-0.00521519050899943,,
1.76477852688855,-0.156106920706574,-0.00513210304987499,,
1.7841716975137,-0.152330927830507,-0.00502439513173281,,
1.80356486813885,-0.148708654960964,-0.00494855146504669,,
1.822958038764,-0.14497251378719,-0.00482285532288618,,
1.84235120938915,-0.141226233352877,-0.00473069994309538,,
1.8617443800143,-0.137345453423323,-0.00466969181638266,,
1.88113755063945,-0.133558483695628,-0.00457381437148152,,
1.9005307212646,-0.129807618552202,-0.00447925493830503,,
1.91992389188974,-0.125882622629948,-0.00439855044437865,,
1.93931706251489,-0.121882860682152,-0.00426882645838722,,
1.95871023314004,-0.11791400143713,-0.00415912570651722,,
1.97810340376519,-0.113903835726346,-0.00408299866731054,,
1.99749657439034,-0.109847955175652,-0.00396316372328975,,
2.01688974501549,-0.105852028513364,-0.00388314459546013,,
2.03628291564064,-0.101760351964592,-0.00373075212581586,,
2.05567608626579,-0.0977359912890527,-0.00366219310993232,,
2.07506925689094,-0.0935933980188767,-0.00351813970046999,,
2.09446242751609,-0.0894675565704613,-0.0034403032000565,,
2.11385559814123,-0.0852107423261227,-0.00331622030424672,,
2.13324876876638,-0.0810235363095737,-0.00326335221794594,,
2.15264193939153,-0.0768396365736353,-0.00313781423719206,,
2.17203511001668,-0.0727095190022968,-0.00301419396349756,,
2.19142828064183,-0.0684332197442261,-0.00291833760678406,,
2.21082145126698,-0.0641708509484617,-0.00278773977901947,,
2.23021462189213,-0.0598702174650967,-0.00269904286199418,,
2.24960779251728,-0.0556157837427978,-0.00255914382548816,,
2.26900096314243,-0.0513250250175233,-0.00247816518512289,,
2.28839413376757,-0.0470429067055779,-0.00233908858793308,,
2.30778730439272,-0.0426754863538778,-0.00222112126652618,,
2.32718047501787,-0.0383320916412818,-0.00211981361331892,,
2.34657364564302,-0.0340318549115901,-0.00198855941571541,,
2.36596681626817,-0.0296349866205845,-0.00188122054085627,,
2.38535998689332,-0.025277176524526,-0.00177684587436611,,
2.40475315751847,-0.0208986470699741,-0.00163793798267697,,
2.42414632814362,-0.0165219691325642,-0.00153127392982055,,
2.44353949876877,-0.0121522123425659,-0.00140944747008387,,
2.46293266939391,-0.00780947888609202,-0.00131700739976059,,
2.48232584001906,-0.00346859694676007,-0.00117075027469449,,
2.50171901064421,0.000955471012735793,-0.00106336922346006,,
2.52111218126936,0.00533598423565405,-0.000956325583227446,,
2.54050535189451,0.00971208908442477,-0.000853573389170137,,
2.55989852251966,0.0140977160213542,-0.000717976342933468,,
2.57929169314481,0.0184394355517742,-0.00059419922584425,,
2.59868486376996,0.0228021389431364,-0.000471118018944949,,
2.61807803439511,0.0271318676958751,-0.000341690585591969,,
2.63747120502026,0.0315257603343311,-0.000241646905629,,
2.6568643756454,0.0358530424394179,-0.000114010650209551,,
2.67625754627055,0.0400988357483876,-1.29138788782512E-05,,
2.6956507168957,0.0445304861114173,0.00013186707305568,,
2.71504388752085,0.0488649538663645,0.000249947743471424,,
2.734437058146,0.0531102402123073,0.000354877292897626,,
2.75383022877115,0.0574154584047857,0.000466209743282597,,
2.7732233993963,0.0616551020318196,0.000595132378145458,,
2.79261657002145,0.0659913110945552,0.00069830633595469,,
2.8120097406466,0.0701764672171257,0.000823106230142479,,
2.83140291127174,0.0743831141636653,0.000917212267285805,,
2.85079608189689,0.0786428379349412,0.00102695783155404,,
2.87018925252204,0.0828052248050397,0.00117059738533465,,
2.88958242314719,0.0869667300003086,0.00130423323012518,,
2.90897559377234,0.0910977292464766,0.00138422072567357,,
2.92836876439749,0.0952830617040129,0.00153518051657286,,
2.94776193502264,0.0993835329592093,0.00163726843272105,,
2.96715510564779,0.103461631715607,0.00177740207531407,,
2.98654827627294,0.107566555428692,0.00186833170420053,,
3.00594144689809,0.111486812348738,0.00197476378699335,,
3.02533461752323,0.115533876151137,0.00209994326855778,,
3.04472778814838,0.119515894392989,0.00220437197352874,,
3.06412095877353,0.123467186267033,0.00232055470706083,,
3.08351412939868,0.127457999215309,0.00242871865725958,,
3.10290730002383,0.131325554022421,0.00255656579455499,,
3.12230047064898,0.135136152635546,0.00264727663349529,,
3.14169364127413,0.138994890694363,0.002778698218588,,
3.16108681189928,0.142846928024475,0.00287722223103248,,
3.18047998252443,0.146474138273063,0.00300584699524542,,
3.19987315314957,0.150266221714769,0.00311035214489674,,
3.21926632377472,0.154007168016364,0.00320638775120452,,
3.23865949439987,0.1576232691621,0.00333611173719595,,
3.25805266502502,0.161179769089362,0.0034666159861283,,
3.27744583565017,0.164863053857107,0.00352692820265066,,
3.29683900627532,0.168362046543614,0.00365268760937409,,
3.31623217690047,0.171836418460508,0.00377380761482637,,
3.33562534752562,0.175313699904338,0.0038559671936973,,
3.35501851815077,0.17880832830044,0.00396056460416894,,
3.37441168877592,0.182011651332872,0.00404683637962044,,
3.39380485940106,0.185312796187638,0.0041370516461523,,
3.41319803002621,0.188754149382166,0.00423935835224665,,
3.43259120065136,0.191960448067148,0.0043538276705366,,
3.45198437127651,0.195238338748286,0.00444903029343457,,
3.47137754190166,0.198145044326202,0.00454118830924877,,
3.49077071252681,0.201501404067166,0.00469000501308425,,
3.51016388315196,0.204351858790959,0.00476031303052604,,
3.52955705377711,0.207534704925476,0.00481971845498164,,
3.54895022440226,0.210382514624781,0.00492674100702706,,
3.5683433950274,0.213239317407347,0.00500886631759245,,
3.58773656565255,0.216220436340873,0.0051277852434648,,
3.6071297362777,0.218816968713769,0.00520958632314628,,
3.62652290690285,0.221725790311275,0.00531926598682864,,
3.645916077528,0.224540978041888,0.00537179666212806,,
3.66530924815315,0.227081964900525,0.0054681380471564,,
3.6847024187783,0.229782534903302,0.00550862736733881,,
3.70409558940345,0.232192328547308,0.00561081018033116,,
3.7234887600286,0.234614289303962,0.00568452394007002,,
3.74288193065374,0.237151220458383,0.00580192451643535,,
3.76227510127889,0.23953685621206,0.00585071994650699,,
3.78166827190404,0.24176925688037,0.00592488973830241,,
3.80106144252919,0.244088590686869,0.00601339422561553,,
3.82045461315434,0.246369483470801,0.00605439229832427,,
3.83984778377949,0.24844529868939,0.00616219247728678,,
3.85924095440464,0.250549151167558,0.00622328232072666,,
3.87863412502979,0.252611035923841,0.0062749404722644,,
3.89802729565494,0.254730934883905,0.0063519123569864,,
3.91742046628009,0.256469068642794,0.00642895805036536,,
3.93681363690523,0.258329226198086,0.00643268802354591,,
3.95620680753038,0.260166989212708,0.0065628495894301,,
3.97559997815553,0.261888018479904,0.00662223128967421,,
3.99499314878068,0.26337328789769,0.0067112867058885,,
4.01438631940583,0.26497070635379,0.00674829647511821,,
4.03377949003098,0.266803179319435,0.00680091150316775,,
4.05317266065613,0.268171714989795,0.00684214945401029,,
4.07256583128128,0.269655397392888,0.00689724234410249,,
4.09195900190643,0.270753258890589,0.00694295099071462,,
4.11135217253157,0.272180514104593,0.00698666680359938,,
4.13074534315672,0.273627166164847,0.00704290899991555,,
4.15013851378187,0.274502845605512,0.00708739189562424,,
4.16953168440702,0.275718146190504,0.00714500482413394,,
4.18892485503217,0.276944379543381,0.00719215273954976,,
4.20831802565732,0.27778073628665,0.00724172052449212,,
4.22771119628247,0.278930440264326,0.0072445147093485,,
4.24710436690762,0.279466851230598,0.00731409254829485,,
4.26649753753277,0.280253657848449,0.00735929771442878,,
4.28589070815791,0.280999202084279,0.00738096582718262,,
4.30528387878306,0.281746862339701,0.00743913759266368,,
4.32467704940821,0.282170595262761,0.0074755331684293,,
4.34407022003336,0.282750031960713,0.00747280224813585,,
4.36346339065851,0.283150312333308,0.00749431219948304,,
4.38285656128366,0.283501747920349,0.00753547634166862,,
4.40224973190881,0.283637525844093,0.00755676486704582,,
4.42164290253396,0.284077128914085,0.00758640167868752,,
4.44103607315911,0.284376016681288,0.00761962875426692,,
4.46042924378426,0.28424341278693,0.00761618874366565,,
4.4798224144094,0.284385715104412,0.00763624361006832,,
4.49921558503455,0.284255403564611,0.00764411214006477,,
4.5186087556597,0.284134966782901,0.00765715518409227,,
4.53800192628485,0.283893035209684,0.00767866513543947,,
4.55739509691,0.28389021385023,0.00765660425519155,,
4.57678826753515,0.283598908486561,0.00772999378404604,,
4.5961814381603,0.283271454454883,0.00773642304523881,,
4.61557460878545,0.282755498344656,0.00773463318531675,,
4.6349677794106,0.282614959376832,0.00775560538788023,,
4.65436095003574,0.281640003350364,0.00774480823583135,,
4.67375412066089,0.281362981118934,0.00770567910374886,,
4.69314729128604,0.280455737719372,0.00772254965382491,,
4.71254046191119,0.279823047861718,0.00771710890142518,,
4.73193363253634,0.279106422560296,0.00771919663199716,,
4.75132680316149,0.277971001714858,0.00772202244913522,,
4.77071997378664,0.277000101392605,0.00769511392176359,,
4.79011314441179,0.276282594416353,0.00766855334948779,,
4.80950631503694,0.275078755604146,0.00768235293224517,,
4.82889948566209,0.274009636705887,0.00767423398002087,,
4.84829265628723,0.272609713411597,0.00765267130820479,,
4.86768582691238,0.27138647775314,0.00761394548770999,,
4.88707899753753,0.270117218668583,0.00762949539003799,,
4.90647216816268,0.26892219660467,0.00758807028153097,,
4.92586533878783,0.267409242597238,0.00755513053250745,,
4.94525850941298,0.26582293324399,0.00751336537697522,,
4.96465168003813,0.264359000357078,0.00750716544982222,,
4.98404485066328,0.262668829708915,0.0074713682513794,,
5.00343802128843,0.260827187325043,0.00746152006777256,,
5.02283119191357,0.259182334763116,0.00741313322133541,,
5.04222436253872,0.257387244810242,0.00735945587583542,,
5.06161753316387,0.255382845252842,0.00730660887772228,,
5.08101070378902,0.253249015830472,0.00730562564097559,,
5.10040387441417,0.251734474808346,0.00727773651288111,,
5.11979704503932,0.24942448675504,0.00722278333203175,,
5.13919021566447,0.247295242041783,0.00718102872059312,,
5.15858338628962,0.245123676936709,0.00714072655807563,,
5.17797655691477,0.242924956246887,0.00707049234928991,,
5.19736972753992,0.240559599014288,0.00702194734144612,,
5.21676289816506,0.23802425487456,0.0069718207195324,,
5.23615606879021,0.235752884178786,0.00695253557197661,,
5.25554923941536,0.233314347935338,0.00685854551986509,,
5.27494241004051,0.230969621893749,0.00683301826878147,,
5.29433558066566,0.228268522886074,0.00676091775539378,,
5.31372875129081,0.225564426183979,0.00672424539716587,,
5.33312192191596,0.222873554604326,0.00665314657268867,,
5.35251509254111,0.220153940425232,0.00659003226324018,,
5.37190826316626,0.21728232550553,0.00656039281557508,,
5.3913014337914,0.214404715196988,0.00646014747981827,,
5.41069460441655,0.211899700671395,0.00639799004688157,,
5.4300877750417,0.208809606728942,0.00632830413097363,,
5.44948094566685,0.205746668371238,0.00626387708184728,,
5.468874116292,0.202820918617005,0.00618813885609937,,
5.48826728691715,0.199727297975234,0.00610183808438958,,
5.5076604575423,0.196700508285539,0.00605135296328685,,
5.52705362816745,0.193540762031555,0.00597148145277027,,
5.5464467987926,0.190243121834236,0.00589557452152167,,
5.56583996941774,0.186911977993396,0.00579136724252072,,
5.58523314004289,0.183608518742203,0.00572045821173184,,
5.60462631066804,0.180366600394109,0.00565090673301993,,
5.62401948129319,0.177000013225122,0.00557821575037964,,
5.64341265191834,0.173491476408586,0.00550978721765683,,
5.66280582254349,0.169864067783161,0.00541228598231047,,
5.68219899316864,0.166465255399156,0.00533358750222934,,
5.70159216379379,0.162827443010743,0.00522701834621708,,
5.72098533441894,0.159407250012123,0.00515019407880812,,
5.74037850504409,0.155559797391124,0.00506196900998068,,
5.75977167566923,0.151890795755617,0.00497405235589632,,
5.77916484629438,0.148299557840073,0.00487086521797009,,
5.79855801691953,0.14462650050035,0.00478852638950489,,
5.81795118754468,0.140610978614977,0.0046987460668424,,
5.83734435816983,0.137011651332872,0.00458831777250035,,
5.85673752879498,0.13308341525562,0.00450111811679443,,
5.87613069942013,0.129178830105669,0.00438248388145501,,
5.89552387004528,0.125214864155951,0.00430336363762152,,
5.91491704067043,0.121207630013975,0.00421896607484218,,
5.93431021129557,0.117338664527136,0.00413123921444658,,
5.95370338192072,0.113408158137197,0.00400128589441495,,
5.97309655254587,0.109363210354389,0.00390401662913265,,
5.99248972317102,0.10529551536098,0.0038069714258433,,
6.01188289379617,0.101190613689765,0.00370551615532344,,
6.03127606442132,0.0971331461243779,0.00359667738312153,,
6.05066923504647,0.0930196040398341,0.00348231614179317,,
6.07006240567162,0.0888046693498971,0.00340192797068051,,
6.08945557629677,0.0846819578471264,0.00327529340417199,,
6.10884874692192,0.0804827169691546,0.00315116042391672,,
6.12824191754706,0.0762825944163533,0.0030610901386745,,
6.14763508817221,0.0720785704524314,0.00296526277821885,,
6.16702825879736,0.0678798806212281,0.00286392349273035,,
6.18642142942251,0.0636026996883279,0.00275883314587366,,
6.20581460004766,0.0593223226841709,0.0025994380799359,,
6.22520777067281,0.0550767497939085,0.00250285418075036,,
6.24460094129796,0.0507434943418518,0.00236975872076695,,
6.26399411192311,0.0464259106598895,0.00227727120202159,,
6.28338728254826,0.0421037643106846,0.00218401923647615,,
6.3027804531734,0.0377886934019864,0.00206506077025193,,
6.32217362379855,0.0334781631186602,0.00194217199306479,,
6.3415667944237,0.0291166940720593,0.00181927267178406,,
6.36095996504885,0.0247608677443672,0.00171940692340389,,
6.380353135674,0.0204475381434573,0.00161014638745005,,
6.39974630629915,0.0160433960351083,0.00145897571467479,,
6.4191394769243,0.0116903910668706,0.00136393388920686,,
6.43853264754945,0.00731164119361138,0.0012414536956542,,
6.4579258181746,0.00295510952605569,0.00111758168172083,,
6.47731898879974,-0.0014312227507373,0.00101145537764813,,
6.49671215942489,-0.00581491000304178,0.000884522940489685,,
6.51610533005004,-0.0102215208009134,0.000794036163542788,,
6.53549850067519,-0.0145731150894239,0.000670783615119408,,
6.55489167130034,-0.0189248857129002,0.000538552770827927,,
6.57428484192549,-0.023359886440282,0.000411222294128599,,
6.59367801255064,-0.0276703946817374,0.000307995615850487,,
6.61307118317579,-0.0320828245334838,0.000177343749604653,,
6.63246435380094,-0.0363764046182128,4.9884107756526E-05,,
