Time domain (s),Current (AC) (A),Potential (AC) (V),Frequency (Hz),Column 5
0,-0.0206537839279495,-0.00807104381593948,0.0050119,0.3
0.48712189987829,-0.0162627787745602,-0.00788800889170771,,
0.974243799756579,-0.0119274513866541,-0.00772528189212984,,
1.46136569963487,-0.00753230236156603,-0.00755086281054274,,
1.94848759951316,-0.00314843877429565,-0.00733616265462489,,
2.43560949939145,0.00121567529679379,-0.00718262878682685,,
2.92273139926974,0.00565402638852765,-0.00698807048608607,,
3.40985329914803,0.0099858932027279,-0.00681492460382449,,
3.89697519902632,0.0143556279508554,-0.0066190799236403,,
4.38409709890461,0.0187040482099797,-0.00642051354924478,,
4.8712189987829,0.0230565241733196,-0.00620361099573508,,
5.35834089866119,0.0274275153080792,-0.00602853686232052,,
5.84546279853948,0.0318443755758439,-0.00586685372802886,,
6.33258469841777,0.0361083093444307,-0.00566089594388108,,
6.81970659829605,0.0404711890707588,-0.00544496212898915,,
7.30682849817434,0.0447496043484203,-0.00524765181976727,,
7.79395039805263,0.0490391287289335,-0.00505248064357433,,
8.28107229793092,0.0534236976560675,-0.00484982316078542,,
8.76819419780921,0.0576977045595814,-0.00465157310920361,,
9.2553160976875,0.0619447542551832,-0.00444318095740037,,
9.74243799756579,0.0662573564743587,-0.00424673262784614,,
10.2295598974441,0.0704696461398072,-0.00403761161555938,,
10.7166817973224,0.0746031140754978,-0.00379814601933459,,
11.2038036972007,0.0788339189123659,-0.00362028692714578,,
11.690925597079,0.0830754581402833,-0.003393641630967,,
12.1780474969572,0.0873001132952156,-0.00322418749954645,,
12.6651693968355,0.091407130986021,-0.0029923228769384,,
13.1522912967138,0.0955134433369629,-0.00276565781058391,,
13.6394131965921,0.0996768882168567,-0.00257416388710308,,
14.1265350964704,0.103738940491357,-0.00237067473891539,,
14.6136569963487,0.107693979483427,-0.0021497970620441,,
15.100778896227,0.111889847955176,-0.00192686328688252,,
15.5879007961053,0.115875194519509,-0.00168941161257319,,
16.0750226959836,0.119812401638152,-0.00145744023101502,,
16.5621445958618,0.123861206748339,-0.00127772669632975,,
17.0492664957401,0.127595121693168,-0.00104497768785405,,
17.5363883956184,0.131574649203627,-0.000837637309407224,,
18.0235102954967,0.135364792960708,-0.000633535285767817,,
18.510632195375,0.139246454565092,-0.000402092426911249,,
18.9977540952533,0.142941906445484,-0.00018789970550781,,
19.4848759951316,0.146860752685802,2.07033281713898E-05,,
19.9719978950099,0.150417627324866,0.000259823605324172,,
20.4591197948882,0.154207771081947,0.000457230129402131,,
20.9462416947665,0.157873752981163,0.000707399298843114,,
21.4333635946447,0.161530962215825,0.000905470100830197,,
21.920485494523,0.164952565894173,0.00112514575100864,,
22.4076073944013,0.168460750040777,0.00132615044709494,,
22.8947292942796,0.172139626434375,0.00156336883332875,,
23.3818511941579,0.17556775450646,0.00178458392120184,,
23.8689730940362,0.178966963644138,0.00199703950315211,,
24.3560949939145,0.182256690809862,0.00221682850233895,,
24.8432168937928,0.185599627051547,0.00239698225294038,,
25.3303387936711,0.188820561538699,0.0026569943339414,,
25.8174606935494,0.192287659638249,0.00284564662414377,,
26.3045825934276,0.195240917647163,0.00306550152391694,,
26.7917044933059,0.198587402630036,0.00329929571568988,,
27.2788263931842,0.201530609545893,0.00349987601200086,,
27.7659482930625,0.204567450328644,0.00375947160129675,,
28.2530701929408,0.207683465511085,0.00393912187141954,,
28.7401920928191,0.210585410044921,0.00415683895617525,,
29.2273139926974,0.213576932741436,0.00435289320022347,,
29.7144358925757,0.216091116685255,0.00456940562226249,,
30.201557792454,0.219265851411341,0.00476342749223146,,
30.6886796923322,0.221971887798061,0.00500592056138771,,
31.1758015922105,0.224607742868353,0.0051962071861289,,
31.6629234920888,0.227120868802377,0.00539080898125643,,
32.1500453919671,0.229818441110734,0.00559439698032316,,
32.6371672918454,0.232301061095657,0.00582456400383036,,
33.1242891917237,0.234907291891677,0.00601881784386293,,
33.611411091602,0.237308974127252,0.00624578209887883,,
34.0985329914803,0.239578405138401,0.0064290569012444,,
34.5856548913586,0.241996486525804,0.00660707283682838,,
35.0727767912369,0.244201731609365,0.00680604252281203,,
35.5598986911151,0.246269082749591,0.00699388291779179,,
36.0470205909934,0.248766867541582,0.00719722576667792,,
36.5341424908717,0.250598635167364,0.00739179592952421,,
37.02126439075,0.252611322468161,0.00761733409585386,,
37.5083862906283,0.254632297512355,0.00777376627143456,,
37.9955081905066,0.256475350575954,0.00797507147419418,,
38.4826300903849,0.258441132775821,0.00813866308946354,,
38.9697519902632,0.260445355998254,0.00832307401793564,,
39.4568738901415,0.261965363404323,0.00853716920647196,,
39.9439957900197,0.26364072191535,0.00869940063364094,,
40.431117689898,0.265202520708338,0.00888885691099572,,
40.9182395897763,0.266682147407215,0.00904949618000117,,
41.4053614896546,0.268280094868212,0.00922239823009363,,
41.8924833895329,0.269583739271119,0.00937101723217015,,
42.3796052894112,0.27084982432629,0.00957141037081621,,
42.8667271892895,0.272239520192558,0.00975852322332438,,
43.3538490891678,0.273625336689576,0.00989691445441743,,
43.8409709890461,0.274704154010959,0.0100584816036773,,
44.3280928889244,0.275896002045486,0.010214099248012,,
44.8152147888026,0.276637843247032,0.0103674130078519,,
45.3023366886809,0.277835510335433,0.0105376368581198,,
45.7894585885592,0.278541026534004,0.010695661191864,,
46.2765804884375,0.279635361332387,0.0108288330965269,,
46.7637023883158,0.280148143413228,0.0110104551121899,,
47.2508242881941,0.28100760003703,0.0111441542215429,,
47.7379461880724,0.281607667925992,0.0112701666865176,,
48.2250680879507,0.282172997826672,0.0114208180626738,,
48.712189987829,0.2826656777214,0.0115390516224494,,
49.1993118877073,0.283153772907014,0.01169798274826,,
49.6864337875855,0.283652977195481,0.0118263781784327,,
50.1735556874638,0.28390725221631,0.0119595289949084,,
50.6606775873421,0.284049554533792,0.0121036746651915,,
51.1477994872204,0.284289370087418,0.012235014533557,,
51.6349213870987,0.284535181029884,0.0123559658335091,,
52.122043286977,0.284451950925979,0.0124746106129425,,
52.6091651868553,0.284385119973902,0.0125936191636122,,
53.0962870867336,0.284410688543958,0.0126810507893813,,
53.5834089866119,0.284301184530133,0.0128289949694551,,
54.0705308864901,0.284142835730754,0.0128888854222251,,
54.5576527863684,0.283775353661816,0.0130280068318136,,
55.0447746862467,0.283417041011105,0.0131150773223703,,
55.531896586125,0.282948871676637,0.0132404360535294,,
56.0190184860033,0.282322882547688,0.0133508643478715,,
56.5061403858816,0.282093999761948,0.0134053984009923,,
56.9932622857599,0.281091711815765,0.0135383567877563,,
57.4803841856382,0.28052708725495,0.0135961410577901,,
57.9675060855165,0.279710303692895,0.0136817248311214,,
58.4546279853948,0.279207396370145,0.0137636049915066,,
58.941749885273,0.278083966302388,0.0138466265500452,,
59.4288717851513,0.277139692559987,0.0139030901723309,,
59.9159936850296,0.276319911303512,0.0140019305075891,,
60.4031155849079,0.27525220308498,0.0140702878676788,,
60.8902374847862,0.273889662803462,0.0141313276266728,,
61.3773593846645,0.272615642674825,0.0142173647960377,,
61.8644812845428,0.27147881114966,0.0142640355912089,,
62.3516031844211,0.270063370378371,0.0143202988757127,,
62.8387250842994,0.268807689086188,0.0143758346177445,,
63.3258469841777,0.267175885311738,0.014418717447219,,
63.8129688840559,0.265611617829228,0.0144654093305783,,
64.3000907839342,0.26417766188652,0.0144813836326816,,
64.7872126838125,0.262654127781133,0.0145485890505239,,
65.2743345836908,0.260866267561861,0.0145442659720669,,
65.7614564835691,0.25914541462963,0.014638688332024,,
66.2485783834474,0.257344329287915,0.0146516074829495,,
66.7357002833257,0.255156717700945,0.0146557803080696,,
67.222822183204,0.253407827509136,0.0146937601339285,,
67.7099440830823,0.25124754784188,0.0146929482387059,,
68.1970659829606,0.249316150960364,0.0147249917397567,,
68.6841878828388,0.247137532456655,0.0147532499111342,,
69.1713097827171,0.244870570135029,0.0147503291971525,,
69.6584316825954,0.242650689249298,0.0147433279188709,,
70.1455535824737,0.240350046949185,0.0147523747513492,,
70.632675482352,0.238043409260231,0.0147386779735061,,
71.1197973822303,0.235568019008909,0.0147325940313849,,
71.6069192821086,0.233145352912392,0.0147440343731553,,
72.0940411819869,0.230667317636582,0.0147257509145104,,
72.5811630818652,0.228197217434238,0.0147217125265859,,
73.0682849817434,0.225626429966364,0.0146850612565457,,
73.5554068816217,0.222815297939967,0.0146629924682271,,
74.0425287815,0.220086338007679,0.0146296414995457,,
74.5296506813783,0.217191799542411,0.014638466906054,,
75.0167725812566,0.214542014009813,0.0146023850170791,,
75.5038944811349,0.21165241292359,0.0145260167817267,,
75.9910163810132,0.208624917894031,0.0145024059196905,,
76.4781382808915,0.205660550782266,0.0144764041843857,,
76.9652601807698,0.202645046530389,0.014440195766285,,
77.4523820806481,0.199556186932697,0.014369906201007,,
77.9395039805263,0.196393795654225,0.014345844578961,,
78.4266258804046,0.19327883848158,0.0142631894276817,,
78.9137477802829,0.190076948170745,0.0141710788602896,,
79.4008696801612,0.18679764680988,0.0141820948022846,,
79.8879915800395,0.183333193734819,0.0140895730152346,,
80.3751134799178,0.180004320206665,0.0140306104427186,,
80.8622353797961,0.176897518526192,0.0139623796117547,,
81.3493572796744,0.173229023853713,0.0138744418694832,,
81.8364791795527,0.169800719446661,0.0137866833768059,,
82.3236010794309,0.166149703977676,0.0137044157209738,,
82.8107229793092,0.162647140508109,0.0136372076671081,,
83.2978448791875,0.15911343187519,0.0135570751902705,,
83.7849667790658,0.155340194232965,0.0134327919566783,,
84.2720886789441,0.151656182083486,0.0133711722725254,,
84.7592105788224,0.148103407232379,0.0132711720869496,,
85.2463324787007,0.144205522811132,0.0131763938638265,,
85.733454378579,0.140539673163141,0.0130753155446599,,
86.2205762784573,0.136810387011166,0.0129610781964336,,
86.7076981783355,0.132914089604613,0.0128499750800888,,
87.1948200782138,0.128955898625028,0.0127614916809629,,
87.6819419780921,0.125021689200806,0.0126211708807049,,
88.1690638779704,0.121232074448623,0.0125008944027565,,
88.6561857778487,0.117127701782306,0.0123979524150108,,
89.143307677727,0.113180641947443,0.0122735848286686,,
89.6304295776053,0.109080126608506,0.0121534770562204,,
90.1175514774836,0.105131281382113,0.0120327577263324,,
90.6046733773619,0.101012294955497,0.0118945773771153,,
91.0917952772402,0.0969183260521687,0.0117459267427575,,
91.5789171771185,0.0928045855907883,0.0116222629746763,,
92.0660390769967,0.0887418059345533,0.0114692576295798,,
92.553160976875,0.0845323596704299,0.0113462634114545,,
93.0402828767533,0.0802844723837402,0.0111918346136957,,
93.5274047766316,0.0760664959156414,0.011038945253631,,
94.0145266765099,0.0718052071715431,0.0108864961094826,,
94.5016485763882,0.067663627827421,0.0107581428556847,,
94.9887704762665,0.0634192451981785,0.0105892607413529,,
95.4758923761448,0.0591157683134883,0.0104221579428492,,
95.9630142760231,0.0548534215595946,0.0102815129117069,,
96.4501361759013,0.0505547277608545,0.0101239894224183,,
96.9372580757796,0.046199606773026,0.00995424269239464,,
97.4243799756579,0.0418518918537654,0.00976830814236873,,
97.9115018755362,0.0375621911382863,0.00962824303638543,,
98.3986237754145,0.0332248799820138,0.00943904772535209,,
98.8857456752928,0.0289208961342967,0.00928713896601074,,
99.3728675751711,0.0245149686344179,0.00912616492202689,,
99.8599894750494,0.0201672977988988,0.00891917381668694,,
100.347111374928,0.015814976128654,0.00875557956539419,,
100.834233274806,0.0114776649723815,0.00855646489812134,,
101.321355174684,0.0070278521078641,0.00837534899896042,,
101.808477074563,0.00267061510044481,0.00820601085257167,,
102.295598974441,-0.00172753161906357,0.00797274386548841,,
102.782720874319,-0.0060936294585194,0.00782081401795942,,
103.269842774197,-0.0104829153459912,0.00762801789889433,,
103.756964674076,-0.0148295722554565,0.00745622034262716,,
104.244086573954,-0.0192000343853183,0.00726269404506708,,
104.731208473832,-0.0236006497943493,0.00706052159059256,,
105.218330373711,-0.0279388426254513,0.00687078325872914,,
105.705452273589,-0.0322849705300188,0.0066508730024637,,
106.192574173467,-0.0366057061994966,0.00645614467821032,,
106.679696073345,-0.040935963957133,0.00623869383182329,,
107.166817973224,-0.0452461195286566,0.00607772505988624,,
107.653939873102,-0.0495527043171208,0.00584769774562233,,
108.14106177298,-0.0538817718137374,0.00563912502621244,,
108.628183672859,-0.0581686511697621,0.00546733274199251,,
109.115305572737,-0.0624665955448971,0.00522429928802914,,
109.602427472615,-0.0668713107418853,0.00502741996864087,,
110.089549372493,-0.0709649269752822,0.00480782867121299,,
110.576671272372,-0.0751963930682725,0.00462059719764962,,
111.06379317225,-0.0794431121358132,0.00438382957142558,,
111.550915072128,-0.0835435613491388,0.00417414181409681,,
112.038036972007,-0.0877541758324112,0.00396278018187823,,
112.525158871885,-0.0919690664386068,0.00372441248942001,,
113.012280771763,-0.0960495898007856,0.00353243617364774,,
113.499402671641,-0.100227714566591,0.00332333361352521,,
113.98652457152,-0.10431780410067,0.00310019950058127,,
114.473646471398,-0.108359754189058,0.00286238273702422,,
114.960768371276,-0.112331346626051,0.0026430181376127,,
115.447890271155,-0.116408916377551,0.00242565427999963,,
115.935012171033,-0.120249844604811,0.00224710323165489,,
116.422134070911,-0.12429690840721,0.00200031608029994,,
116.90925597079,-0.128016870847863,0.00177178339133155,,
117.396377870668,-0.131937987400867,0.00155466204787569,,
117.883499770546,-0.135905920887318,0.00133704249598754,,
118.370621670424,-0.139766774965725,0.00113037562153195,,
118.857743570303,-0.143373354023303,0.000912671716894131,,
119.344865470181,-0.147209212620294,0.000655746419352177,,
119.831987370059,-0.150874643472741,0.000457462099465733,,
120.319109269938,-0.154555768137153,0.000218859800920956,,
120.806231169816,-0.158329027821249,1.80462165344508E-05,,
121.293353069694,-0.161979161615405,-0.000212667781838149,,
121.780474969572,-0.16542580485891,-0.000437056641943823,,
122.267596869451,-0.169078980431227,-0.000673161308270664,,
122.754718769329,-0.172429653369541,-0.000888343856479512,,
123.241840669207,-0.175923510300166,-0.00111606465022529,,
123.728962569086,-0.179551161386169,-0.00133016379279649,,
124.216084468964,-0.182727968048104,-0.00154587354569546,,
124.703206368842,-0.186075511040773,-0.00176134210244827,,
125.19032826872,-0.189429049422283,-0.00196549552854508,,
125.677450168599,-0.192754065623058,-0.00219145677663857,,
126.164572068477,-0.195889786237938,-0.0024216145740632,,
126.651693968355,-0.198959777994278,-0.00263889539693807,,
127.138815868234,-0.202025008706539,-0.00285387892537647,,
127.625937768112,-0.205188634329773,-0.00303685058504533,,
128.11305966799,-0.208116147433665,-0.00328380380587801,,
128.600181567868,-0.211127595981326,-0.00350518759925178,,
129.087303467747,-0.213986691118449,-0.00372056125916043,,
129.574425367625,-0.2167623798167,-0.00392672992518417,,
130.061547267503,-0.21958197592146,-0.00413368017216076,,
130.548669167382,-0.222580507932869,-0.00435666534977974,,
131.03579106726,-0.225198729506571,-0.00457906269416952,,
131.522912967138,-0.227803241036673,-0.00476415108066819,,
132.010034867016,-0.230216914049929,-0.00496939318444944,,
132.497156766895,-0.23294269995283,-0.00516479764871791,,
132.984278666773,-0.235274553541908,-0.00537841967104447,,
133.471400566651,-0.237867559215486,-0.00560620372935317,,
133.95852246653,-0.240297631380571,-0.00580490717696813,,
134.445644366408,-0.242524036660039,-0.00599792735802618,,
134.932766266286,-0.244557178816881,-0.00621324829746639,,
135.419888166165,-0.247029747708748,-0.00638556910438792,,
135.907010066043,-0.249086518751019,-0.00659138190724606,,
136.394131965921,-0.251348940447274,-0.00677211690101842,,
136.881253865799,-0.253400553691793,-0.00697174822888735,,
137.368375765678,-0.25509442737424,-0.00716373377074175,,
137.855497665556,-0.257195987497851,-0.00735427740776906,,
138.342619565434,-0.259124518936171,-0.00751738267671165,,
138.829741465313,-0.26076853390701,-0.00771488541564569,,
139.316863365191,-0.262536997280033,-0.00792529412538778,,
139.803985265069,-0.26393233586521,-0.00805945585685608,,
140.291107164947,-0.265809597912194,-0.00825450050392318,,
140.778229064826,-0.267362579956886,-0.00841556153668099,,
141.265350964704,-0.268807071913807,-0.00858489968306975,,
141.752472864582,-0.270234194876588,-0.0087954546921134,,
142.239594764461,-0.271689134680239,-0.00896546766050532,,
142.726716664339,-0.272776768749917,-0.00912191038017962,,
143.213838564217,-0.274200497264604,-0.00928458597730009,,
143.700960464095,-0.275389744358383,-0.00946523661832188,,
144.188082363974,-0.27620031211289,-0.00961163213461891,,
144.675204263852,-0.27758083856093,-0.00977703601600943,,
145.16232616373,-0.278379812291429,-0.00991848371629223,,
145.649448063609,-0.278990989283242,-0.0100815191306132,,
146.136569963487,-0.279995745918948,-0.0102386248101851,,
146.623691863365,-0.281026247459674,-0.0103938668211785,,
147.110813763243,-0.281622391895645,-0.0104957530815324,,
147.597935663122,-0.282203636026997,-0.0106678234662265,,
148.085057563,-0.282616039428498,-0.0108233369876349,,
148.572179462878,-0.283220030770452,-0.0109591765480288,,
149.059301362757,-0.283617842453525,-0.0110955538572068,,
149.546423262635,-0.284011995186055,-0.0112330382962331,,
150.033545162513,-0.284047218095494,-0.0113483590500971,,
150.520667062392,-0.284522617163564,-0.011447578972732,,
151.00778896227,-0.284616471449165,-0.0115909048397222,,
151.494910862148,-0.284736026556046,-0.0117275141189634,,
151.982032762026,-0.2850824806803,-0.0118271768935379,,
152.469154661905,-0.284810748497846,-0.0119770400986825,,
152.956276561783,-0.284717819970817,-0.0120844106058233,,
153.443398461661,-0.284521735488734,-0.0121824812222342,,
153.93052036154,-0.284130095529468,-0.0123073022046096,,
154.417642261418,-0.283989247975454,-0.0124039915447334,,
154.904764161296,-0.2835794455147,-0.0125024312044273,,
155.391886061174,-0.283115243716965,-0.0125879438051255,,
155.879007961053,-0.282693141892339,-0.0126930578761932,,
156.366129860931,-0.28239826574561,-0.012776999406916,,
156.853251760809,-0.281414184384657,-0.0128637140343071,,
157.340373660688,-0.280876539073624,-0.012966835271647,,
157.827495560566,-0.280237148487266,-0.0130460635924421,,
158.314617460444,-0.279311037246353,-0.0131156967878812,,
158.801739360322,-0.278227987885788,-0.0131951887110207,,
159.288861260201,-0.277390749467689,-0.0132760619104482,,
159.775983160079,-0.276019392437875,-0.0133622177008679,,
160.263105059957,-0.275098967999612,-0.0134196724679709,,
160.750226959836,-0.273919639747665,-0.0134591284669612,,
161.237348859714,-0.272706455182264,-0.0135164145285636,,
161.724470759592,-0.271468848224086,-0.0135844450217455,,
162.21159265947,-0.270186187682121,-0.0136526020440528,,
162.698714559349,-0.268615792559546,-0.0137019694912128,,
163.185836459227,-0.267350060174307,-0.0137364065015557,,
163.672958359105,-0.26560328600209,-0.0137840763496144,,
164.160080258984,-0.26442360508021,-0.0137983319644288,,
164.647202158862,-0.262372829426779,-0.0138533088694892,,
165.13432405874,-0.260696104319766,-0.0138812718062402,,
165.621445958618,-0.258981555362567,-0.0139363541522388,,
166.108567858497,-0.257194224148192,-0.0139381677363719,,
166.595689758375,-0.255083494606354,-0.0139959282821951,,
167.082811658253,-0.253236562173505,-0.0139738805820642,,
167.569933558132,-0.251149329265873,-0.014016816132008,,
168.05705545801,-0.249089736864147,-0.0140208123435572,,
168.544177357888,-0.247141676328353,-0.0140257786117362,,
