Time domain (s),Current (AC) (A),Potential (AC) (V),Frequency (Hz),Column 5
0,-0.368314411575102,-0.0115308808696164,0.039811,0.4
0.0613249164803698,-0.367495381222074,-0.0115426947200894,,
0.12264983296074,-0.366303637719855,-0.0115686060569216,,
0.183974749441109,-0.365368582183373,-0.0115670097289233,,
0.245299665921479,-0.363927498771208,-0.0115576074252339,,
0.306624582401849,-0.36205164510002,-0.0115566387133716,,
0.367949498882219,-0.360651439107464,-0.0115420261724659,,
0.429274415362588,-0.359226533767713,-0.0115472790466478,,
0.490599331842958,-0.357740621040386,-0.0115469652385798,,
0.551924248323328,-0.355873103398877,-0.0115164030615222,,
0.613249164803698,-0.354071039027439,-0.011532709142708,,
0.674574081284067,-0.352180057006093,-0.011475841663255,,
0.735898997764437,-0.350368853876192,-0.0114991572616114,,
0.797223914244807,-0.34796826257382,-0.0114978082280146,,
0.858548830725177,-0.346228502305684,-0.0114370505518058,,
0.919873747205546,-0.343482675877877,-0.0114291644186184,,
0.981198663685916,-0.341560325685592,-0.0113698973307321,,
1.04252358016629,-0.339036299395607,-0.0113425005220131,,
1.10384849664666,-0.336603722438616,-0.0113242723664109,,
1.16517341312703,-0.334083833289286,-0.0112754547460932,,
1.2264983296074,-0.331152761757507,-0.0112684691056231,,
1.28782324608776,-0.328828491437971,-0.0111760458076824,,
1.34914816256813,-0.325767069101364,-0.0111488945878859,,
1.4104730790485,-0.322876010512042,-0.011100129837406,,
1.47179799552887,-0.320154142451015,-0.0110491718414072,,
1.53312291200924,-0.317186330640281,-0.011011514873247,,
1.59444782848961,-0.313870134537344,-0.0109479465682552,,
1.65577274496998,-0.310800993654738,-0.0108710260710652,,
1.71709766145035,-0.307704930483687,-0.010819082308418,,
1.77842257793072,-0.304130502705813,-0.0107625013493746,,
1.83974749441109,-0.301069697852886,-0.0107079533208587,,
1.90107241089146,-0.29739023610106,-0.0106472792131025,,
1.96239732737183,-0.293630748464318,-0.0105427265511424,,
2.0237222438522,-0.290247678878847,-0.0104760082271196,,
2.08504716033257,-0.286706595219688,-0.0104077754380731,,
2.14637207681294,-0.282779090273644,-0.0103202093432722,,
2.20769699329331,-0.279039547359763,-0.0102501499866126,,
2.26902190977368,-0.275365581212689,-0.0101749162077884,,
2.33034682625405,-0.271345577211394,-0.0100724646955008,,
2.39167174273442,-0.26741961597455,-0.00998035691110699,,
2.45299665921479,-0.26339578357444,-0.00991403425812676,,
2.51432157569516,-0.259101061083956,-0.00983135094864451,,
2.57564649217553,-0.255107176642321,-0.00973906408899428,,
2.6369714086559,-0.251007578994687,-0.00961489160086959,,
2.69829632513627,-0.246298154464778,-0.00951182611627521,,
2.75962124161664,-0.24222078622962,-0.00941490035475034,,
2.82094615809701,-0.237693148895075,-0.00932943540962228,,
2.88227107457738,-0.233359833674596,-0.00921080231608906,,
2.94359599105775,-0.228887337632666,-0.00911240302102767,,
3.00492090753812,-0.224194461665378,-0.00899232368161584,,
3.06624582401849,-0.219540116679716,-0.0088768951824294,,
3.12757074049886,-0.214855823735579,-0.00876299820305304,,
3.18889565697923,-0.210223769910761,-0.00866638624959615,,
3.2502205734596,-0.205542008649711,-0.00856259764206246,,
3.31154548993997,-0.200703653527437,-0.00840995048272397,,
3.37287040642034,-0.195682770229383,-0.00829370505927374,,
3.43419532290071,-0.190594704706955,-0.00819099431423442,,
3.49552023938108,-0.185853665012634,-0.00803113127481048,,
3.55684515586145,-0.180834016681939,-0.0079083061148042,,
3.61817007234182,-0.175731872531609,-0.00778454464702927,,
3.67949498882219,-0.170698145573013,-0.00764764246640715,,
3.74081990530255,-0.165571240327118,-0.00752117781500283,,
3.80214482178292,-0.160438283741161,-0.00738526992842248,,
3.86346973826329,-0.155226783231119,-0.00724759175502321,,
3.92479465474366,-0.149948470986912,-0.00709814919003149,,
3.98611957122403,-0.144667812304721,-0.00697200005217402,,
4.0474444877044,-0.139315957754237,-0.00685338060246998,,
4.10876940418477,-0.133970216292183,-0.00670170215499377,,
4.17009432066514,-0.12864997690611,-0.00654864568078395,,
4.23141923714551,-0.123203523855864,-0.00640208366919914,,
4.29274415362588,-0.117733791670886,-0.00624643657294977,,
4.35406907010625,-0.112273568734578,-0.006079448043808,,
4.41539398658662,-0.106830820586412,-0.00592700554190495,,
4.47671890306699,-0.101198813690354,-0.00579779848086348,,
4.53804381954736,-0.0956602938234342,-0.00564393702074018,,
4.59936873602773,-0.0901758037785061,-0.00549504191438865,,
4.6606936525081,-0.0844956949037837,-0.00534631053398549,,
4.72201856898847,-0.0789710066712937,-0.00516922727683022,,
4.78334348546884,-0.0732952819306986,-0.00502106893724719,,
4.84466840194921,-0.0676806263260462,-0.00487067300970079,,
4.90599331842958,-0.0620709105908331,-0.00469122937012134,,
4.96731823490995,-0.0563218905374331,-0.00453324917910525,,
5.02864315139032,-0.0506072025766359,-0.00437420135846711,,
5.08996806787069,-0.0449387023950957,-0.0041896139953379,,
5.15129298435106,-0.039260075481205,-0.00405698233320617,,
5.21261790083143,-0.0334535059488378,-0.00386472713815467,,
5.2739428173118,-0.0277444988378957,-0.00370160151811083,,
5.33526773379217,-0.0220221540794677,-0.00352487129503176,,
5.39659265027254,-0.0162385549399929,-0.00334736678465486,,
5.45791756675291,-0.0104918195762086,-0.00318930473066503,,
5.51924248323328,-0.00466962770673971,-0.00301909625786889,,
5.58056739971365,0.00102011391338927,-0.00286070504650304,,
5.64189231619402,0.00678444756205094,-0.00266476601760957,,
5.70321723267439,0.0125246067246443,-0.00251330587139798,,
5.76454214915476,0.0182773008059397,-0.00233989280425551,,
5.82586706563513,0.0240122422314378,-0.00214633973996614,,
5.8871919821155,0.0297306350943145,-0.0019788088686199,,
5.94851689859587,0.0354690035542361,-0.00182368023787438,,
6.00984181507624,0.0412081747429415,-0.00161537819438884,,
6.07116673155661,0.0468312589998246,-0.00148074088938754,,
6.13249164803698,0.0525498988561732,-0.00129288071276656,,
6.19381656451734,0.0581956447641089,-0.00110179718153436,,
6.25514148099771,0.0639187305029528,-0.000928767847083289,,
6.31646639747808,0.0695692001610397,-0.000747112201719968,,
6.37779131395845,0.0752806772067014,-0.000587506689569306,,
6.43911623043882,0.0808708804576295,-0.000414340916828237,,
6.50044114691919,0.0864734642563397,-0.000260844429131879,,
6.56176606339956,0.0920134660840914,-6.84272136104447E-05,,
6.62309097987993,0.0975646752406334,0.000118206723875414,,
6.6844158963603,0.103100786921202,0.000293871022809977,,
6.74574081284067,0.108591945789873,0.00048762703905636,,
6.80706572932104,0.114083351652016,0.000650466138690575,,
6.86839064580141,0.119716778760537,0.000819895207752275,,
6.92971556228178,0.125093826645162,0.000991070686931828,,
6.99104047876215,0.130402951324996,0.00114892978896508,,
7.05236539524252,0.135857061172873,0.00134931670612648,,
7.11369031172289,0.141119257093035,0.00153142430332709,,
7.17501522820326,0.146392567719435,0.00172536451126559,,
7.23634014468363,0.151587118302463,0.00185407016158967,,
7.297665061164,0.156996213590075,0.00204525772701869,,
7.35898997764437,0.162001814167052,0.00221646390481345,,
7.42031489412474,0.167167682633148,0.0024247096675043,,
7.48163981060511,0.172397769401955,0.00256110702645174,,
7.54296472708548,0.177389507470318,0.00274420721221524,,
7.60428964356585,0.182530182602274,0.0029239339612479,,
7.66561456004622,0.187533776357291,0.00307688810673978,,
7.72693947652659,0.192543822816763,0.00325615096558485,,
7.78826439300696,0.197286807584676,0.00341724365510121,,
7.84958930948733,0.202186417087996,0.00358809168238361,,
7.9109142259677,0.20700081384349,0.00377221174436793,,
7.97223914244807,0.211763341969872,0.00393130220197202,,
8.03356405892844,0.216357914535319,0.00408546382633412,,
8.09488897540881,0.221109574948934,0.00425172752705816,,
8.15621389188918,0.225606091106012,0.00442486771761974,,
8.21753880836955,0.230260436091674,0.00458129421760312,,
8.27886372484992,0.234594924531145,0.0047469303021912,,
8.34018864133029,0.239146304113182,0.00491256638677884,,
8.40151355781066,0.243427658081997,0.0050807947988849,,
8.46283847429103,0.247965700016549,0.00521556854217664,,
8.5241633907714,0.252232481370517,0.0053614995266682,,
8.58548830725177,0.256384935621152,0.00552446483172098,,
8.64681322373213,0.260473418562547,0.00568037627715778,,
8.7081381402125,0.264590552746691,0.00582301909884997,,
8.76946305669287,0.26858122627319,0.00597016779508408,,
8.83078797317324,0.272507187510034,0.00613858380983956,,
8.89211288965361,0.276544295809262,0.00631215037005894,,
8.95343780613398,0.280295138674485,0.00643274817497419,,
9.01476272261435,0.2840425236311,0.00658105659667685,,
9.07608763909472,0.287840542249468,0.00672689889627964,,
9.13741255557509,0.291434544259995,0.00686866851291335,,
9.19873747205546,0.294816131884634,0.00702349868489849,,
9.26006238853583,0.298538817494054,0.00717218913381457,,
9.3213873050162,0.301930284857571,0.00730932325953049,,
9.38271222149657,0.305011775413776,0.00742068078122582,,
9.44403713797694,0.308540818141177,0.00756087453560506,,
9.50536205445731,0.311300723196886,0.00767885613630126,,
9.56668697093768,0.314583019445796,0.00779118236985887,,
9.62801188741805,0.317565712613216,0.00796058415126266,,
9.68933680389842,0.320637323430542,0.00807199624827426,,
9.75066172037879,0.323727211764793,0.00820746923780424,,
9.81198663685916,0.32638239158839,0.00830634265592511,,
9.87331155333953,0.329062270759184,0.0084441896717089,,
9.9346364698199,0.331794759539505,0.00856635651696402,,
9.99596138630027,0.33463716041485,0.00866288660744674,,
10.0572863027806,0.336992490163485,0.00879644604995322,,
10.118611219261,0.339151954088853,0.00886149982683238,,
10.1799361357414,0.341820471559937,0.00900035307500779,,
10.2412610522217,0.344197783727576,0.00912704626054861,,
10.3025859687021,0.346402447458314,0.00923849246713271,,
10.3639108851825,0.348489295302925,0.00930721643402466,,
10.4252358016629,0.350541564061462,0.00943585045424689,,
10.4865607181432,0.352365116864961,0.00952585879444667,,
10.5478856346236,0.35452087588825,0.00963266268819885,,
10.609210551104,0.356003577700441,0.00972117020720376,,
10.6705354675843,0.357829353445188,0.00980666243999018,,
10.7318603840647,0.359184112638903,0.0099091378289784,,
10.7931853005451,0.360959748708842,0.00998028016456853,,
10.8545102170254,0.362398485683023,0.0100849146895028,,
10.9158351335058,0.363676182913486,0.0101674086908572,,
10.9771600499862,0.364984260340999,0.0102404031762395,,
11.0384849664666,0.366183413647377,0.0103326320496162,,
11.0998098829469,0.367224491131699,0.0104089556292855,,
11.1611347994273,0.368250996001176,0.0104657139581064,,
11.2224597159077,0.369299730283129,0.0105244779297968,,
11.283784632388,0.370216817044526,0.0106028071523352,,
11.3451095488684,0.3712556715876,0.0106706545032114,,
11.4064344653488,0.371466110025712,0.0107731503579429,,
11.4677593818291,0.37250669352309,0.0108157702689176,,
11.5290842983095,0.372582026532039,0.0108614122880253,,
11.5904092147899,0.373102935764408,0.010903981034641,,
11.6517341312703,0.373508746038842,0.010985076543518,,
11.7130590477506,0.373556415778931,0.0110160139258744,,
11.774383964231,0.373948888405879,0.0110679014077264,,
11.8357088807114,0.373958274157814,0.0111169100416508,,
11.8970337971917,0.37353863224895,0.0111614810201783,,
11.9583587136721,0.373719678463898,0.0111803811343609,,
12.0196836301525,0.373367959759824,0.0112252249894698,,
12.0810085466328,0.373528011529655,0.0112391280512649,,
12.1423334631132,0.373051808115711,0.0112851520975861,,
12.2036583795936,0.372477301299927,0.0113155744253954,,
12.264983296074,0.371806714023548,0.0113666705651636,,
12.3263082125543,0.371448573489203,0.0114030586572222,,
12.3876331290347,0.370455906725385,0.0114229240723098,,
12.4489580455151,0.369673925393152,0.0114193766767583,,
12.5102829619954,0.36883167765376,0.0114435671856525,,
12.5716078784758,0.368048708347638,0.0114524083868726,,
12.6329327949562,0.366889567983718,0.0114554509607494,,
12.6942577114365,0.365555556241649,0.0115162069314798,,
12.7555826279169,0.364574004184069,0.0114711550079782,,
12.8169075443973,0.36282973628507,0.0115050599231514,,
12.8782324608776,0.361674300823229,0.0114554373169202,,
12.939557377358,0.360267919993875,0.0114856720420806,,
13.0008822938384,0.358593551247441,0.0114738837737871,,
13.0622072103188,0.356771480404773,0.0114379322842573,,
13.1235321267991,0.355101557540834,0.0114614815331864,,
13.1848570432795,0.353605518081157,0.0114429395695166,,
13.2461819597599,0.351515953308354,0.0114217234153537,,
13.3075068762402,0.349542722460845,0.0114046959167076,,
13.3688317927206,0.347510213180066,0.0113679394412642,,
13.430156709201,0.345297398664753,0.0113721553844388,,
13.4914816256813,0.343040619311432,0.0113309100892405,,
13.5528065421617,0.34068825348446,0.0112929666006707,,
13.6141314586421,0.338444564785153,0.0112693388997247,,
13.6754563751225,0.33570688914192,0.0112212682790469,,
13.7367812916028,0.333390090374911,0.0111998611112778,,
13.7981062080832,0.330428885639553,0.0111802583398997,,
13.8594311245636,0.327802851045647,0.0111170055484542,,
13.9207560410439,0.325100989455849,0.0110302819600965,,
13.9820809575243,0.322267480345494,0.0110105563942571,,
14.0434058740047,0.319312697440407,0.0109571749131243,,
14.104730790485,0.316175139366067,0.010891742519989,,
14.1660557069654,0.312950145602652,0.0108659283954387,,
14.2273806234458,0.31017986682112,0.0107813230115403,,
14.2887055399262,0.306700963768528,0.0107373489505331,,
14.3500304564065,0.303593538897767,0.0106907825620075,,
14.4113553728869,0.299933095643282,0.0106053721921953,,
14.4726802893673,0.296735518155255,0.0105334828569652,,
14.5340052058476,0.29306494816842,0.0104571729211251,,
14.595330122328,0.289622600149678,0.0103710257845449,,
14.6566550388084,0.286215325203955,0.0103027111325242,,
14.7179799552887,0.282260218737419,0.0102233483899354,,
14.7793048717691,0.278453061360588,0.010117277851994,,
14.8406297882495,0.274578721759384,0.0100610072900618,,
14.9019547047299,0.270470973327175,0.00996625430831166,,
14.9632796212102,0.266793487523125,0.00989076300221425,,
15.0246045376906,0.262615345951407,0.00982912018259574,,
15.085929454171,0.258536742748889,0.00970200062739801,,
15.1472543706513,0.254426277388489,0.00964546059984173,,
15.2085792871317,0.250005866094959,0.00954853483831686,,
15.2699042036121,0.245738282012206,0.00941915040749741,,
15.3312291200924,0.241486073273083,0.00929003885325885,,
15.3925540365728,0.237060629487563,0.00921581642326252,,
15.4538789530532,0.232536017823049,0.0091238843031678,,
15.5152038695335,0.22809652628381,0.00901538857461404,,
15.5765287860139,0.223535050843606,0.00888507636341984,,
15.6378537024943,0.218807348796771,0.00877479329326114,,
15.6991786189747,0.214079615875752,0.00862909084290608,,
15.760503535455,0.209507828458094,0.00851560147292219,,
15.8218284519354,0.204679075207042,0.00841276793342161,,
15.8831533684158,0.199810833874661,0.00828504463878854,,
15.9444782848961,0.194902548725637,0.00818185635973245,,
16.0058032013765,0.190182287357145,0.00804815024606365,,
16.0671281178569,0.185092492880413,0.00793096339840949,,
16.1284530343372,0.180293656713653,0.00778923130230558,,
16.1897779508176,0.175001574583384,0.00769132318508969,,
16.251102867298,0.169888315726815,0.00751115983352779,,
16.3124277837784,0.164786418569957,0.00740014681851564,,
16.3737527002587,0.159626230953716,0.00725005446616533,,
16.4350776167391,0.154449000787909,0.00711497714767795,,
16.4964025332195,0.149176647261213,0.00698225338970015,,
16.5577274496998,0.143822600643665,0.0068162352778991,,
16.6190523661802,0.13855620583448,0.00671015450708623,,
16.6803772826606,0.133198423440668,0.00655587349921971,,
16.7417021991409,0.127858424576838,0.00641307036253602,,
16.8030271156213,0.122335897537228,0.00623518553042457,,
16.8643520321017,0.117014917170739,0.00612483424112087,,
16.9256769485821,0.111470901699068,0.00596303207249438,,
16.9870018650624,0.105975543941374,0.00581580151328609,,
17.0483267815428,0.100428564548039,0.00566495875033857,,
17.1096516980232,0.0948912179001109,0.00551167715294998,,
17.1709766145035,0.0892743393542109,0.00535280840756736,,
17.2323015309839,0.0837725597662454,0.00520903314806453,,
17.2936264474643,0.0781278018321976,0.00503033991908231,,
17.3549513639446,0.0725884483623098,0.00488203149737965,,
17.416276280425,0.0668799043641277,0.00473638021138312,,
17.4776011969054,0.0611872296965191,0.00457085668838486,,
17.5389261133857,0.0554016546092687,0.00438817946132186,,
17.6002510298661,0.049769215474635,0.00424220413438592,,
17.6615759463465,0.0441254146402911,0.00406583035634078,,
17.7229008628269,0.0384418478569611,0.00391479657978655,,
17.7842257793072,0.0326488629655518,0.00374952205666856,,
17.8455506957876,0.0269610972931985,0.00358198947984389,,
17.906875612268,0.0212251678938126,0.00341379176635304,,
17.9682005287483,0.0155045520896883,0.00324358499903576,,
18.0295254452287,0.00975330909504062,0.0030803809269746,,
18.0908503617091,0.00399836119831353,0.00291386822637074,,
18.1521752781894,-0.00180796134058177,0.00273709877728345,,
18.2135001946698,-0.00753870387705653,0.00256399951820896,,
18.2748251111502,-0.013337184373217,0.0023593557263859,,
18.3361500276306,-0.0190322363529932,0.00221401142654321,,
18.3974749441109,-0.0248173792016677,0.0020184237262475,,
18.4587998605913,-0.0305804778829696,0.00186087843228266,,
18.5201247770717,-0.0362882500265518,0.00168166673779657,,
18.581449693552,-0.0420301072692649,0.001509577122071,,
18.6427746100324,-0.0476655103255621,0.00134208547673342,,
18.7040995265128,-0.0533677868643932,0.00117602643344528,,
18.7654244429931,-0.0590738918020397,0.000980251130500154,,
18.8267493594735,-0.0647606695005051,0.000817139154285496,,
18.8880742759539,-0.0703968135372182,0.000648528714966456,,
18.9493991924343,-0.076100880778721,0.000475252086113986,,
19.0107241089146,-0.0816922572486409,0.000296589555746962,,
19.072049025395,-0.0873724278717313,0.000127713061761625,,
19.1333739418754,-0.0929315099451921,-8.77468755358102E-05,,
19.1946988583557,-0.0984742904495034,-0.000266165522458728,,
19.2560237748361,-0.103933587160291,-0.000415471649160004,,
19.3173486913165,-0.10950378393999,-0.000585310033093478,,
19.3786736077968,-0.114909483067363,-0.000770579587674902,,
19.4399985242772,-0.120463810516488,-0.000974841352284539,,
19.5013234407576,-0.125954537146583,-0.00112717470355506,,
19.562648357238,-0.131304662742764,-0.00131910244670985,,
19.6239732737183,-0.136532032583379,-0.00149000504930807,,
19.6852981901987,-0.141902905631204,-0.00168212380606958,,
19.7466231066791,-0.147119160765581,-0.00184148372929727,,
19.8079480231594,-0.152338379821621,-0.00198670864563599,,
19.8692729396398,-0.157789093509259,-0.00217351995289938,,
19.9305978561202,-0.162907230486898,-0.00236081049965797,,
19.9919227726005,-0.168050622547046,-0.00252969211007947,,
20.0532476890809,-0.173258479903376,-0.0027246078517944,,
20.1145726055613,-0.178276399279767,-0.00286694027637591,,
20.1758975220416,-0.183220220614569,-0.00304362786248902,,
20.237222438522,-0.188326131415347,-0.0032218572012841,,
20.2985473550024,-0.19312885772929,-0.00337586874352658,,
20.3598722714828,-0.198143566190546,-0.00354405622414555,,
20.4211971879631,-0.20302002005587,-0.00371468595016333,,
20.4825221044435,-0.207729629830884,-0.00389135989244727,,
20.5438470209239,-0.212559093188167,-0.0040414010804386,,
20.6051719374042,-0.217176636146507,-0.004209395841972,,
20.6664968538846,-0.221851728583814,-0.00438051845131415,,
20.727821770365,-0.226334660099934,-0.00454140648339463,,
20.7891466868453,-0.231001601752666,-0.00468732723501475,,
20.8504716033257,-0.235507503661678,-0.00485165351201422,,
20.9117965198061,-0.240063545245499,-0.00505410064736145,,
20.9731214362865,-0.244277006883708,-0.00519467301799637,,
21.0344463527668,-0.248621313313689,-0.00535706187127172,,
21.0957712692472,-0.25286422892343,-0.00549336372341624,,
21.1570961857276,-0.257077196574695,-0.00567988680479115,,
