Time domain (s),Current (AC) (A),Potential (AC) (V),Frequency (Hz),Column 5
0,-0.182969676611447,-0.00405624504808921,199.53,0.4
0.000156618052423195,-0.11603197577488,-0.00290672799957825,,
0.000313236104846389,-0.0446646940121373,-0.00167154207997022,,
0.000469854157269584,0.028012888119367,-0.000352695004553816,,
0.000626472209692778,0.100534370376591,0.000936990516723579,,
0.000783090262115973,0.168741092797917,0.00225252724394798,,
0.000939708314539167,0.230280782178927,0.00341868450900806,,
0.00109632636696236,0.282948188179386,0.00452613481785047,,
0.00125294441938556,0.32453966591663,0.00540872373663381,,
0.00140956247180875,0.354156406146186,0.00608531153861058,,
0.00156618052423195,0.369624619321311,0.00651455698394177,,
0.00172279857665514,0.370957149102549,0.0067354002210962,,
0.00187941662907833,0.358377277588553,0.0066633919809429,,
0.00203603468150153,0.332481494014113,0.00637053505898288,,
0.00219265273392472,0.293063805823612,0.00582800819180518,,
0.00234927078634792,0.242782140643023,0.00503278415310193,,
0.00250588883877111,0.183086504523685,0.00405199549749069,,
0.00266250689119431,0.11637677866174,0.00294108239021096,,
0.0028191249436175,0.0451060713465343,0.00169191324404983,,
0.0029757429960407,-0.0276821638604092,0.000412866572060189,,
0.00313236104846389,-0.100295280695731,-0.000921857107513802,,
0.00328897910088708,-0.168625777720695,-0.0022272014468836,,
0.00344559715331028,-0.230169635116544,-0.00340118812098966,,
0.00360221520573347,-0.283150228839452,-0.00445575180620894,,
0.00375883325815667,-0.324882986842658,-0.00535945508401969,,
0.00391545131057986,-0.354347085106541,-0.00604059189243467,,
0.00407206936300306,-0.370222590516933,-0.00649155060847262,,
0.00422868741542625,-0.37178161331196,-0.00671568377637533,,
0.00438530546784945,-0.359277074806913,-0.00662914648334301,,
0.00454192352027264,-0.332678347811267,-0.00633253411292012,,
0.00469854157269583,-0.293231020404131,-0.00579412476353891,,
0.00485515962511903,-0.242677137543255,-0.00501202233526765,,
0.00501177767754222,-0.182753310330008,-0.00406890930778436,,
0.00516839572996542,-0.115959421442491,-0.0029257938084295,,
0.00532501378238861,-0.0446428968382366,-0.00168668773964642,,
0.00548163183481181,0.0280874801478997,-0.000405943697511013,,
0.005638249887235,0.100472128021656,0.000900696468947526,,
0.0057948679396582,0.168768292954017,0.00215884656797494,,
0.00595148599208139,0.230415640614619,0.00341057470040251,,
0.00610810404450459,0.283163072499994,0.00447525182602737,,
0.00626472209692778,0.324537442975382,0.00535624001723134,,
0.00642134014935097,0.353652045476438,0.00605993946200734,,
0.00657795820177417,0.369726874618704,0.00650634644928116,,
0.00673457625419736,0.371001360934031,0.00671654267017052,,
0.00689119430662056,0.358727514331796,0.00666668055052844,,
0.00704781235904375,0.332162872435282,0.0063536130817119,,
0.00720443041146695,0.293263376548958,0.00580445462884693,,
0.00736104846389014,0.242921691954682,0.00504007998628797,,
0.00751766651631334,0.183209013285779,0.00406733852578878,,
0.00767428456873653,0.116422225460581,0.00292794716814937,,
0.00783090262115973,0.0450774201037867,0.00172010565019809,,
0.00798752067358292,-0.0277177309203718,0.000393102486637709,,
0.00814413872600611,-0.10034418540318,-0.0009224669084964,,
0.00830075677842931,-0.168672459486896,-0.00220478037146465,,
0.0084573748308525,-0.230325487997352,-0.00341561644781363,,
0.0086139928832757,-0.282945965238139,-0.00446002041308802,,
0.00877061093569889,-0.32502828075254,-0.00537609393940564,,
0.00892722898812209,-0.354324855694064,-0.0060565215819457,,
0.00908384704054528,-0.37021345175847,-0.00651069400360926,,
0.00924046509296847,-0.371658425317819,-0.0067076379424269,,
0.00939708314539167,-0.35927929774816,-0.00665323498332393,,
0.00955370119781486,-0.332687424821362,-0.00636922970375453,,
0.00971031925023806,-0.293332781714579,-0.00579415743144862,,
0.00986693730266125,-0.242719126433488,-0.00499065616110261,,
0.0100235553550844,-0.1829348505319,-0.00405650639136779,,
0.0101801734075076,-0.11599418577367,-0.00291175885768613,,
0.0103367914599308,-0.0447350254032786,-0.00168145134593978,,
0.010493409512354,0.0280427743294745,-0.000381291676085915,,
0.0106500275647772,0.100401734882147,0.000907338943938019,,
0.0108066456172004,0.168744550706525,0.00222626224447708,,
0.0109632636696236,0.230110850670217,0.00342849849357396,,
0.0111198817220468,0.283028708051246,0.00445167648446265,,
0.01127649977447,0.324741953570167,0.00539345965578475,,
0.0114331178268932,0.353902002870064,0.00605852385258343,,
0.0115897358793164,0.369670560107096,0.00653808876829354,,
0.0117463539317396,0.371251318327657,0.00673860439858176,,
0.0119029719841628,0.358616120275941,0.00668314517706214,,
0.012059590036586,0.332332803943992,0.00636757316849534,,
0.0122162080890092,0.293054667065149,0.00578396096010536,,
0.0123728261414324,0.242762381165266,0.00502479412683243,,
0.0125294441938556,0.183259152960587,0.00406556356935672,,
0.0126860622462788,0.116426177356132,0.0029241141334011,,
0.0128426802987019,0.0450798900385063,0.00167831250427408,,
0.0129992983511251,-0.0276841398081849,0.000393222268973759,,
0.0131559164035483,-0.100210314941376,-0.000932103941884144,,
0.0133125344559715,-0.168597126477947,-0.00223252631617932,,
0.0134691525083947,-0.230363277998563,-0.00340327886721647,,
0.0136257705608179,-0.282958747150313,-0.00446987523254094,,
0.0137823886132411,-0.325326587118302,-0.00535561252113048,,
0.0139390066656643,-0.354374254388456,-0.00602678425589698,,
0.0140956247180875,-0.370097364826648,-0.00647850658432603,,
0.0142522427705107,-0.371824590176082,-0.00670735345937912,,
0.0144088608229339,-0.358799389432137,-0.00664989196722221,,
0.0145654788753571,-0.3323565153173,-0.0063243344675632,,
0.0147220969277803,-0.293483694725948,-0.00577682029949056,,
0.0148787149802035,-0.242796003151637,-0.0050221044689267,,
0.0150353330326267,-0.182985484193653,-0.00405003814522953,,
0.0151919510850499,-0.115961644383739,-0.00292701477155788,,
0.0153485691374731,-0.0447264423801279,-0.00169805753341601,,
0.0155051871898963,0.0280405513882268,-0.000394836608182292,,
0.0156618052423195,0.100482501747479,0.000939495056474282,,
0.0158184232947426,0.168872987311945,0.00218792100768761,,
0.0159750413471658,0.23037686263952,0.00341372170904553,,
0.016131659399589,0.282912621119424,0.00452208671936205,,
0.0162882774520122,0.324546581733845,0.00538411663358485,,
0.0164448955044354,0.353897556987569,0.00604083962408364,,
0.0166015135568586,0.369868401878138,0.00654512325820145,,
0.0167581316092818,0.371384941795988,0.00671960256438719,,
0.016914749661705,0.359049840812707,0.0066753892708129,,
0.0170713677141282,0.33225327204602,0.00635531181302129,,
0.0172279857665514,0.293549147996019,0.00581118421826332,,
0.0173846038189746,0.242882142124984,0.00503311083219993,,
0.0175412218713978,0.183272737601545,0.00406393017386719,,
0.017697839923821,0.116270818462268,0.00292465859856428,,
0.0178544579762442,0.0450334552657773,0.00169806297806785,,
0.0180110760286674,-0.0277392193524325,0.000389106112339999,,
0.0181676940810906,-0.100324672918895,-0.000944082175473593,,
0.0183243121335138,-0.168541491198388,-0.00218891601777305,,
0.0184809301859369,-0.230284734074478,-0.00340321353139661,,
0.0186375482383601,-0.28285896178764,-0.00447099683077701,,
0.0187941662907833,-0.324924481745947,-0.00533975633441663,,
0.0189507843432065,-0.354461010845483,-0.00607238865796322,,
0.0191074023956297,-0.370169795662301,-0.00650554336316578,,
0.0192640204480529,-0.371861886190348,-0.0067179174447074,,
0.0194206385004761,-0.358906584598969,-0.0066624800017947,,
0.0195772565528993,-0.332623453512124,-0.00635885219774446,,
0.0197338746053225,-0.293389837206603,-0.00581099093313053,,
0.0198904926577457,-0.242567225448231,-0.00502761581754063,,
0.0200471107101689,-0.182817034645774,-0.00404674957564399,,
0.0202037287625921,-0.116065566887067,-0.00295049074823028,,
0.0203603468150153,-0.0446461077533721,-0.00170767142703454,,
0.0205169648674385,0.0280748834808296,-0.000390808927138053,,
0.0206735829198617,0.100432609066142,0.000924554932396848,,
0.0208302009722849,0.168704568638251,0.00220346004344396,,
0.0209868190247081,0.230369946822305,0.00342086236966033,,
0.0211434370771313,0.283135903218078,0.00448075092417533,,
0.0213000551295545,0.324571775067985,0.00539134713095191,,
0.0214566731819776,0.353915093524078,0.00605244489903667,,
0.0216132912344008,0.369725639651344,0.00652612414633325,,
0.021769909286824,0.371384447809044,0.00672558895885622,,
0.0219265273392472,0.358624518053988,0.00664236473634183,,
0.0220831453916704,0.332204367338571,0.00635648785777354,,
0.0222397634440936,0.293114933472308,0.00578612793145483,,
0.0223963814965168,0.243099249386839,0.00501791208717028,,
0.02255299954894,0.183226302828816,0.00402301633918167,,
0.0227096176013632,0.116387893367978,0.00294575117898477,,
0.0228662356537864,0.0450759381429549,0.00167417456903385,,
0.0230228537062096,-0.0276510426829419,0.000401172821518525,,
0.0231794717586328,-0.100342765190716,-0.000930230981722957,,
0.023336089811056,-0.168623060792503,-0.00221940470574689,,
0.0234927078634792,-0.230306716493483,-0.0034142757023492,,
0.0236493259159024,-0.28291212713248,-0.00449740339119042,,
0.0238059439683256,-0.324968261338853,-0.00537726045601783,,
0.0239625620207488,-0.354261625365242,-0.0060501295609301,,
0.024119180073172,-0.370224566464708,-0.00650191722517901,,
0.0242757981255951,-0.371722396627057,-0.00670192105821377,,
0.0244324161780183,-0.358942645645876,-0.00666790287481955,,
0.0245890342304415,-0.332626911420731,-0.00634567614079629,,
0.0247456522828647,-0.293288137644522,-0.00575775449063975,,
0.0249022703352879,-0.242594888717091,-0.00499109173323298,,
0.0250588883877111,-0.182856306607816,-0.00405504722473049,,
0.0252155064401343,-0.116070259763034,-0.00293422212915484,,
0.0253721244925575,-0.0446473427207319,-0.00170285971615503,,
0.0255287425449807,0.0280536420422408,-0.000386560737702268,,
0.0256853605974039,0.100565985541002,0.000943913391273199,,
0.0258419786498271,0.168758135347483,0.00220897003089515,,
0.0259985967022503,0.230503570290637,0.00340137051681921,,
0.0261552147546735,0.28295362203577,0.00448542243527505,,
0.0263118328070967,0.324493972124317,0.00537088340779457,,
0.0264684508595199,0.353851369208312,0.00606542767085205,,
0.0266250689119431,0.369773062397961,0.00650912322161323,,
0.0267816869643663,0.371460768791881,0.00672222688647395,,
0.0269383050167895,0.358744062894418,0.00667174407654558,,
0.0270949230692126,0.332285628190847,0.00635615028937231,,
0.0272515411216358,0.29318310367057,0.00582348913095077,,
0.027408159174059,0.242811779859658,0.00502275510479633,,
0.0275647772264822,0.183318431393858,0.00407637392517124,,
0.0277213952789054,0.116374555720492,0.00292829562585384,,
0.0278780133313286,0.0450440759850717,0.00168471541459292,,
0.0280346313837518,-0.0276707404123309,0.000413530819559416,,
0.028191249436175,-0.100241683112315,-0.000924644769149108,,
0.0283478674885982,-0.168619108896952,-0.00222972776524077,,
0.0285044855410214,-0.230220268778296,-0.00340230971922573,,
0.0286611035934446,-0.283090950406181,-0.00448685029516538,,
0.0288177216458678,-0.324874650812979,-0.00536204809935903,,
0.028974339698291,-0.354234270838222,-0.00606256514525683,,
0.0291309577507142,-0.369917862320899,-0.00651947078203907,,
0.0292875758031374,-0.371659660285179,-0.00671436617068055,,
0.0294441938555606,-0.359074787153376,-0.00664466510165607,,
0.0296008119079838,-0.332361208193267,-0.00634337985897027,,
0.029757429960407,-0.293268069424925,-0.00581140472665442,,
0.0299140480128301,-0.2426668255658,-0.00502840937551596,,
0.0300706660652533,-0.182824444449933,-0.00405825956919292,,
0.0302272841176765,-0.115962076622315,-0.00291979380233132,,
0.0303839021700997,-0.0446722890614001,-0.0016950398352491,,
0.0305405202225229,0.028085504200124,-0.000377936409517776,,
0.0306971382749461,0.100538322272142,0.000940464204464586,,
0.0308537563273693,0.168725285215712,0.00222220053435995,,
0.0310103743797925,0.23036550093981,0.00343150394127445,,
0.0311669924322157,0.283063040143849,0.00449328451223119,,
0.0313236104846389,0.324665138600387,0.00537418558900882,,
0.0314802285370621,0.353975606924709,0.00606454563728764,,
0.0316368465894853,0.369647589714204,0.00650376840673372,,
0.0317934646419085,0.371278734603044,0.0067391379744417,,
0.0319500826943317,0.358640078642722,0.00670376951744256,,
0.0321067007467549,0.332300694792637,0.00636942435005006,,
0.0322633187991781,0.293256213738271,0.00580446551815017,,
0.0324199368516013,0.242919469013434,0.00501636580610665,,
0.0325765549040245,0.183213212174802,0.00403345101403385,,
0.0327331729564476,0.116394562191721,0.00293413501472894,,
0.0328897910088708,0.0451099923679017,0.00169256660224537,,
0.033046409061294,-0.0277137790248204,0.000386743133531819,,
0.0332030271137172,-0.100293304747956,-0.000937581261425624,,
0.0333596451661404,-0.168537354057732,-0.00221144462506162,,
0.0335162632185636,-0.230230642504119,-0.00341281789687464,,
0.0336728812709868,-0.283060817202601,-0.00446240517050267,,
0.03382949932341,-0.324885703770849,-0.00535943330541322,,
0.0339861173758332,-0.354463233786731,-0.00605106740217387,,
0.0341427354282564,-0.370026230706722,-0.00649059234978555,,
0.0342993534806796,-0.371762594814619,-0.00671820056659245,,
0.0344559715331028,-0.359127396762904,-0.00665493235347014,,
0.034612589585526,-0.3327265115383,-0.00634943431158463,,
0.0347692076379492,-0.293435037011972,-0.00577873817802788,,
0.0349258256903724,-0.24253561028382,-0.00502551418201058,,
0.0350824437427956,-0.182847167849354,-0.00407622691957732,,
0.0352390617952188,-0.115994679760614,-0.00295034918728776,,
0.035395679847642,-0.0446681519207447,-0.00170493957307816,,
0.0355522979000652,0.0280464792315539,-0.000411638803117675,,
0.0357089159524883,0.100511399983698,0.000934965106316632,,
0.0358655340049115,0.168815468707162,0.00220753264286433,,
0.0360221520573347,0.230163460279745,0.00342175801485389,,
0.0361787701097579,0.283301388844293,0.00447942242917687,,
0.0363353881621811,0.324840009978536,0.00539592880529982,,
0.0364920062146043,0.353772331297284,0.0060812062712805,,
0.0366486242670275,0.369770345469769,0.006534963538257,,
0.0368052423194507,0.370988023286545,0.00672652816126273,,
0.0369618603718739,0.358512630011189,0.00667344280785453,,
0.0371184784242971,0.332188065769422,0.00634566389032987,,
0.0372750964767203,0.293152970466991,0.00580630581040165,,
0.0374317145291435,0.243114840849756,0.00504390213173345,,
0.0375883325815667,0.18325569505198,0.00405447825863492,,
0.0377449506339899,0.116346398464689,0.00293130379588025,,
0.0379015686864131,0.0450625696212849,0.0017001455573169,,
0.0380581867388363,-0.027676483010554,0.000383955471896513,,
0.0382148047912595,-0.100329365794862,-0.000924851665911053,,
0.0383714228436827,-0.168506912112313,-0.00223563112877212,,
0.0385280408961058,-0.230128140213254,-0.00341110827626245,,
0.038684658948529,-0.282909163210816,-0.00450341428659184,,
0.0388412770009522,-0.324792340238448,-0.00540870876384192,,
0.0389978950533754,-0.354459528884652,-0.00608801480814591,,
0.0391545131057986,-0.370064514694877,-0.0065348246996404,,
0.0393111311582218,-0.371726348522609,-0.00670407714026,,
0.039467749210645,-0.359124185847768,-0.00666297002044125,,
0.0396243672630682,-0.332611412580365,-0.00635198240854828,,
0.0397809853154914,-0.293370818709262,-0.00579005080295536,,
0.0399376033679146,-0.242732772822814,-0.00502646019023167,,
0.0400942214203378,-0.182783196540115,-0.00406825594958882,,
0.040250839472761,-0.116043831461534,-0.00292710188598377,,
0.0404074575251842,-0.0446804398459749,-0.00168091777007984,,
0.0405640755776074,0.0280976068802502,-0.000404375637840904,,
0.0407206936300306,0.100544003121997,0.000922660193629188,,
0.0408773116824538,0.168688761056045,0.00222560888628109,,
0.041033929734877,0.230425026366553,0.00341243404893499,,
0.0411905477873002,0.283046738574699,0.00448589067531557,,
0.0413471658397233,0.324778014617074,0.00538649050169626,,
0.0415037838921465,0.353993143461218,0.00605158736640465,,
0.0416604019445697,0.36946456755148,0.00651689818414347,,
0.0418170199969929,0.371205624535344,0.00672294285816344,,
0.0419736380494161,0.358564498640301,0.00666271684414044,,
0.0421302561018393,0.332084081517726,0.00636605955534186,,
0.0422868741542625,0.293045528306687,0.00579924954188682,,
0.0424434922066857,0.242965625918507,0.00502113259861048,,
0.0426001102591089,0.183299876009277,0.0040321987441585,,
0.0427567283115321,0.116318982189301,0.00293368583096942,,
0.0429133463639553,0.0451386744848334,0.00166534334408741,,
0.0430699644163785,-0.0276420891695832,0.000400790334741608,,
0.0432265824688017,-0.100298985597811,-0.000924808108698105,,
0.0433832005212249,-0.168541985185332,-0.00221354626059167,,
0.0435398185736481,-0.230170129103488,-0.00343582699466971,,
0.0436964366260713,-0.283079341712998,-0.00448000228457568,,
0.0438530546784945,-0.324826919324522,-0.00538709349686473,,
0.0440096727309177,-0.35423525881211,-0.00605562865907805,,
0.0441662907833408,-0.370098599794007,-0.00652489365506437,,
0.044322908835764,-0.371733696578399,-0.00672551681722222,,
0.0444795268881872,-0.358756659561488,-0.00663497362175169,,
0.0446361449406104,-0.332614870488973,-0.00634527459773837,,
0.0447927629930336,-0.293258498427887,-0.0057871773880569,,
0.0449493810454568,-0.24259093682154,-0.0050491657486984,,
0.04510599909788,-0.182725153074204,-0.0040574986791273,,
0.0452626171503032,-0.116085388113192,-0.00292110051872285,,
0.0454192352027264,-0.0446377717236933,-0.00171067823589821,,
0.0455758532551496,0.0281084745930165,-0.000378622435623477,,
0.0457324713075728,0.100608715411652,0.000933549496892283,,
0.045889089359996,0.168849553806293,0.00223053085135616,,
0.0460457074124192,0.230490726630095,0.00342864005451604,,
0.0462023254648424,0.282974863474358,0.00445731714355269,,
0.0463589435172656,0.324907686189854,0.00537688613621823,,
0.0465155615696888,0.353950413590569,0.0060702080749846,,
0.046672179622112,0.369788622986694,0.00652457514294369,,
0.0468287976745352,0.371285897413731,0.00672951183035675,,
0.0469854157269584,0.35866132008131,0.00667801631522513,,
0.0471420337793815,0.332333297930936,0.00639150785706777,,
0.0472986518318047,0.293130000074098,0.00581757623927892,,
0.0474552698842279,0.242958710101292,0.00503376419039547,,
0.0476118879366511,0.183297683942213,0.00405495466565275,,
0.0477685059890743,0.116321205130548,0.00294553339291959,,
0.0479251240414975,0.0450826069666979,0.00169099582024979,,
0.0480817420939207,-0.0276729633535786,0.000417909680634043,,
0.0482383601463439,-0.10031652213432,-0.000909029508269654,,
0.0483949781987671,-0.168579342947966,-0.00221883846197724,,
0.0485515962511903,-0.230244474138549,-0.00341874167785017,,
0.0487082143036135,-0.283164554460826,-0.00445965017677707,,
0.0488648323560367,-0.324983760179218,-0.00538291200441154,,
0.0490214504084599,-0.354253227587195,-0.00605466087225048,,
0.0491780684608831,-0.370201657820184,-0.0064876849058142,,
0.0493346865133063,-0.371908876698389,-0.00673036255717419,,
0.0494913045657295,-0.359013779765801,-0.0066604981486007,,
0.0496479226181527,-0.332552134147094,-0.00633009490898928,,
0.0498045406705759,-0.293295238706841,-0.0057901379173817,,
0.049961158722999,-0.242641385238188,-0.0050229973917939,,
0.0501177767754222,-0.182880758961541,-0.00404841700020597,,
0.0502743948278454,-0.115978625184936,-0.00293616178629863,,
0.0504310128802686,-0.0446821688002786,-0.00167284879636176,,
0.0505876309326918,0.0280598168790399,-0.000387170538685311,,
0.050744248985115,0.100470152073881,0.000913567625404621,,
0.0509008670375382,0.168851745873357,0.00220822955827327,,
0.0510574850899614,0.230233853419254,0.0034234131889499,,
0.0512141031423846,0.283096878249508,0.00447905219286593,,
0.0513707211948078,0.324713796314363,0.00539006219316684,,
0.051527339247231,0.35400598712176,0.00607097032621295,,
0.0516839572996542,0.369305256762064,0.00653549711411694,,
