Time domain (s),Current (AC) (A),Potential (AC) (V),Frequency (Hz),Column 5
0,0.340276254585469,0.0221733803427804,0.0050119,0.5
0.48712189987829,0.335577819723757,0.0221176817824489,,
0.974243799756579,0.330594966359643,0.0220391057756779,,
1.46136569963487,0.325815714675215,0.0219845826384999,,
1.94848759951316,0.32051129542703,0.0219042909263534,,
2.43560949939145,0.315515681511961,0.0217713773755341,,
2.92273139926974,0.310624704114725,0.0217172790404083,,
3.40985329914803,0.305427757062362,0.0216184073938455,,
3.89697519902632,0.299781071480778,0.0215057358670254,,
4.38409709890461,0.294579303775833,0.0214159912781455,,
4.8712189987829,0.288999256627015,0.0212970137092117,,
5.35834089866119,0.283673569793904,0.0211920257379559,,
5.84546279853948,0.278078493551739,0.0210424624212679,,
6.33258469841777,0.272290591206251,0.0209298032673231,,
6.81970659829605,0.266663507248773,0.0207868388174646,,
7.30682849817434,0.260909314025391,0.0206480316537081,,
7.79395039805263,0.255049952594553,0.0205073603100727,,
8.28107229793092,0.249280765723799,0.0203631255783492,,
8.76819419780921,0.243048229069471,0.0201963722135705,,
9.2553160976875,0.237125632019455,0.0200599571390399,,
9.74243799756579,0.231119382468733,0.0199283922316291,,
10.2295598974441,0.224988646654247,0.0197346330043509,,
10.7166817973224,0.218824201717655,0.0195423585221097,,
11.2038036972007,0.212369028895133,0.0193961111360035,,
11.690925597079,0.206116642494875,0.0191834090366334,,
12.1780474969572,0.19992724359197,0.019033882838571,,
12.6651693968355,0.193352972293866,0.0188417733280004,,
13.1522912967138,0.186885322488188,0.0186141949082219,,
13.6394131965921,0.18039076918758,0.0184510008072394,,
14.1265350964704,0.174004857799965,0.018237411985139,,
14.6136569963487,0.167561913838775,0.0180312345153464,,
15.100778896227,0.160837387053173,0.017820994618162,,
15.5879007961053,0.154134127852497,0.0175759663199115,,
16.0750226959836,0.147485030101431,0.0173718551202948,,
16.5621445958618,0.140782338036353,0.0171460089030591,,
17.0492664957401,0.134073123911897,0.0169106314475465,,
17.5363883956184,0.127193237418416,0.0166525167715146,,
18.0235102954967,0.12053985070439,0.016449601616511,,
18.510632195375,0.113637243341013,0.0162050806061478,,
18.9977540952533,0.106778553540507,0.0159697608907203,,
19.4848759951316,0.0998572661483709,0.0156811800713954,,
19.9719978950099,0.0929064522591634,0.0154348319997792,,
20.4591197948882,0.0859712345989011,0.0151608223032724,,
20.9462416947665,0.0790652598679113,0.0149480459666504,,
21.4333635946447,0.0720390169441685,0.0146542974097401,,
21.920485494523,0.0650669000240607,0.0143799165269738,,
22.4076073944013,0.0580230758967796,0.0141175290846705,,
22.8947292942796,0.0510183841257612,0.0138303464002552,,
23.3818511941579,0.0440440341092363,0.0135157495484557,,
23.8689730940362,0.0369497349137323,0.0132640027789144,,
24.3560949939145,0.0299135671170243,0.0129954907633349,,
24.8432168937928,0.0228141637011383,0.0126803123863963,,
25.3303387936711,0.0157856522350034,0.0123960497005533,,
25.8174606935494,0.00874296237891832,0.0120889054439792,,
26.3045825934276,0.00166879649714369,0.0117818601704078,,
26.7917044933059,-0.00549412610571946,0.0114749963656737,,
27.2788263931842,-0.0125793511316553,0.0111932577463931,,
27.7659482930625,-0.019655785555822,0.0108654260423089,,
28.2530701929408,-0.0266907481893842,0.0105542069854678,,
28.7401920928191,-0.0337655520987065,0.0102368014909739,,
29.2273139926974,-0.0408076748191936,0.00989983448062315,,
29.7144358925757,-0.0479147345656528,0.00960931111987584,,
30.201557792454,-0.0549472159809737,0.00928425506415165,,
30.6886796923322,-0.0619382964976399,0.00893685771991848,,
31.1758015922105,-0.0689648229891817,0.00860369743086942,,
31.6629234920888,-0.0759320129187818,0.00826677578772816,,
32.1500453919671,-0.0829074972065027,0.00791791019562504,,
32.6371672918454,-0.089858098419861,0.00759911481480557,,
33.1242891917237,-0.0967093800116178,0.0072409489447649,,
33.611411091602,-0.103793258090508,0.00693161468926196,,
34.0985329914803,-0.110721599231645,0.00655272012879404,,
34.5856548913586,-0.117385655184109,0.00624456954502817,,
35.0727767912369,-0.124331719312683,0.0058720965068435,,
35.5598986911151,-0.131047171928716,0.00550867628908991,,
36.0470205909934,-0.137900934738714,0.0051833686515681,,
36.5341424908717,-0.144555207602112,0.00484341565397672,,
37.02126439075,-0.151311493981203,0.00445970804501483,,
37.5083862906283,-0.158032972412965,0.00410777397983653,,
37.9955081905066,-0.164571691398269,0.00376134996846034,,
38.4826300903849,-0.171138200027875,0.00338766026420378,,
38.9697519902632,-0.177584405018753,0.00304627613736885,,
39.4568738901415,-0.184036068689762,0.00267162959742207,,
39.9439957900197,-0.190531756261567,0.0023146638962861,,
40.431117689898,-0.197009082818386,0.00196589728718566,,
40.9182395897763,-0.203248354207941,0.00159106515410956,,
41.4053614896546,-0.209578650860976,0.00124852210128745,,
41.8924833895329,-0.216001532400386,0.000873058951570638,,
42.3796052894112,-0.222090867316217,0.000513866132879848,,
42.8667271892895,-0.228280585232895,0.000148107441693579,,
43.3538490891678,-0.234273790664863,-0.000212784585205572,,
43.8409709890461,-0.240394034470785,-0.000591411066709124,,
44.3280928889244,-0.246275159730197,-0.000936861745227446,,
44.8152147888026,-0.252447650903085,-0.0013088728627344,,
45.3023366886809,-0.258273267765842,-0.0016609718995837,,
45.7894585885592,-0.263904073550681,-0.0020269120596077,,
46.2765804884375,-0.269795194575008,-0.00240747077180448,,
46.7637023883158,-0.275612020835995,-0.00276166288672597,,
47.2508242881941,-0.281065029610859,-0.00313888710902788,,
47.7379461880724,-0.286588079632077,-0.00351698774333098,,
48.2250680879507,-0.292277867519109,-0.00385299791799154,,
48.712189987829,-0.297453263418747,-0.00423355663018876,,
49.1993118877073,-0.302873378328926,-0.00458842719110608,,
49.6864337875855,-0.308092443669611,-0.00493692984553329,,
50.1735556874638,-0.313501783003428,-0.00528883091637766,,
50.6606775873421,-0.318573889332279,-0.00564711639087934,,
51.1477994872204,-0.323652092368808,-0.00601859753689382,,
51.6349213870987,-0.328671525978993,-0.00637010473787436,,
52.122043286977,-0.333339619086211,-0.00672956151123838,,
52.6091651868553,-0.338455465748058,-0.00708340924779716,,
53.0962870867336,-0.343109096897527,-0.00741546422665218,,
53.5834089866119,-0.347885229336166,-0.00776398337824658,,
54.0705308864901,-0.352266351830792,-0.0081169732621178,,
54.5576527863684,-0.356851076005103,-0.00845689738966682,,
55.0447746862467,-0.361254033220251,-0.00880845202000247,,
55.531896586125,-0.365737240122518,-0.00916607760782107,,
56.0190184860033,-0.369767022114177,-0.00949417532872454,,
56.5061403858816,-0.373907111979648,-0.00983859905859275,,
56.9932622857599,-0.378000342266333,-0.0101599494381626,,
57.4803841856382,-0.381948811191627,-0.0104914600105044,,
57.9675060855165,-0.385830358116356,-0.0108258575870837,,
58.4546279853948,-0.389889560267161,-0.0111284671848582,,
58.941749885273,-0.393588702205179,-0.0114881363592483,,
59.4288717851513,-0.396972233182905,-0.0118072080676166,,
59.9159936850296,-0.400431193195167,-0.0121052314529448,,
60.4031155849079,-0.404060293886831,-0.0124193354518778,,
60.8902374847862,-0.407383424923369,-0.0127546733669801,,
61.3773593846645,-0.410696560194993,-0.0130374513077869,,
61.8644812845428,-0.413818641662036,-0.0133443316096877,,
62.3516031844211,-0.416758105466521,-0.0136515583520969,,
62.8387250842994,-0.420011904176202,-0.013963717747461,,
63.3258469841777,-0.422774988809706,-0.0142751512674741,,
63.8129688840559,-0.425406143524722,-0.0145640001657639,,
64.3000907839342,-0.427842558053772,-0.0148472235300812,,
64.7872126838125,-0.430506110389825,-0.0151412855331658,,
65.2743345836908,-0.432865110909747,-0.0153880996497522,,
65.7614564835691,-0.435233965410683,-0.0156974545267139,,
66.2485783834474,-0.437689520766166,-0.0159673007506806,,
66.7357002833257,-0.439521581423587,-0.0162410011253051,,
67.222822183204,-0.441748439349172,-0.0165002726651777,,
67.7099440830823,-0.443633030941359,-0.0167512935593677,,
68.1970659829606,-0.445295872514723,-0.0170452586415957,,
68.6841878828388,-0.447346067701528,-0.0172687931932956,,
69.1713097827171,-0.448598586669733,-0.0175351090235085,,
69.6584316825954,-0.450405693360841,-0.0177508899066838,,
70.1455535824737,-0.451726906628355,-0.0180035275232471,,
70.632675482352,-0.453190967174617,-0.0182512489840221,,
71.1197973822303,-0.454262498995107,-0.0184872739533426,,
71.6069192821086,-0.455546352205101,-0.018693109106918,,
72.0940411819869,-0.456576199559137,-0.0189054276471539,,
72.5811630818652,-0.457445618430886,-0.0191388295669093,,
73.0682849817434,-0.458027215986645,-0.0193356077757616,,
73.5554068816217,-0.458786965012129,-0.0195568512833839,,
74.0425287815,-0.459487023015922,-0.0197360930036377,,
74.5296506813783,-0.459672476356471,-0.0199702372959112,,
75.0167725812566,-0.459973341791216,-0.0201583214977159,,
75.5038944811349,-0.460139796089231,-0.0203200762208713,,
75.9910163810132,-0.460176376335303,-0.0205142148829922,,
76.4781382808915,-0.460352755506284,-0.0207017546782833,,
76.9652601807698,-0.460266550895387,-0.0208563496309289,,
77.4523820806481,-0.460087406938365,-0.0210563117930267,,
77.9395039805263,-0.459848855527452,-0.0212269584892346,,
78.4266258804046,-0.459116683470422,-0.0213710612436215,,
78.9137477802829,-0.45881503822423,-0.0215360989030242,,
79.4008696801612,-0.458160280176328,-0.0216844249321819,,
79.8879915800395,-0.457836729317664,-0.0218076752673881,,
80.3751134799178,-0.456454052729716,-0.0219508871747527,,
80.8622353797961,-0.455798727546216,-0.0220682315241465,,
81.3493572796744,-0.454481980471536,-0.022259235724523,,
81.8364791795527,-0.453338705997898,-0.0223268081208561,,
82.3236010794309,-0.452051308190416,-0.0224396652408059,,
82.8107229793092,-0.450570517144013,-0.0225474082389625,,
83.2978448791875,-0.449524435533484,-0.0226748323574379,,
83.7849667790658,-0.44786981742629,-0.022786567670027,,
84.2720886789441,-0.445831532087043,-0.0228726333906493,,
84.7592105788224,-0.443976502437903,-0.0229471180999856,,
85.2463324787007,-0.442405182371668,-0.0230369286775338,,
85.733454378579,-0.44006773300447,-0.0231348228669477,,
86.2205762784573,-0.437905599429008,-0.0231679656755985,,
86.7076981783355,-0.435716314236791,-0.0232943339753815,,
87.1948200782138,-0.433519018254252,-0.0233066573591851,,
87.6819419780921,-0.431029860114587,-0.0233939438701709,,
88.1690638779704,-0.428479947573985,-0.0234283734578531,,
88.6561857778487,-0.425830644519833,-0.0234930588499482,,
89.143307677727,-0.423446122898001,-0.0234944281148155,,
89.6304295776053,-0.420300576195589,-0.0235324870792542,,
90.1175514774836,-0.417450294463892,-0.0235604332802763,,
90.6046733773619,-0.414536706221066,-0.0235896497631636,,
91.0917952772402,-0.41112765414143,-0.0236584594470268,,
91.5789171771185,-0.407817283655847,-0.0236408734669267,,
92.0660390769967,-0.404689247265024,-0.0236191796922252,,
92.553160976875,-0.401509672426732,-0.0236426716581377,,
93.0402828767533,-0.397846401815288,-0.0236215222899494,,
93.5274047766316,-0.394299606677284,-0.0236199880534116,,
94.0145266765099,-0.390499231035021,-0.0236085390194627,,
94.5016485763882,-0.386464911958579,-0.0236100237644994,,
94.9887704762665,-0.382525091851155,-0.0235904416271833,,
95.4758923761448,-0.378650846797251,-0.0235419564531543,,
95.9630142760231,-0.374675297147152,-0.0235282803016501,,
96.4501361759013,-0.370866981606517,-0.0234829955780334,,
96.9372580757796,-0.366428861984291,-0.0234641063217342,,
97.4243799756579,-0.362286999820076,-0.0234006912115041,,
97.9115018755362,-0.357793371801196,-0.0233427531607417,,
98.3986237754145,-0.353242108627167,-0.023276550029276,,
98.8857456752928,-0.348582877013668,-0.0231886201287743,,
99.3728675751711,-0.34413986584691,-0.0231587932507056,,
99.8599894750494,-0.339208905390014,-0.0230748886589698,,
100.347111374928,-0.334459711892281,-0.0229926832754428,,
100.834233274806,-0.329720159699713,-0.0229023447885486,,
101.321355174684,-0.324531081653773,-0.0227947007733942,,
101.808477074563,-0.319597356410837,-0.0227090804762828,,
102.295598974441,-0.314467614926839,-0.0226220909143042,,
102.782720874319,-0.309130656273718,-0.0225067262249592,,
103.269842774197,-0.303890252456158,-0.0223969375780855,,
103.756964674076,-0.298697558920781,-0.0223098490331046,,
104.244086573954,-0.293376480064404,-0.0221583225535347,,
104.731208473832,-0.287649686579601,-0.0220381901829056,,
105.218330373711,-0.282305638731505,-0.0219127622216462,,
105.705452273589,-0.276587494064572,-0.0217650630848372,,
106.192574173467,-0.270890900550363,-0.021623797843187,,
106.679696073345,-0.265314823350731,-0.021469087410372,,
107.166817973224,-0.259435328606164,-0.0213390402423319,,
107.653939873102,-0.253419792210024,-0.0211634443960018,,
108.14106177298,-0.247734470515825,-0.0210291739531905,,
108.628183672859,-0.241684551524056,-0.0208585932456509,,
109.115305572737,-0.235657034388409,-0.0206757716401427,,
109.602427472615,-0.229554938921623,-0.0205120537541053,,
110.089549372493,-0.223418531751157,-0.0203434032151133,,
110.576671272372,-0.217215202580127,-0.0201681373121247,,
111.06379317225,-0.210967636832451,-0.0199693299517221,,
111.550915072128,-0.20467328239794,-0.0197757851876164,,
112.038036972007,-0.1983157632362,-0.0196024659503422,,
112.525158871885,-0.191994682536633,-0.0193836475262796,,
113.012280771763,-0.185506084159803,-0.019192148410891,,
113.499402671641,-0.178920505595714,-0.01897191123046,,
113.98652457152,-0.17247018887175,-0.0187692600301292,,
114.473646471398,-0.166000305969655,-0.0185495342618776,,
114.960768371276,-0.159184824812523,-0.0183576227173119,,
115.447890271155,-0.152654754645089,-0.0181246662210675,,
115.935012171033,-0.146040252165501,-0.0178992324330083,,
116.422134070911,-0.139303531964542,-0.0176684535628175,,
116.90925597079,-0.132487412779862,-0.0173959368599306,,
117.396377870668,-0.125690079961866,-0.0172083805674723,,
117.883499770546,-0.118887217571789,-0.0169482058077026,,
118.370621670424,-0.111999072166162,-0.0167033362946851,,
118.857743570303,-0.105199116346025,-0.0164477312501945,,
119.344865470181,-0.0983106873725983,-0.0162238791280287,,
119.831987370059,-0.0913377551950684,-0.0159643621927956,,
120.319109269938,-0.084331929152854,-0.015685395097583,,
120.806231169816,-0.0774347095776584,-0.0154236366097744,,
121.293353069694,-0.070435122027022,-0.01516172552317,,
121.780474969572,-0.0633578368994583,-0.0148955787889196,,
122.267596869451,-0.0563826361795364,-0.0146191172009562,,
122.754718769329,-0.0493853880632419,-0.0143293609584778,,
123.241840669207,-0.0423168226454976,-0.0140409244893651,,
123.728962569086,-0.0352610886706583,-0.0137768048445186,,
124.216084468964,-0.028221305384513,-0.0134937443897263,,
124.703206368842,-0.0211625939477841,-0.013199222528109,,
125.19032826872,-0.0140930360427433,-0.0128719682248728,,
125.677450168599,-0.00699221478786222,-0.0126091848505592,,
126.164572068477,0.000127889077351199,-0.0123227280414953,,
126.651693968355,0.00716068950644599,-0.0120079455965665,,
127.138815868234,0.0142620424509502,-0.0117067073258048,,
127.625937768112,0.0213852655619527,-0.0114010292549547,,
128.11305966799,0.0284222840620577,-0.0110817946370614,,
128.600181567868,0.0354638396469468,-0.0107475434728399,,
129.087303467747,0.0425094006269968,-0.0104851415955149,,
129.574425367625,0.0495682184016503,-0.0101332735190049,,
130.061547267503,0.056473094307419,-0.00984952224534119,,
130.548669167382,0.0634837410022165,-0.00954028284854891,,
131.03579106726,0.0705171085669093,-0.0092029632112518,,
131.522912967138,0.0775949253840961,-0.00886916365697887,,
132.010034867016,0.0845375158071325,-0.00853019430297408,,
132.497156766895,0.0914687635182087,-0.00820397932126316,,
132.984278666773,0.0983064338556132,-0.00786816505046151,,
133.471400566651,0.105245621465062,-0.00755950099237079,,
133.95852246653,0.112090097429642,-0.00720494593977339,,
134.445644366408,0.1189694522335,-0.00688125296247888,,
134.932766266286,0.125750692578903,-0.00653326172023094,,
135.419888166165,0.132596019246881,-0.00622262006423746,,
135.907010066043,0.139297860608562,-0.00587885209676031,,
136.394131965921,0.14610887557286,-0.00552785630795949,,
136.881253865799,0.152671768713029,-0.00520400248328556,,
137.368375765678,0.159482748231352,-0.00482372628507521,,
137.855497665556,0.166099838267106,-0.00449605955266152,,
138.342619565434,0.172530588812938,-0.00412332255980363,,
138.829741465313,0.179101102837706,-0.0037810063430288,,
139.316863365191,0.185497860693632,-0.00343916854409931,,
139.803985265069,0.192054834355997,-0.00309808961485558,,
140.291107164947,0.198413487788933,-0.0027380863728319,,
140.778229064826,0.204898718798149,-0.00241176003524357,,
141.265350964704,0.211099495858989,-0.00205325803542378,,
141.752472864582,0.217374532237193,-0.00172966610327752,,
142.239594764461,0.223611924990079,-0.00139323937514835,,
142.726716664339,0.229657058775239,-0.00101523978599349,,
143.213838564217,0.235748343219688,-0.000667955859784186,,
143.700960464095,0.241911689331059,-0.000339845766005542,,
144.188082363974,0.247829749296291,2.75956362218999E-05,,
144.675204263852,0.253749794236116,0.000389564103272733,,
145.16232616373,0.259545352912177,0.00072083959098368,,
145.649448063609,0.265433638258514,0.00108420619294414,,
146.136569963487,0.27109109941646,0.00145529346909479,,
146.623691863365,0.276734984766029,0.00179394731477922,,
147.110813763243,0.282469257351531,0.00213703889840611,,
147.597935663122,0.287762050319957,0.00243934948502744,,
148.085057563,0.293522482034917,0.00281098116769174,,
148.572179462878,0.298881310854536,0.00318114460248653,,
149.059301362757,0.304001411033368,0.00352765522398935,,
149.546423262635,0.309532117385159,0.00385647263380617,,
150.033545162513,0.314481793316789,0.00420413393271257,,
150.520667062392,0.319494704867597,0.00454749359530471,,
151.00778896227,0.324743261259378,0.00491120251348187,,
151.494910862148,0.329550869723707,0.00524122834078655,,
151.982032762026,0.334515574748684,0.0055609805572967,,
152.469154661905,0.339369971899849,0.00588456836515094,,
152.956276561783,0.344023319481519,0.00624692863992005,,
153.443398461661,0.348732246351794,0.00659515496679841,,
153.93052036154,0.353254018474726,0.0069037138554493,,
154.417642261418,0.357604232079259,0.00724720137108603,,
154.904764161296,0.362017681302971,0.00758984753120195,,
155.391886061174,0.366383774704249,0.00790700969248137,,
155.879007961053,0.370508835476373,0.00822234891679896,,
156.366129860931,0.374604405197401,0.00854560678131211,,
156.853251760809,0.37869373642685,0.0088937011308543,,
157.340373660688,0.382416414492186,0.00918448019769125,,
157.827495560566,0.386438256585472,0.00950465721625315,,
158.314617460444,0.390021986429296,0.0098338375637459,,
158.801739360322,0.393939759140347,0.0101228225636634,,
159.288861260201,0.397290963388987,0.0104699724503905,,
159.775983160079,0.400917228402661,0.0107818472696231,,
160.263105059957,0.404405112330421,0.011066184192718,,
160.750226959836,0.407649978654434,0.0113748255672039,,
161.237348859714,0.41091667969897,0.011695625353823,,
161.724470759592,0.414032239106637,0.0119565651697156,,
162.21159265947,0.417018208030158,0.0122610575066826,,
162.698714559349,0.419660209213486,0.0125694184293281,,
163.185836459227,0.422794767663686,0.0128599995301606,,
163.672958359105,0.425659936704832,0.0131474131749147,,
164.160080258984,0.428373680541308,0.013446539808291,,
164.647202158862,0.43046470949117,0.0136894440962805,,
165.13432405874,0.433350578981643,0.0139632805725332,,
165.621445958618,0.435293018404826,0.0142543937070037,,
166.108567858497,0.437398792880236,0.0145171564598581,,
166.595689758375,0.439797776459818,0.0147879574573695,,
167.082811658253,0.441737096637212,0.0150526545030631,,
167.569933558132,0.443751562281343,0.0153291016560053,,
168.05705545801,0.44521987634459,0.0155554427882532,,
