Time domain (s),Current (AC) (A),Potential (AC) (V),Frequency (Hz),Column 5
0,-0.29958974384307,-0.00906885021324211,0.12589,0.4
0.0193931706251489,-0.29596480590018,-0.00898974329244817,,
0.0387863412502979,-0.292658613032858,-0.00891257379537835,,
0.0581795118754468,-0.288894185526677,-0.00884254002089779,,
0.0775726825005957,-0.285273816963018,-0.00876973654912216,,
0.0969658531257447,-0.281616708120404,-0.00867061413112102,,
0.116359023750894,-0.277651783663358,-0.00857435521174077,,
0.135752194376043,-0.273798253262166,-0.00850129421269141,,
0.155145365001192,-0.26991199622594,-0.00840652417615573,,
0.17453853562634,-0.265762011910025,-0.0083029675137154,,
0.193931706251489,-0.261885449367573,-0.00820716054617243,,
0.213324876876638,-0.257446729682934,-0.00812921164536817,,
0.232718047501787,-0.25353336511316,-0.0079855847625061,,
0.252111218126936,-0.249175844532429,-0.00789709088733037,,
0.271504388752085,-0.244827339213425,-0.00779870694157614,,
0.290897559377234,-0.24035898031215,-0.00767264989956518,,
0.310290730002383,-0.235875307815614,-0.00759337925282244,,
0.329683900627532,-0.23139558721463,-0.00748319168946709,,
0.349077071252681,-0.226969958184005,-0.00736037164589654,,
0.36847024187783,-0.222510799789562,-0.00723766928035152,,
0.387863412502979,-0.217783468232935,-0.00716165950875025,,
0.407256583128128,-0.213000995383692,-0.00701635443491577,,
0.426649753753277,-0.208451869617086,-0.00690380819461467,,
0.446042924378426,-0.203664456898404,-0.00676206074920316,,
0.465436095003575,-0.198739592312575,-0.00663955280822215,,
0.484829265628723,-0.193782927317231,-0.0065317955519153,,
0.504222436253872,-0.188859606440602,-0.00642190644732032,,
0.523615606879021,-0.184132645374183,-0.00630066567696153,,
0.54300877750417,-0.178958132136568,-0.00616417451668916,,
0.562401948129319,-0.173885627202873,-0.00602665836375982,,
0.581795118754468,-0.168753782087539,-0.00590704291453559,,
0.601188289379617,-0.163686278771652,-0.00579381277730384,,
0.620581460004766,-0.158516952396948,-0.00564937920304986,,
0.639974630629915,-0.153312058962282,-0.00551445708311737,,
0.659367801255064,-0.147928095260442,-0.00539926052902473,,
0.678760971880213,-0.142688190501125,-0.00524114219423977,,
0.698154142505362,-0.137406173354838,-0.00512132208758009,,
0.717547313130511,-0.131946382657106,-0.00499534690854286,,
0.73694048375566,-0.126610829675772,-0.00485014927986249,,
0.756333654380809,-0.121271324798886,-0.00468919643959387,,
0.775726825005957,-0.11574311690942,-0.00454797939803653,,
0.795119995631106,-0.110144762873917,-0.00441555409881911,,
0.814513166256255,-0.104738569759601,-0.00425663077812066,,
0.833906336881404,-0.099129595004804,-0.00412326405469932,,
0.853299507506553,-0.0936596775747217,-0.00400776733636743,,
0.872692678131702,-0.0881734585754899,-0.00383795794557118,,
0.892085848756851,-0.0824441979998469,-0.00370029000504379,,
0.911479019382,-0.0768715312854281,-0.00354923917370353,,
0.930872190007149,-0.0712586046350795,-0.00338225235004019,,
0.950265360632298,-0.0655804717081328,-0.0032398789939716,,
0.969658531257447,-0.0599043147289617,-0.00306234549045792,,
0.989051701882596,-0.0542249468346552,-0.0029219521950794,,
1.00844487250774,-0.0485127288085776,-0.00276765072146912,,
1.02783804313289,-0.0427891490827897,-0.00264577210210248,,
1.04723121375804,-0.0370687185237694,-0.00247100829588476,,
1.06662438438319,-0.0313565622460598,-0.00233532041604745,,
1.08601755500834,-0.0256240907552813,-0.0021664234563179,,
1.10541072563349,-0.0198974853594619,-0.00201163421581985,,
1.12480389625864,-0.0141243216941776,-0.00184849495194683,,
1.14419706688379,-0.00836369294759539,-0.00169037661716231,,
1.16359023750894,-0.00262010675057858,-0.00153742929358458,,
1.18298340813409,0.00314641896514675,-0.00138852054340433,,
1.20237657875923,0.008933259893941,-0.00120662101459645,,
1.22176974938438,0.0146462189004345,-0.00104850267981194,,
1.24116292000953,0.020418240220911,-0.000922133535210978,,
1.26055609063468,0.0261790850867812,-0.000727204149666871,,
1.27994926125983,0.0318483262487372,-0.000584926300401634,,
1.29934243188498,0.0376126598973989,-0.000431092127936239,,
1.31873560251013,0.0433024015175279,-0.000292375318051263,,
1.33812877313528,0.0489854434397299,-0.000131816443346366,,
1.35752194376043,0.0546860836468092,3.82692349885083E-05,,
1.37691511438557,0.0603624876194522,0.00020490131909634,,
1.39630828501072,0.0660317287814083,0.000348089893950299,,
1.41570145563587,0.0716604630139625,0.00052490368548197,,
1.43509462626102,0.0773301981628625,0.00066776821939607,,
1.45448779688617,0.0829258043959898,0.000834127426923459,,
1.47388096751132,0.088561732313415,0.000980962315089151,,
1.49327413813647,0.0940410354954319,0.00114333752453577,,
1.51266730876162,0.0996166352573301,0.00131717013942145,,
1.53206047938677,0.105192543761068,0.00145208032100319,,
1.55145365001191,0.110646190496185,0.0016208715410575,,
1.57084682063706,0.116047412866878,0.00177962090293571,,
1.59023999126221,0.12165317670654,0.00193020443313108,,
1.60963316188736,0.127103859519993,0.00208117340149716,,
1.62902633251251,0.132463339993924,0.00221785728085466,,
1.64841950313766,0.137769500752095,0.00236530273037028,,
1.66781267376281,0.143156428375598,0.00254071461846772,,
1.68720584438796,0.148391455013844,0.00268825557478669,,
1.70659901501311,0.153612156030716,0.00286059077943479,,
1.72599218563826,0.158839525871331,0.00302859747931894,,
1.7453853562634,0.163946115904157,0.00315065858489927,,
1.76477852688855,0.169161136071174,0.00329685562405713,,
1.7841716975137,0.174214128520583,0.0034618061062357,,
1.80356486813885,0.179493336116126,0.0036014643403246,,
1.822958038764,0.184283064398608,0.00376554502840154,,
1.84235120938915,0.189353346391055,0.00390147849716183,,
1.8617443800143,0.194194171448049,0.00403623518566709,,
1.88113755063945,0.199111070494407,0.00421524563367459,,
1.9005307212646,0.204053162874905,0.00434925532253949,,
1.91992389188974,0.208782624750228,0.00448731722863061,,
1.93931706251489,0.213545832108657,0.00462386466969766,,
1.95871023314004,0.218213298622517,0.00474868865065936,,
1.97810340376519,0.222831860428929,0.00488681877589547,,
1.99749657439034,0.227375274471496,0.00503047465189388,,
2.01688974501549,0.231887104223835,0.00518633152201486,,
2.03628291564064,0.23647253803082,0.00530189816497062,,
2.05567608626579,0.240896685100613,0.0054527409279177,,
2.07506925689094,0.245164979289597,0.00555875347958557,,
2.09446242751609,0.249498973742124,0.00571132900882176,,
2.11385559814123,0.253706507537006,0.00582982566406409,,
2.13324876876638,0.2578866250565,0.00598007492044816,,
2.15264193939153,0.261698228315826,0.00610288302566886,,
2.17203511001668,0.266062602965404,0.00623078027912216,,
2.19142828064183,0.269928544788561,0.00633856652856579,,
2.21082145126698,0.27389279001356,0.00646684580923251,,
2.23021462189213,0.27784839046704,0.00658511051938149,,
2.24960779251728,0.281499694963062,0.00670610399533889,,
2.26900096314243,0.285313768157108,0.00685970963366778,,
2.28839413376757,0.288980880235335,0.00691838833142633,,
2.30778730439272,0.292739626891661,0.00705008198031098,,
2.32718047501787,0.296140480007113,0.00716909710105762,,
2.34657364564302,0.299636178615799,0.00726219917949278,,
2.36596681626817,0.303205234285658,0.00739092870651792,,
2.38535998689332,0.306335135562367,0.00753399789786791,,
2.40475315751847,0.309585569653394,0.00762407445721314,,
2.42414632814362,0.312762152696304,0.00770211374838459,,
2.44353949876877,0.315612704356224,0.00784607319957953,,
2.46293266939391,0.318725563083368,0.00793204637733957,,
2.48232584001906,0.321761853834203,0.00802760434500271,,
2.50171901064421,0.324668473012258,0.00813676862117996,,
2.52111218126936,0.327472342905977,0.00821912277328618,,
2.54050535189451,0.330143577305252,0.00830832612757249,,
2.55989852251966,0.332977827396022,0.00841054569476629,,
2.57929169314481,0.33562559741546,0.00852648754302043,,
2.59868486376996,0.338156045535716,0.00860865068152039,,
2.61807803439511,0.340149035860982,0.00865401982404723,,
2.63747120502026,0.342741232349229,0.00875700344566699,,
2.6568643756454,0.344769789734457,0.00882440737209933,,
2.67625754627055,0.3472016874594,0.00891809613518335,,
2.6956507168957,0.349121814710437,0.008997325850439,,
2.71504388752085,0.351052315687296,0.00906703217302196,,
2.734437058146,0.353263154254833,0.00912580978854161,,
2.75383022877115,0.35483971358637,0.00921434118424713,,
2.7732233993963,0.356911494829192,0.00925654495843586,,
2.79261657002145,0.357968873882663,0.00936400375598234,,
2.8120097406466,0.359785016882004,0.00940504098278794,,
2.83140291127174,0.361571273671237,0.00948098594620106,,
2.85079608189689,0.36280377109633,0.00951916137986464,,
2.87018925252204,0.364129879047297,0.00959439686416763,,
2.88958242314719,0.3655587362826,0.00966542322721109,,
2.90897559377234,0.366386658400618,0.00969750328024954,,
2.92836876439749,0.368028177015281,0.00974151827274383,,
2.94776193502264,0.368786693967678,0.00979677236941257,,
2.96715510564779,0.369815421778402,0.00985818324393728,,
2.98654827627294,0.370497123761019,0.00986763841746408,,
3.00594144689809,0.370977279070514,0.0099483689539146,,
3.02533461752323,0.371734808049023,0.00997498806437847,,
3.04472778814838,0.372342411990051,0.0100009386272188,,
3.06412095877353,0.372560260232322,0.0100365899525099,,
3.08351412939868,0.37310117593592,0.0100724732228938,,
3.10290730002383,0.373968617009452,0.0101055731521535,,
3.12230047064898,0.373605783599139,0.0101370358219279,,
3.14169364127413,0.373606524579555,0.0101784141444594,,
3.16108681189928,0.3736537003327,0.0101434040791339,,
3.18047998252443,0.373692972294742,0.0101899602347872,,
3.19987315314957,0.373689514386135,0.0102237662321998,,
3.21926632377472,0.373395592154499,0.0102503853426636,,
3.23865949439987,0.372877646843794,0.0102453814683621,,
3.25805266502502,0.37272105298257,0.010240360539274,,
3.27744583565017,0.372053923614799,0.0102727475784659,,
3.29683900627532,0.371741229879294,0.0102766667683585,,
3.31623217690047,0.371056563975014,0.0102969960736337,,
3.33562534752562,0.370299528983449,0.0102836796964869,,
3.35501851815077,0.369365152679015,0.0103001887296297,,
3.37441168877592,0.368428800426805,0.0102580838732016,,
3.39380485940106,0.367720423149216,0.0102515894105766,,
3.41319803002621,0.366433340166819,0.01027468500219,,
3.43259120065136,0.365352990720455,0.0102484615627687,,
3.45198437127651,0.363727279687998,0.0102095254856356,,
3.47137754190166,0.362517505662325,0.0102132331961782,,
3.49077071252681,0.361163487449027,0.0101894963446001,,
3.51016388315196,0.359566921646261,0.0101781310350066,,
3.52955705377711,0.358113612057233,0.0101592582084824,,
3.54895022440226,0.356304384875108,0.0101340478233674,,
3.5683433950274,0.354589756192744,0.0100968956768819,,
3.58773656565255,0.352657279268109,0.0100753623036938,,
3.6071297362777,0.350746290775535,0.010027898833409,,
3.62652290690285,0.348776764830106,0.00999245216555389,,
3.645916077528,0.346764509014027,0.00997834444632328,,
3.66530924815315,0.344306676974528,0.0099255701155827,,
3.6847024187783,0.342258854098486,0.00987858076835701,,
3.70409558940345,0.339763726044721,0.0098192846873344,,
3.7234887600286,0.33727551380817,0.00976906175262515,,
3.74288193065374,0.334757662354984,0.00971597361381704,,
3.76227510127889,0.332481617510849,0.00968373665674438,,
3.78166827190404,0.329538443298944,0.0096373988023557,,
3.80106144252919,0.327068014592374,0.00956855545195934,,
3.82045461315434,0.3238946424646,0.00952328522719315,,
3.83984778377949,0.321293554211362,0.00945981072352575,,
3.85924095440464,0.31841879719119,0.00939096055121524,,
3.87863412502979,0.314999419565341,0.00935277488467978,,
3.89802729565494,0.312099222217557,0.00925808330016054,,
3.91742046628009,0.309028105387175,0.00917852954396547,,
3.93681363690523,0.305784587113363,0.00909944991082945,,
3.95620680753038,0.302161192879672,0.00905700395867504,,
3.97559997815553,0.299133299906883,0.00894518254679211,,
3.99499314878068,0.295508917699305,0.00890958238586048,,
4.01438631940583,0.29144562809205,0.00881681799219391,,
4.03377949003098,0.288345613025448,0.00870200858174996,,
4.05317266065613,0.284505111529902,0.00865714426089781,,
4.07256583128128,0.280735991147754,0.00855236988671582,,
4.09195900190643,0.276894995665265,0.00847348467814379,,
4.11135217253157,0.273123652341869,0.00838605502163325,,
4.13074534315672,0.269257216531767,0.00830591116983159,,
4.15013851378187,0.26487036547624,0.00819838415314011,,
4.16953168440702,0.261191150717887,0.00810964468904141,,
4.18892485503217,0.257009335118273,0.00798784622717008,,
4.20831802565732,0.25275311273523,0.00789376179304346,,
4.22771119628247,0.248558422600891,0.00779050529484282,,
4.24710436690762,0.244006826899565,0.00770762585531815,,
4.26649753753277,0.239944525266197,0.0075819423131267,,
4.28589070815791,0.235489257018937,0.00750295477583673,,
4.30528387878306,0.231131829060758,0.00735856554402714,,
4.32467704940821,0.226280105416814,0.00727131325729413,,
4.34407022003336,0.221864356125068,0.00713225876264012,,
4.36346339065851,0.21723075859105,0.00703190498906814,,
4.38285656128366,0.212447976999968,0.0069243540956756,,
4.40224973190881,0.207570843902596,0.0067923978030815,,
4.42164290253396,0.202869323163789,0.00666248467388675,,
4.44103607315911,0.198091975429089,0.00656285743421137,,
4.46042924378426,0.193015765593315,0.0064221213376281,,
4.4798224144094,0.188151723149957,0.00631640895019903,,
4.49921558503455,0.183175545670328,0.00617312145758442,,
4.5186087556597,0.178192452373484,0.00607925532472242,,
4.53800192628485,0.173145634760873,0.00591913816898293,,
4.55739509691,0.168003230674613,0.00580170914336309,,
4.57678826753515,0.162877622144447,0.00565572017259752,,
4.5961814381603,0.157704374748375,0.00554521880117465,,
4.61557460878545,0.152413033598522,0.00539969372059668,,
4.6349677794106,0.147223669878405,0.00527361109640623,,
4.65436095003574,0.141839212189622,0.0051218132654256,,
4.67375412066089,0.136515020907997,0.00499454021715096,,
4.69314729128604,0.131258011850747,0.00485602806470142,,
4.71254046191119,0.125765371021244,0.00470823810850263,,
4.73193363253634,0.120401660784105,0.00458218277196965,,
4.75132680316149,0.114809203717746,0.00444069626478916,,
4.77071997378664,0.109458645882989,0.00428874835168891,,
4.79011314441179,0.103785421951298,0.00414901848749771,,
4.80950631503694,0.0983172334755192,0.00398507423771122,,
4.82889948566209,0.0928840871985753,0.00385710876511247,,
4.84829265628723,0.0873169160889078,0.0036798651929657,,
4.86768582691238,0.0816486320266555,0.00352931577234283,,
4.88707899753753,0.0760638317579266,0.00339690582243302,,
4.90647216816268,0.070404748202505,0.00327285612877004,,
4.92586533878783,0.0647527965835863,0.00308959903897232,,
4.94525850941298,0.0590699707806723,0.00294421380764254,,
4.96465168003813,0.0534162902074498,0.00282042334673083,,
4.98404485066328,0.0476050277991153,0.00264785619698893,,
5.00343802128843,0.0419597450039396,0.00250883922286516,,
5.02283119191357,0.0362453040366143,0.00234957139548309,,
5.04222436253872,0.0305172784283311,0.00218030946332703,,
5.06161753316387,0.0247944396829592,0.00202422405906955,,
5.08101070378902,0.0190355398906807,0.00188292856549532,,
5.10040387441417,0.0133542269227824,0.0017270239419731,,
5.11979704503932,0.00757232586342743,0.00158222198433444,,
5.13919021566447,0.00181095613642931,0.00140030540074054,,
5.15858338628962,-0.0039543654861202,0.00125570810053777,,
5.17797655691477,-0.00972141606297346,0.00109799908062413,,
5.19736972753992,-0.015447218730009,0.000956403422811114,,
5.21676289816506,-0.0211944480807372,0.000780469658252514,,
5.23615606879021,-0.0269832958314912,0.000611460136934028,,
5.25554923941536,-0.032726635035036,0.000467122069482961,,
5.27494241004051,-0.0384356421459781,0.00030425227123354,,
5.29433558066566,-0.0442034954516152,0.000128468588794561,,
5.31372875129081,-0.0498168543405398,-6.42965443553578E-07,,
5.33312192191596,-0.0555209215820426,-0.00019516303611633,,
5.35251509254111,-0.0611578065991716,-0.000307015146614908,,
5.37190826316626,-0.0669028747570202,-0.000488517298901758,,
5.3913014337914,-0.0725644591213454,-0.000629775271946187,,
5.41069460441655,-0.0782008501515305,-0.00079972110103288,,
5.4300877750417,-0.0838184696778464,-0.000960293619566954,,
5.44948094566685,-0.0894528847602558,-0.00111683097566129,,
5.468874116292,-0.0949919603624876,-0.00125627090848601,,
5.48826728691715,-0.100407045241794,-0.00145566353160564,,
5.5076604575423,-0.106042757039931,-0.00159679359375309,,
5.52705362816745,-0.111493100237361,-0.00175021674586828,,
5.5464467987926,-0.117061815056228,-0.00189846035938279,,
5.56583996941774,-0.122484371488062,-0.0020469171577262,,
5.58523314004289,-0.127972257693229,-0.00219182826599695,,
5.60462631066804,-0.133308798648452,-0.00234917060800521,,
5.62401948129319,-0.138488004762034,-0.00248169141402554,,
5.64341265191834,-0.1439851532224,-0.00266206283398063,,
5.66280582254349,-0.149214190268951,-0.00282630724800592,,
5.68219899316864,-0.15449367573215,-0.0029778083257046,,
5.70159216379379,-0.159648923478952,-0.00310986524153778,,
5.72098533441894,-0.164858015802642,-0.00326562489937654,,
5.74037850504409,-0.170017894677044,-0.00341154565099666,,
5.75977167566923,-0.175116642667134,-0.00358544989598508,,
5.77916484629438,-0.180186121930797,-0.00369619856180936,,
5.79855801691953,-0.185238682141631,-0.00386367485783934,,
5.81795118754468,-0.190159780077013,-0.00400080898355526,,
5.83734435816983,-0.194943055655039,-0.00415346978672293,,
5.85673752879498,-0.199730468373721,-0.00432595507349065,,
5.87613069942013,-0.204799330153704,-0.00443278454942231,,
5.89552387004528,-0.209633980373899,-0.00457606010368661,,
5.91491704067043,-0.214315000654533,-0.00473157246712397,,
5.93431021129557,-0.218909634968348,-0.00486000182991031,,
5.95370338192072,-0.223620294465617,-0.00499788466074502,,
5.97309655254587,-0.228160713712337,-0.00516449116267381,,
5.99248972317102,-0.232711815426718,-0.0052656328673728,,
6.01188289379617,-0.237113547838931,-0.0054225096137146,,
6.03127606442132,-0.241439082765043,-0.00556343842938345,,
6.05066923504647,-0.246063294547125,-0.0056803506949783,,
6.07006240567162,-0.250071998597077,-0.00582084120263904,,
6.08945557629677,-0.254272863568216,-0.00594250322621992,,
6.10884874692192,-0.258521645272915,-0.0060706460685962,,
6.12824191754706,-0.262757089330129,-0.00619514600861804,,
6.14763508817221,-0.266926092143385,-0.00632457137092413,,
6.16702825879736,-0.270859957171332,-0.00643825345999316,,
6.18642142942251,-0.274702681608125,-0.00655257339807003,,
6.20581460004766,-0.278774862980371,-0.00672361243895869,,
6.22520777067281,-0.282525397103755,-0.00680909102791638,,
6.24460094129796,-0.286157312612228,-0.00692731651205669,,
6.26399411192311,-0.289863881897601,-0.0070644762199521,,
6.28338728254826,-0.293560324450625,-0.00717039155933774,,
6.3027804531734,-0.296995571407048,-0.00726914729943307,,
6.32217362379855,-0.300372774897559,-0.00740059365391676,,
6.3415667944237,-0.303911635615471,-0.00750753228048096,,
6.36095996504885,-0.307168491536769,-0.00761725424816984,,
6.380353135674,-0.310464125433165,-0.0077122323530987,,
6.39974630629915,-0.313614774161519,-0.00781296303744794,,
6.4191394769243,-0.316793147907101,-0.00792368271013588,,
6.43853264754945,-0.31964833069462,-0.0080354921836685,,
6.4579258181746,-0.322476899935535,-0.00810727236826647,,
6.47731898879974,-0.325444773494637,-0.00821356120747252,,
6.49671215942489,-0.328029807172196,-0.00829836954332785,,
6.51610533005004,-0.33134242186979,-0.00839077919743936,,
6.53549850067519,-0.333616552514517,-0.00849414314079411,,
6.55489167130034,-0.336111495323179,-0.00856277330636157,,
6.57428484192549,-0.338784890915333,-0.00864905858671117,,
6.59367801255064,-0.340943366866814,-0.00874656932740603,,
6.61307118317579,-0.343306106419607,-0.00880773461300821,,
6.63246435380094,-0.345645628586036,-0.00891987324391641,,
6.65185752442609,-0.348177805660596,-0.00899885566477066,,
