Time domain (s),Current (AC) (A),Potential (AC) (V),Frequency (Hz),Column 5
0,0.275051864521846,0.00571935207537777,31.623,0.3
0.000239330847010088,0.276105994948003,0.0057612289379243,,
0.000478661694020175,0.276644169263934,0.00583596949424292,,
0.000717992541030263,0.276594266468584,0.00583812730795374,,
0.00095732338804035,0.275742744918247,0.00587375987772676,,
0.00119665423505044,0.274433634131396,0.00588484492957697,,
0.00143598508206053,0.272696382047337,0.00588067251987967,,
0.00167531592907061,0.269946261919142,0.00586541505833171,,
0.0019146467760807,0.266609299024427,0.0058129018928037,,
0.00215397762309079,0.262846839856992,0.00574621972043143,,
0.00239330847010088,0.25864548295943,0.00568873212595067,,
0.00263263931711096,0.25341450619597,0.00561198652149386,,
0.00287197016412105,0.247844789963014,0.00553564431362652,,
0.00311130101113114,0.241737075749093,0.0054498736055848,,
0.00335063185814123,0.23518764244559,0.00533740950072037,,
0.00358996270515131,0.22790712437346,0.00520599291702428,,
0.0038292935521614,0.220175012453657,0.00507562659663918,,
0.00406862439917149,0.212180161434661,0.00493322043957534,,
0.00430795524618158,0.203580128812693,0.0047457675343372,,
0.00454728609319166,0.194200166636543,0.00460659809783959,,
0.00478661694020175,0.184744027755124,0.00441029433724793,,
0.00502594778721184,0.174470752641718,0.00423184266597332,,
0.00526527863422193,0.164312800596012,0.00403882575215109,,
0.00550460948123201,0.15339149448292,0.00380476025162046,,
0.0057439403282421,0.14226528713945,0.00360457051677932,,
0.00598327117525219,0.130901380261946,0.00338491271929975,,
0.00622260202226228,0.119180924083389,0.00316053828477125,,
0.00646193286927237,0.107174981595038,0.00291849078308015,,
0.00670126371628245,0.0949119427264031,0.0026963505450488,,
0.00694059456329254,0.0824552880652087,0.00242293120087878,,
0.00717992541030263,0.0697388919992418,0.00218105078653297,,
0.00741925625731272,0.0569166729118634,0.00190808019123212,,
0.0076585871043228,0.043960108622339,0.00165422200122167,,
0.00789791795133289,0.0308535053187034,0.00137543676631946,,
0.00813724879834298,0.017723780092664,0.00111838720802204,,
0.00837657964535306,0.00455614284895587,0.000826098928693231,,
0.00861591049236315,-0.00866615823418165,0.000546318330608475,,
0.00885524133937324,-0.0218131642868794,0.000252970240120831,,
0.00909457218638333,-0.0349099148742952,1.698323512489E-06,,
0.00933390303339342,-0.0479169109640673,-0.000254439415274366,,
0.0095732338804035,-0.0607736696628916,-0.000546327878456321,,
0.00981256472741359,-0.0736602289709532,-0.000853853330155641,,
0.0100518955744237,-0.0863741563473975,-0.00114893077466238,,
0.0102912264214338,-0.098819128817101,-0.00138555509853155,,
0.0105305572684439,-0.111008283335023,-0.00165156769939978,,
0.0107698881154539,-0.12301440215834,-0.00193218850813315,,
0.011009218962464,-0.134643693159526,-0.00218813767691683,,
0.0112485498094741,-0.145981722880784,-0.00246602780104244,,
0.0114878806564842,-0.156961880788746,-0.0026750683912371,,
0.0117272115034943,-0.167708791620562,-0.00292895522479242,,
0.0119665423505044,-0.178019978751637,-0.00318016030646273,,
0.0122058731975145,-0.187928813574266,-0.00339935025937654,,
0.0124452040445246,-0.197444024669262,-0.00362184257431375,,
0.0126845348915346,-0.206195881696871,-0.00383747117981992,,
0.0129238657385447,-0.215133595778541,-0.00405762665889053,,
0.0131631965855548,-0.223076075312664,-0.00424435273417911,,
0.0134025274325649,-0.230686868775927,-0.00441534514898612,,
0.013641858279575,-0.237634422348694,-0.00460902205782077,,
0.0138811891265851,-0.244201533232528,-0.00477915635976434,,
0.0141205199735952,-0.250040689293382,-0.00493292326279748,,
0.0143598508206053,-0.255349958781702,-0.00504977102350246,,
0.0145991816676153,-0.260231792312677,-0.00519537570973894,,
0.0148385125146254,-0.264572850586975,-0.00535137800275054,,
0.0150778433616355,-0.268286420885113,-0.00544658914577667,,
0.0153171742086456,-0.271361702690431,-0.00555287579280517,,
0.0155565050556557,-0.273741519390234,-0.00562498233648068,,
0.0157958359026658,-0.275617547092457,-0.00570498256371943,,
0.0160351667496759,-0.27665003240155,-0.00575459198988959,,
0.016274497596686,-0.277070370876517,-0.0058128637014101,,
0.016513828443696,-0.276922998928765,-0.0058070299661126,,
0.0167531592907061,-0.27616594883641,-0.00586770534843728,,
0.0169924901377162,-0.274886991328728,-0.0058623979382757,,
0.0172318209847263,-0.27310107079408,-0.00583266593873866,,
0.0174711518317364,-0.270416194603268,-0.00584051427002308,,
0.0177104826787465,-0.26712454979479,-0.00579639366313112,,
0.0179498135257566,-0.26343064084535,-0.00576056058854446,,
0.0181891443727667,-0.259094387698873,-0.00570396094395376,,
0.0184284752197767,-0.254165164145811,-0.00562870480382793,,
0.0186678060667868,-0.248535494024449,-0.0055390779585629,,
0.0189071369137969,-0.242479490039279,-0.0054183084191779,,
0.019146467760807,-0.235631477554763,-0.00531227001620449,,
0.0193857986078171,-0.228460463496458,-0.00521010803963184,,
0.0196251294548272,-0.22094453824485,-0.0050831980403232,,
0.0198644603018373,-0.212376069581778,-0.00493965449583333,,
0.0201037911488474,-0.203949021561358,-0.00476989494693481,,
0.0203431219958574,-0.194684029782976,-0.00460041944652234,,
0.0205824528428675,-0.185148407915677,-0.00441908790551127,,
0.0208217836898776,-0.175126718714871,-0.00423586469705972,,
0.0210611145368877,-0.164747995291856,-0.00402247983589898,,
0.0213004453838978,-0.1538952834805,-0.00383155270736868,,
0.0215397762309079,-0.14277207383145,-0.00361820484411979,,
0.021779107077918,-0.131373428965663,-0.00340805789700616,,
0.0220184379249281,-0.11959689826795,-0.00317612992100846,,
0.0222577687719381,-0.107611763305575,-0.00291855761801774,,
0.0224970996189482,-0.0953596572048263,-0.0026959781789655,,
0.0227364304659583,-0.0828892484162916,-0.00243197062623546,,
0.0229757613129684,-0.0702313955590039,-0.00219069769373625,,
0.0232150921599785,-0.0573715069145349,-0.00190554046358971,,
0.0234544230069886,-0.0444568662631535,-0.00164891339757878,,
0.0236937538539987,-0.031422846839857,-0.00136505586827917,,
0.0239330847010088,-0.0182811749198778,-0.00109691409724499,,
0.0241724155480188,-0.00509907820896575,-0.000846616061160876,,
0.0244117463950289,0.00813415564205765,-0.000560161517130009,,
0.024651077242039,0.0212328238722277,-0.000283486356697615,,
0.0248904080890491,0.0343814389814892,-1.55248012996267E-05,,
0.0251297389360592,0.0474189410203623,0.000268857859655025,,
0.0253690697830693,0.0602839874625839,0.000539501166938017,,
0.0256084006300794,0.0730938410604785,0.000828915543935604,,
0.0258477314770895,0.0858363347013988,0.00109216642968946,,
0.0260870623240995,0.0981984738208701,0.00139467329363763,,
0.0263263931711096,0.110430676112343,0.00166196291921272,,
0.0265657240181197,0.122365709902531,0.00190919728948069,,
0.0268050548651298,0.134047548723555,0.0021672087934923,,
0.0270443857121399,0.145463827085932,0.0024349519418605,,
0.02728371655915,0.156558823140438,0.00270766474525797,,
0.0275230474061601,0.167053222301083,0.00289784833510387,,
0.0277623782531702,0.17734624693067,0.00315891515056421,,
0.0280017091001802,0.187266675777307,0.00342480362940467,,
0.0282410399471903,0.196831436997721,0.00362214571849684,,
0.0284803707942004,0.205731415396688,0.00383420581570926,,
0.0287197016412105,0.214254918643455,0.00403982827622018,,
0.0289590324882206,0.222428925987806,0.0042392040569954,,
0.0291983633352307,0.230005157797753,0.00441104145637539,,
0.0294376941822408,0.23709047306263,0.00461698615676598,,
0.0296770250292509,0.243308396630239,0.00477528948121231,,
0.0299163558762609,0.249449261817749,0.00491765744688255,,
0.030155686723271,0.254723969652752,0.00507092905528639,,
0.0303950175702811,0.259766973342561,0.00520261297873414,,
0.0306343484172912,0.263949462398773,0.00534972622499863,,
0.0308736792643013,0.267700107123492,0.00544310179419361,,
0.0311130101113114,0.270522171917775,0.00551203009787349,,
0.0313523409583215,0.273193470316213,0.00563359330214652,,
0.0315916718053316,0.274794768141562,0.00569605532558004,,
0.0318310026523417,0.275967924669703,0.00575041122582531,,
0.0320703334993517,0.276678907252216,0.0058101521124998,,
0.0323096643463618,0.276592503118925,0.00584150724624433,,
0.0325489951933719,0.27599084821527,0.00586110897875836,,
0.032788326040382,0.274562005986572,0.00585180937453611,,
0.0330276568873921,0.272765858023902,0.00586451756059381,,
0.0332669877344022,0.270211469707857,0.00583599813778779,,
0.0335063185814123,0.267106739963234,0.00582033966661211,,
0.0337456494284223,0.263418870486376,0.00575651230087493,,
0.0339849802754324,0.259072918916774,0.00572546269827567,,
0.0342243111224425,0.254075056978236,0.00565804534158598,,
0.0344636419694526,0.248660515515273,0.00555284714926074,,
0.0347029728164627,0.242703215027266,0.00547333266880345,,
0.0349423036634728,0.236055034142858,0.00533983465418286,,
0.0351816345104829,0.228964957833901,0.0052151206599782,,
0.035420965357493,0.221181003434123,0.00508533675833789,,
0.035660296204503,0.213031682984998,0.00495332820804872,,
0.0358996270515131,0.204492133256334,0.00477414373941887,,
0.0361389578985232,0.195460608972805,0.00460539506895685,,
0.0363782887455333,0.185815615342905,0.00445942756448536,,
0.0366176195925434,0.175982824974321,0.00425174992963262,,
0.0368569504395535,0.165695950026671,0.00404381927680042,,
0.0370962812865636,0.154992792308269,0.00386245073787705,,
0.0373356121335737,0.143801010399355,0.00364129154125603,,
0.0375749429805838,0.132411005946897,0.0034281931155431,,
0.0378142738275938,0.120695310812419,0.00318386367811385,,
0.0380536046746039,0.108762150581244,0.00295950595231975,,
0.038292935521614,0.0965324610630353,0.00267364576184415,,
0.0385322663686241,0.0840264326113886,0.00244592241953168,,
0.0387715972156342,0.071366640069476,0.0021943819696908,,
0.0390109280626443,0.0586366662111347,0.00193130055824398,,
0.0392502589096544,0.0455693856048951,0.00168826962818036,,
0.0394895897566645,0.0325404798956097,0.00138233747366234,,
0.0397289206036745,0.0193975515889985,0.00112905931543494,,
0.0399682514506846,0.00623538072923325,0.000848154458215067,,
0.0402075822976947,-0.00694883200126961,0.000592386698548886,,
0.0404469131447048,-0.0201402303816329,0.000308825152546266,,
0.0406862439917149,-0.0332359670429949,1.74248231070706E-05,,
0.040925574838725,-0.0461994524799309,-0.000232241861509497,,
0.0411649056857351,-0.059113696377639,-0.00051401795988415,,
0.0414042365327452,-0.072032480900719,-0.000811882182607526,,
0.0416435673797552,-0.0846457210116337,-0.00107747467815145,,
0.0418828982267653,-0.0971497656949141,-0.00134131036961227,,
0.0421222290737754,-0.109468746831481,-0.00162574076980837,,
0.0423615599207855,-0.121343672440167,-0.00189549612720175,,
0.0426008907677956,-0.133285032247257,-0.00213994133229134,,
0.0428402216148057,-0.144717577510238,-0.00238183487492849,,
0.0430795524618158,-0.155646113356933,-0.00264023784071954,,
0.0433188833088258,-0.166403604286703,-0.00290592581474636,,
0.0435582141558359,-0.176688693842824,-0.00313082538093035,,
0.043797545002846,-0.186669252912833,-0.00337003717168249,,
0.0440368758498561,-0.196218496656248,-0.00360802564437446,,
0.0442762066968662,-0.205386327868419,-0.00383389073671569,,
0.0445155375438763,-0.214101683558087,-0.00400873093437903,,
0.0447548683908864,-0.222128627540877,-0.00422177207300178,,
0.0449941992378965,-0.229701024065314,-0.00441540243607585,,
0.0452335300849066,-0.236755789297349,-0.00458756804274074,,
0.0454728609319166,-0.243327969811454,-0.00473989560764565,,
0.0457121917789267,-0.249452083177203,-0.00489379737403617,,
0.0459515226259368,-0.254789389925102,-0.00505933796747682,,
0.0461908534729469,-0.259698908045724,-0.00517954537729448,,
0.046430184319957,-0.264136024792696,-0.00530279019634561,,
0.0466695151669671,-0.267716329940355,-0.00544814544504613,,
0.0469088460139772,-0.270817709320625,-0.00551592561997039,,
0.0471481768609873,-0.273193470316213,-0.00561086106887743,,
0.0473875077079973,-0.275162426545466,-0.00568151395265248,,
0.0476268385550074,-0.276379534563858,-0.0057191420227154,,
0.0478661694020175,-0.276938295987057,-0.00579626954110335,,
0.0481055002490276,-0.27696708267024,-0.00586939651106322,,
0.0483448310960377,-0.276539999382828,-0.00585851077054533,,
0.0485841619430478,-0.274850269572079,-0.00584847717548653,,
0.0488234927900579,-0.273084495307286,-0.00585818733718524,,
0.049062823637068,-0.270771156889628,-0.00584736007723796,,
0.049302154484078,-0.267607883936326,-0.00579013027466102,,
0.0495414853310881,-0.264111866902368,-0.00575605400415746,,
0.0497808161780982,-0.259592357642578,-0.00570191770442197,,
0.0500201470251083,-0.254651319646801,-0.00564312205472728,,
0.0502594778721184,-0.249229195780304,-0.00555278031432271,,
0.0504988087191285,-0.2432098253843,-0.00543791015169237,,
0.0507381395661386,-0.236481764760339,-0.00533220711688953,,
0.0509774704131487,-0.22956912551082,-0.00521574007663483,,
0.0512168012601587,-0.22184455191081,-0.00507739294857013,,
0.0514561321071688,-0.213680419324549,-0.00495585003347454,,
0.0516954629541789,-0.205211403582245,-0.00479078563896662,,
0.051934793801189,-0.195974625398407,-0.0046463648859163,,
0.0521741246481991,-0.186355376673529,-0.00445784262167104,,
0.0524134554952092,-0.17636317949577,-0.00427132540556396,,
0.0526527863422193,-0.166121821011193,-0.00405004447387691,,
0.0528921171892294,-0.155261703131268,-0.00386497853070811,,
0.0531314480362394,-0.144211804744292,-0.00362407677081045,,
0.0533707788832495,-0.132784990367703,-0.00340787648788865,,
0.0536101097302596,-0.121053733672484,-0.00319146376534274,,
0.0538494405772697,-0.109060707720386,-0.00295567965212218,,
0.0540887714242798,-0.0969535489616075,-0.00273641331642205,,
0.0543281022712899,-0.084557729863649,-0.00246748981530986,,
0.0545674331183,-0.0718631993334538,-0.00222104910993037,,
0.0548067639653101,-0.059100250836489,-0.0019368287623962,,
0.0550460948123201,-0.0461141063564347,-0.00170941691863424,,
0.0552854256593302,-0.0330603815006987,-0.00143218678952062,,
0.0555247565063403,-0.0199755776072227,-0.00116871272281305,,
0.0557640873533504,-0.00675570112986629,-0.00090367519595036,,
0.0560034182003605,0.00640201727200991,-0.000589218006401548,,
0.0562427490473706,0.0195849956577515,-0.000348763801891749,,
0.0564820798943807,0.0327148972187567,-1.72827988635937E-05,,
0.0567214107413908,0.0457598053261976,0.000239574608987159,,
0.0569607415884008,0.0586969948113436,0.000512098842381015,,
0.0572000724354109,0.0715262232136166,0.000777673435709225,,
0.057439403282421,0.0842487689615193,0.00105936002300666,,
0.0576787341294311,0.096572819728356,0.00134026010630217,,
0.0579180649764412,0.108849105761304,0.00162202665682898,,
0.0581573958234513,0.120823329997664,0.00189473468630164,,
0.0583967266704614,0.132567040349849,0.00215601871531046,,
0.0586360575174715,0.144046468671889,0.0024096477569624,,
0.0588753883644815,0.155073730057617,0.00261261591565232,,
0.0591147192114916,0.165745345858994,0.00290051218477316,,
0.0593540500585017,0.176133944040099,0.00313413132339679,,
0.0595933809055118,0.186153473137572,0.00337057185118672,,
0.0598327117525219,0.19571594200343,0.00359705636018459,,
0.060072042599532,0.204869137413431,0.0038065743427933,,
0.0603113734465421,0.213321224999008,0.00400710780017199,,
0.0605507042935522,0.22144832724243,0.00422419722646472,,
0.0607900351405622,0.228946795332413,0.00438207089773845,,
0.0610293659875723,0.236253410979497,0.00457743896919904,,
0.0612686968345824,0.242491436733218,0.00473985741625338,,
0.0615080276815925,0.248720116733747,0.00491076628738796,,
0.0617473585286026,0.254261443037193,0.00504475840315699,,
0.0619866893756127,0.258927442569906,0.00517793179093573,,
0.0622260202226228,0.263210442556681,0.00532296360627615,,
0.0624653510696329,0.267002349663421,0.00542144011341339,,
0.0627046819166429,0.27035976741418,0.00551526443147754,,
0.062944012763653,0.272475081665131,0.00559727328729753,,
0.0631833436106631,0.274671510000397,0.00569216935133099,,
0.0634226744576732,0.275861242015332,0.00577312555687826,,
0.0636620053046833,0.276474535026737,0.0058098179378101,,
0.0639013361516934,0.276578396321653,0.00582899001715198,,
0.0641406669987035,0.276234014133248,0.00587435184431984,,
0.0643799978457136,0.274900040116205,0.00586672311354608,,
0.0646193286927236,0.273179892523838,0.00586237884257956,,
0.0648586595397337,0.270441586838358,0.00581272048368664,,
0.0650979903867438,0.267481804435706,0.00581268229229348,,
0.0653373212337539,0.263845072098959,0.00576305257694543,,
0.065576652080764,0.25970807746395,0.00573988949702331,,
0.0658159829277741,0.254780396841841,0.0056196176392298,,
0.0660553137747842,0.249522440828598,0.00556122299916284,,
0.0662946446217943,0.243373640567622,0.00547871526827004,,
0.0665339754688044,0.236957869168272,0.00536543243541576,,
0.0667733063158144,0.229975004518584,0.00523073139191244,,
0.0670126371628245,0.222305491511676,0.00510384048829993,,
0.0672519680098346,0.214050017413078,0.00495920013473938,,
0.0674912988568447,0.205558959800036,0.00482553980669831,,
0.0677306297038548,0.196503277626179,0.00464750107986189,,
0.0679699605508649,0.187127547489211,0.0044531355324704,,
0.068209291397875,0.177158626526951,0.00429286535127904,,
0.068448622244885,0.166982511979757,0.00407766639894502,,
0.0686879530918951,0.156378256135355,0.0038773048028351,,
0.0689272839389052,0.145277815738777,0.00367726783356659,,
0.0691666147859153,0.133973488037877,0.00345068784608582,,
0.0694059456329254,0.122317923126772,0.00321899021192795,,
0.0696452764799355,0.110287646413126,0.00298710162080473,,
0.0698846073269456,0.0981238841302939,0.00271438643044553,,
0.0701239381739557,0.0856375831529574,0.00250128800473304,,
0.0703632690209657,0.0731190569606024,0.00222910749387717,,
0.0706025998679758,0.0603199597956278,0.0019646989315194,,
0.0708419307149859,0.0472919798449134,0.0017011783190517,,
0.071081261561996,0.0342518548234226,0.00143555717996291,,
0.0713205924090061,0.0211258105897964,0.00118709591119126,,
0.0715599232560162,0.00794794591806596,0.000890515874061748,,
0.0717992541030263,-0.00525830868317456,0.000598936522467675,,
0.0720385849500364,-0.0184552175312223,0.000340037068566446,,
0.0722779157970465,-0.0315207127459322,4.67080737753811E-05,,
0.0725172466440565,-0.0445914098421361,-0.000197715648655894,,
0.0727565774910666,-0.0574485212108922,-0.000494080859199109,,
0.0729959083380767,-0.0703548741188762,-0.000760638880900277,,
0.0732352391850868,-0.083095560326396,-0.00103223697301091,,
0.0734745700320969,-0.0956059971521903,-0.0013114840850732,,
0.073713900879107,-0.107921054835766,-0.00157109962759572,,
0.0739532317261171,-0.119853112973404,-0.00184675555522418,,
0.0741925625731271,-0.131693300593808,-0.00211058050535584,,
0.0744318934201372,-0.143248707244281,-0.00238920581379931,,
0.0746712242671473,-0.15426223654454,-0.00261929940944627,,
0.0749105551141574,-0.164956599556518,-0.00284314871231972,,
0.0751498859611675,-0.175379406721007,-0.00309993928523244,,
0.0753892168081776,-0.185411631936026,-0.00334584173066554,,
0.0756285476551877,-0.194790183432448,-0.00356555800871572,,
0.0758678785021978,-0.204053940866069,-0.003761185065561,,
0.0761072093492079,-0.212814261972042,-0.00399520163336931,,
0.0763465401962179,-0.220986858636666,-0.00420728798716441,,
0.076585871043228,-0.228616167271349,-0.00437748793056469,,
0.0768252018902381,-0.235905325756808,-0.00457616910537784,,
0.0770645327372482,-0.242520752421299,-0.00472741656994691,,
0.0773038635842583,-0.248538315383903,-0.00489742436290053,,
0.0775431944312684,-0.254166222155607,-0.00504543630038423,,
0.0777825252782785,-0.259390850860294,-0.00519429560940265,,
0.0780218561252886,-0.263558880449301,-0.00530268397653355,,
0.0782611869722986,-0.267346379181894,-0.00542245218533033,,
0.0785005178193087,-0.270344955277044,-0.00548415038090155,,
0.0787398486663188,-0.27294924638844,-0.00560523738624186,,
0.0789791795133289,-0.275058344831843,-0.00568999244192314,,
