Time domain (s),Current (AC) (A),Potential (AC) (V),Frequency (Hz),Column 5
0,0.447517484436027,0.0173267394926406,0.012589,0.5
0.193931706251489,0.445584402750211,0.0173673019021825,,
0.387863412502979,0.443707183920798,0.0174264112518068,,
0.581795118754468,0.442048028728821,0.0174481421451342,,
0.775726825005958,0.440020518965936,0.017481231337992,,
0.969658531257447,0.43785661309173,0.017525724197589,,
1.16359023750894,0.435808402879518,0.017532455041755,,
1.35752194376043,0.433432104723857,0.0175541199464146,,
1.55145365001192,0.431229633628986,0.0176303409825858,,
1.7453853562634,0.428639241785076,0.0176304564627552,,
1.93931706251489,0.425892887651714,0.0176261671993161,,
2.13324876876638,0.423324330528328,0.0176208509872269,,
2.32718047501787,0.420789801540822,0.0176345972516905,,
2.52111218126936,0.417572157725514,0.0176337682690453,,
2.71504388752085,0.414756329481396,0.0176153285605487,,
2.90897559377234,0.411700035743721,0.0175981343881664,,
3.10290730002383,0.40834627938489,0.0175863760323347,,
3.29683900627532,0.405240077714591,0.0175565285328072,,
3.49077071252681,0.401703136557603,0.0175515092697252,,
3.6847024187783,0.398164210426022,0.0175298484893576,,
3.87863412502979,0.394497678784889,0.0174910182823584,,
4.07256583128128,0.391054882137171,0.0174533222555957,,
4.26649753753277,0.387213105596253,0.0174153127826582,,
4.46042924378426,0.383320286851514,0.0173568921897593,,
4.65436095003575,0.379250521800196,0.0173561374443656,,
4.84829265628724,0.375657150651206,0.0172888290027058,,
5.04222436253872,0.37159844474405,0.0171983915328089,,
5.23615606879021,0.367394552123802,0.0171767307524417,,
5.4300877750417,0.362835916187,0.0171051784145524,,
5.62401948129319,0.358571056489967,0.0170200901510791,,
5.81795118754468,0.354161577215441,0.0169676786512865,,
6.01188289379617,0.349558988269793,0.016891263773402,,
6.20581460004766,0.345277114504819,0.0168137930768251,,
6.39974630629915,0.340468371769294,0.0167281892768809,,
6.59367801255064,0.335567753066892,0.0166190151494803,,
6.78760971880213,0.330656925923726,0.0165703979981147,,
6.98154142505362,0.325729935416016,0.0164467269851487,,
7.17547313130511,0.320551703838388,0.0163554522840226,,
7.3694048375566,0.315876521536195,0.0162333691233871,,
7.56333654380809,0.31043797471908,0.0161486396732977,,
7.75726825005958,0.305252086810879,0.0160167819411714,,
7.95119995631106,0.299971203690011,0.0158724812207796,,
8.14513166256256,0.29460443497202,0.0157903748202548,,
8.33906336881404,0.28913466025104,0.0156588264100113,,
8.53299507506553,0.283798197841567,0.015537856808153,,
8.72692678131702,0.278125140454675,0.0154231973727006,,
8.92085848756851,0.272412950711521,0.015255140731723,,
9.11479019382,0.26655022191307,0.0151497692013329,,
9.30872190007149,0.260790357333708,0.0149986427780648,,
9.50265360632298,0.254922169855127,0.0148681336893466,,
9.69658531257447,0.249006413878262,0.0147186198641598,,
9.89051701882596,0.242893826402913,0.0145544730517786,,
10.0844487250774,0.236974632166485,0.0143973581568626,,
10.2783804313289,0.231031334667142,0.0141998293269081,,
10.4723121375804,0.224900598852656,0.014065579505556,,
10.6662438438319,0.218793399165488,0.013915768731362,,
10.8601755500834,0.212378280294576,0.0137437692674536,,
11.0541072563349,0.206088427498874,0.0135811401944435,,
11.2480389625864,0.199821862708665,0.013411961746105,,
11.4419706688379,0.193517583401189,0.0132289215531332,,
11.6359023750894,0.187087967126552,0.0130368491611881,,
11.8298340813409,0.180540953783128,0.0128490454112238,,
12.0237657875923,0.174062599293037,0.0126562100253018,,
12.2176974938438,0.167568294114253,0.0124622198376851,,
12.4116292000953,0.160869855566159,0.0122390502858067,,
12.6055609063468,0.154255069518773,0.0120781781610897,,
12.7994926125983,0.147536214089151,0.0118600196237102,,
12.9934243188498,0.140839157934078,0.0116543370689297,,
13.1873560251013,0.134170813018654,0.0114387025981122,,
13.3812877313528,0.127180583205385,0.0112752156724141,,
13.5752194376043,0.120406999190556,0.0110615443644786,,
13.7691511438557,0.113576985183724,0.0108341309163706,,
13.9630828501072,0.106763099095461,0.010601318770338,,
14.1570145563587,0.0999248970684336,0.0103895157665734,,
14.3509462626102,0.0929411893145415,0.0101425572997753,,
14.5448779688617,0.0860340094204058,0.00994067321771341,,
14.7388096751132,0.0790509042480867,0.00974271133712357,,
14.9327413813647,0.0720612415704155,0.00949515484801911,,
15.1266730876162,0.065055131960402,0.0092484562116022,,
15.3206047938677,0.058073692748902,0.00902329050250827,,
15.5145365001192,0.0510162573672686,0.00880048801259736,,
15.7084682063706,0.0440510169662868,0.00854895570622816,,
15.9023999126221,0.0369807855877233,0.00830028153405449,,
16.0963316188736,0.0299139924687228,0.00807290108028047,,
16.2902633251251,0.0228914359263671,0.00782911831814426,,
16.4841950313766,0.0157985545698581,0.00757923985277387,,
16.6781267376281,0.00874140275602379,0.00729481219526029,,
16.8720584438796,0.00162583597559445,0.00708502184587845,,
17.0659901501311,-0.00543386794843093,0.00680176548722677,,
17.2599218563826,-0.0125483004576642,0.00657236413048645,,
17.453853562634,-0.019630973373409,0.00632357447814336,,
17.6477852688855,-0.0266840843461075,0.00604644269276777,,
17.841716975137,-0.03376172393342,0.00580196704961411,,
18.0356486813885,-0.0407933546453439,0.00554923045004863,,
18.22958038764,-0.0479370655298245,0.00528418283955423,,
18.4235120938915,-0.054934313646119,0.00500620969865784,,
18.617443800143,-0.0619228420525942,0.00474983134946072,,
18.8113755063945,-0.0689346230185877,0.00449553989189866,,
19.005307212646,-0.0758922425349714,0.00421135969189068,,
19.1992389188975,-0.0829218882723022,0.00394202694224921,,
19.3931706251489,-0.0899206251195415,0.00367419543481162,,
19.5871023314004,-0.0967670860587153,0.00340761358777941,,
19.7810340376519,-0.1037670280691,0.00313094372308198,,
19.9749657439034,-0.110666161726939,0.0028463675910646,,
20.1688974501549,-0.117485116589609,0.00258775800002065,,
20.3628291564064,-0.124161720417179,0.00231546813318095,,
20.5567608626579,-0.131035687432856,0.00204185024439241,,
20.7506925689094,-0.137863645573145,0.00177229065870321,,
20.9446242751609,-0.144574064860746,0.00149371949550048,,
21.1385559814123,-0.151139226543307,0.00119821399029707,,
21.3324876876638,-0.157890975837613,0.000970837660815072,,
21.5264193939153,-0.164545461376861,0.000701772990138405,,
21.7203511001668,-0.17095437720217,0.00039224901721413,,
21.9142828064183,-0.177611698419407,0.000123835984636944,,
22.1082145126698,-0.184014659320937,-0.000158013990521511,,
22.3021462189213,-0.190434917858207,-0.000447176334985588,,
22.4960779251728,-0.197001780947562,-0.000702338018110815,,
22.6900096314243,-0.203418920239042,-0.000998297195409226,,
22.8839413376757,-0.209598996850554,-0.00124813029356963,,
23.0778730439272,-0.21587208370014,-0.00149367206614537,,
23.2718047501787,-0.222162468185465,-0.00179916866815821,,
23.4657364564302,-0.228269384304834,-0.00207567562333066,,
23.6596681626817,-0.234303707067658,-0.00234651167732203,,
23.8535998689332,-0.240424801576977,-0.00262623764221992,,
24.0475315751847,-0.246588431256147,-0.00290132790316999,,
24.2414632814362,-0.252525206696113,-0.0031825056187702,,
24.4353949876877,-0.258287658831641,-0.00346086231880083,,
24.6293266939392,-0.263813686314749,-0.00371444027388756,,
24.8232584001906,-0.269761875358625,-0.00397994568076809,,
25.0171901064421,-0.27534823189097,-0.00425283975635127,,
25.2111218126936,-0.281143719675082,-0.00451188033588501,,
25.4050535189451,-0.286669321806491,-0.00479599454722468,,
25.5989852251966,-0.292087451742078,-0.00506715848241113,,
25.7929169314481,-0.297639425678794,-0.00533079764726674,,
25.9868486376996,-0.302811985900442,-0.00559628861912564,,
26.1807803439511,-0.308223381100802,-0.00584245934619609,,
26.3747120502026,-0.313405511735666,-0.00612867075989998,,
26.568643756454,-0.318553968694399,-0.00638495218824042,,
26.7625754627055,-0.323701220489985,-0.00662812043090355,,
26.956507168957,-0.328457574074644,-0.00688085703046903,,
27.1504388752085,-0.333525781346258,-0.0071699533862648,,
27.34437058146,-0.338120146825735,-0.00740051779328343,,
27.5383022877115,-0.343312769469163,-0.00764335609260502,,
27.732233993963,-0.347695380694733,-0.00792220770764818,,
27.9261657002145,-0.352394099124243,-0.00814424307929018,,
28.120097406466,-0.356739208508395,-0.00841685876517939,,
28.3140291127175,-0.361378590375964,-0.00868254770304366,,
28.5079608189689,-0.365352651295118,-0.00891114688503469,,
28.7018925252204,-0.369747881287744,-0.00913422157820243,,
28.8958242314719,-0.37394638611981,-0.00936542937473694,,
29.0897559377234,-0.377965321643156,-0.00962019512585277,,
29.2836876439749,-0.382073155671491,-0.00984650326376668,,
29.4776193502264,-0.385731180278654,-0.0100890590491023,,
29.6715510564779,-0.389767484329689,-0.0103198069871047,,
29.8654827627294,-0.393672780057584,-0.0105683698034009,,
30.0594144689809,-0.397031640636797,-0.0107708560320607,,
30.2533461752323,-0.400476422259108,-0.0109649452026801,,
30.4472778814838,-0.403959485534285,-0.0111860876651542,,
30.6412095877353,-0.407479412623332,-0.0114221992446013,,
30.8351412939868,-0.410808994827298,-0.0116453522993125,,
31.0290730002383,-0.413596820751265,-0.0118502471143653,,
31.2230047064898,-0.416609728615691,-0.0120598621813466,,
31.4169364127413,-0.4195707435729,-0.0122432281933684,,
31.6108681189928,-0.4226341973975,-0.0124620796117649,,
31.8047998252443,-0.425456193241247,-0.0126804691094837,,
31.9987315314958,-0.428023616093437,-0.0128786640125584,,
32.1926632377472,-0.430501431521141,-0.0130579593486049,,
32.3865949439987,-0.433018379305109,-0.0132633800108577,,
32.5805266502502,-0.435658395513844,-0.0134464985653735,,
32.7744583565017,-0.437435585802157,-0.0136508489739127,,
32.9683900627532,-0.439660742320949,-0.0138178332990302,,
33.1623217690047,-0.441675704208727,-0.0140028490277593,,
33.3562534752562,-0.443548669521155,-0.0141662039761208,,
33.5501851815077,-0.445531375571797,-0.0143648133705185,,
33.7441168877592,-0.446919723515725,-0.0145059796291664,,
33.9380485940106,-0.448850465767199,-0.0146798597701205,,
34.1319803002621,-0.450422069401234,-0.0148432642099836,,
34.3259120065136,-0.451793048817473,-0.0149894456074215,,
34.5198437127651,-0.45328121262665,-0.0151724507439135,,
34.7137754190166,-0.454289367044062,-0.015273576315928,,
34.9077071252681,-0.455303759953053,-0.0154529665106851,,
35.1016388315196,-0.4565581930039,-0.0156010120880024,,
35.2955705377711,-0.457123060059518,-0.0157336988027743,,
35.4895022440226,-0.458527075124341,-0.0158716481138428,,
35.6834339502741,-0.458666236021703,-0.0160134247676722,,
35.8773656565255,-0.459149790010956,-0.0161362626737014,,
36.071297362777,-0.459441864843931,-0.0162456883828996,,
36.2652290690285,-0.460257334941919,-0.0163807836840641,,
36.45916077528,-0.46000354176181,-0.0164855901864822,,
36.6530924815315,-0.460410461553382,-0.0166539767708009,,
36.847024187783,-0.460280091257789,-0.016708052422322,,
37.0409558940345,-0.460376433417501,-0.0168246069698421,,
37.234887600286,-0.460004959600805,-0.0169085796123918,,
37.4288193065375,-0.45940783670805,-0.0170214016758616,,
37.6227510127889,-0.458992055422759,-0.0171465821796151,,
37.8166827190404,-0.458433993994318,-0.0172224340916731,,
38.0106144252919,-0.458078399974365,-0.0173192105980178,,
38.2045461315434,-0.457640004157104,-0.0173860385596867,,
38.3984778377949,-0.456576412234986,-0.0174805343326834,,
38.5924095440464,-0.455463337731943,-0.0175562728267176,,
38.7863412502979,-0.454517284662513,-0.0176355087201716,,
38.9802729565494,-0.453527987503734,-0.0176801170599385,,
39.1742046628009,-0.4519133524562,-0.017735976467649,,
39.3681363690523,-0.450577464555089,-0.0177931061572245,,
39.5620680753038,-0.449171251839823,-0.0178447422901646,,
39.7559997815553,-0.447442338969291,-0.0178909838494716,,
39.9499314878068,-0.445910505719066,-0.0179627465262411,,
40.1438631940583,-0.444096806076631,-0.0179807284383511,,
40.3377949003098,-0.442008045669161,-0.0180252872866169,,
40.5317266065613,-0.439788844074149,-0.0180436981250707,,
40.7256583128128,-0.437903401778566,-0.0180876465781545,,
40.9195900190643,-0.435733257412781,-0.0180947898514972,,
41.1135217253157,-0.433445715978209,-0.0180998379846216,,
41.3074534315672,-0.43124267774774,-0.0181379134462274,,
41.5013851378187,-0.428294139773687,-0.0181318259915773,,
41.6953168440702,-0.425613927829443,-0.0181384578527406,,
41.8892485503217,-0.423285198172065,-0.0181480921983117,,
42.0831802565732,-0.420378415556416,-0.0181778695848793,,
42.2771119628247,-0.417219682951351,-0.0181557633810008,,
42.4710436690762,-0.414167359162863,-0.0181609104971279,,
42.6649753753277,-0.410951133186549,-0.018146607453275,,
42.8589070815792,-0.407918375576192,-0.0181118809165852,,
43.0528387878306,-0.404629556243334,-0.0180499835457257,,
43.2467704940821,-0.40105716911147,-0.018038386037273,,
43.4407022003336,-0.397624297336717,-0.0179899503547452,,
43.6346339065851,-0.394151938745953,-0.0180157189297141,,
43.8285656128366,-0.390296338274833,-0.0179405908308614,,
44.0224973190881,-0.38652155462643,-0.0179184681298161,,
44.2164290253396,-0.382701612806035,-0.0178519515521756,,
44.4103607315911,-0.378979076524599,-0.0178198810593848,,
44.6042924378426,-0.374952697346528,-0.017762850352812,,
44.7982241440941,-0.370702654066993,-0.0177253357948866,,
44.9921558503455,-0.366336915125464,-0.0176522368475842,,
45.186087556597,-0.362013002434288,-0.0175498389315591,,
45.3800192628485,-0.357755799067828,-0.0175119779331254,,
45.5739509691,-0.35318440258007,-0.0174167397876102,,
45.7678826753515,-0.348749969339232,-0.0173386421986845,,
45.961814381603,-0.343982698394312,-0.0172533518449147,,
46.1557460878545,-0.339245627419985,-0.0171490897490103,,
46.349677794106,-0.334587742753531,-0.0170796366756307,,
46.5436095003575,-0.329613963558986,-0.016998800556971,,
46.7375412066089,-0.324499180276385,-0.01687642457162,,
46.9314729128604,-0.319439550930691,-0.0167682691442863,,
47.1254046191119,-0.314263304327656,-0.0166764933417105,,
47.3193363253634,-0.309513543694324,-0.0165623659398961,,
47.5132680316149,-0.303903154791013,-0.0164702643182708,,
47.7071997378664,-0.298657150509422,-0.0163403511897133,,
47.9011314441179,-0.29314402536117,-0.016175740394508,,
48.0950631503694,-0.287674853221763,-0.0160769223637378,,
48.2889948566209,-0.282042346030129,-0.0159519233288221,,
48.4829265628724,-0.276521848119102,-0.0158265118647298,,
48.6768582691238,-0.270952647438596,-0.0156562281061974,,
48.8707899753753,-0.265080383672903,-0.0155349718660611,,
49.0647216816268,-0.259387547432031,-0.0153711240648335,,
49.2586533878783,-0.253486855994489,-0.0152570482166663,,
49.4525850941298,-0.247542636899799,-0.0150835784427428,,
49.6465168003813,-0.241590265230887,-0.0149452002053305,,
49.8404485066328,-0.235583448544567,-0.0147670637952713,,
50.0343802128843,-0.229581948754478,-0.0146272997958246,,
50.2283119191358,-0.223291918728902,-0.0144577419126435,,
50.4222436253872,-0.217194998374448,-0.0142920278693905,,
50.6161753316387,-0.210733835182172,-0.0141058573389663,,
50.8101070378902,-0.204636560367969,-0.0139485238565866,,
51.0040387441417,-0.198212969909061,-0.0137586744579048,,
51.1979704503932,-0.191887635692509,-0.0135875988353531,,
51.3919021566447,-0.185492614689351,-0.0134164242297987,,
51.5858338628962,-0.178813742319389,-0.0132179468127376,,
51.7797655691477,-0.172405960765276,-0.0130257383191643,,
51.9736972753992,-0.165821800040182,-0.0128266340097545,,
52.1676289816506,-0.159261529902154,-0.0126533642639819,,
52.3615606879021,-0.152528070730883,-0.0124229998851138,,
52.5554923941536,-0.145868551863203,-0.0122416114709951,,
52.7494241004051,-0.139125876738466,-0.0120387293103255,,
52.9433558066566,-0.132339532172681,-0.0118357626016747,,
53.1372875129081,-0.125614438251481,-0.0115947575500441,,
53.3312192191596,-0.118710696616909,-0.0114027800168102,,
53.5251509254111,-0.111920098534139,-0.0111715227287741,,
53.7190826316626,-0.105116810792364,-0.0109769736996226,,
53.913014337914,-0.0982416386135406,-0.0107386020082862,,
54.1069460441655,-0.0912539609104625,-0.0105346001024014,,
54.300877750417,-0.0842849986821187,-0.0102880829348222,,
54.4948094566685,-0.0773718993101788,-0.0100655691453353,,
54.68874116292,-0.070288375691037,-0.00985595614049961,,
54.8826728691715,-0.063350535028634,-0.00961519442208347,,
55.076604575423,-0.0563603761073145,-0.00939566868198272,,
55.2705362816745,-0.0492972693697011,-0.00912871152439987,,
55.464467987926,-0.0422301926829016,-0.00888384407352794,,
55.6583996941775,-0.0351960098607866,-0.00865306726548321,,
55.8523314004289,-0.0281360223689623,-0.00842404946787756,,
56.0462631066804,-0.0210575320782528,-0.00818550249414063,,
56.2401948129319,-0.0140407886757767,-0.00795784158852664,,
56.4341265191834,-0.00688403367254186,-0.00765304199182326,,
56.6280582254349,0.000224160345113355,-0.00741082852270436,,
56.8219899316864,0.00730881823545116,-0.0071953260292239,,
57.0159216379379,0.0144170122531064,-0.00688910355186012,,
57.2098533441894,0.0214642391939755,-0.00666268199592235,,
57.4037850504409,0.0285233759824029,-0.00639659918819424,,
57.5977167566924,0.0355513203129397,-0.00615823368329549,,
57.7916484629438,0.0426187160135131,-0.00586682566196384,,
57.9855801691953,0.0496057911350184,-0.00563406713172432,,
58.1795118754468,0.0566830762625821,-0.0053618638750117,,
58.3734435816983,0.0635879521683508,-0.00512192907709519,,
58.5673752879498,0.0706173497838575,-0.00483095204425332,,
58.7613069942013,0.0776826541719133,-0.00457519646311289,,
58.9552387004528,0.0845608747045755,-0.00429853897129107,,
59.1491704067043,0.0915452204860154,-0.00402648418908225,,
59.3431021129558,0.0984744832224985,-0.00375434485889237,,
59.5370338192072,0.10541842059258,-0.00349890478607229,,
59.7309655254587,0.112186085129605,-0.0032386475404671,,
59.9248972317102,0.119057819048865,-0.00296065171596593,,
60.1188289379617,0.125883544092737,-0.00268821543676889,,
60.3127606442132,0.132597862437574,-0.00239293470546675,,
60.5066923504647,0.139323807062171,-0.00214161686226921,,
60.7006240567162,0.146056273746145,-0.00188690060265495,,
60.8945557629677,0.152846021125517,-0.00158679857427524,,
61.0884874692192,0.159429614715014,-0.00131006065876349,,
61.2824191754707,0.166005268406138,-0.00105880674208869,,
61.4763508817221,0.172686444764466,-0.000771675611320966,,
61.6702825879736,0.17917245558513,-0.000500196167813716,,
61.8642142942251,0.185682605114684,-0.000237398358479357,,
62.0581460004766,0.192147667364196,4.37793571212985E-05,,
62.2520777067281,0.198655264783559,0.000348766609100437,,
62.4460094129796,0.204981945947157,0.000594817731709441,,
62.6399411192311,0.211223840338852,0.000877942113024499,,
62.8338728254826,0.217458078399974,0.00113910464067279,,
63.0278045317341,0.223549965425996,0.00141424851741601,,
63.2217362379855,0.229661418630149,0.00168767668878367,,
63.415667944237,0.235780528164875,0.0019599913013737,,
63.6095996504885,0.241833282834634,0.0022179080114002,,
63.80353135674,0.24779586294431,0.00250542063915704,,
63.9974630629915,0.253743945650261,0.00275962548659203,,
64.191394769243,0.259591149111717,0.00303959478470439,,
64.3853264754945,0.2655801010267,0.00330810267599224,,
64.579258181746,0.271209488972545,0.00358700790682809,,
64.7731898879975,0.276946951695785,0.00384789823122,,
64.967121594249,0.282560105385137,0.00411871160160615,,
65.1610533005004,0.288025910156931,0.00439248208919052,,
65.3549850067519,0.29341171336343,0.00465148761224432,,
65.5489167130034,0.298777666824,0.00488027032521909,,
65.7428484192549,0.304044655122716,0.00519038407186612,,
65.9367801255064,0.309497380329781,0.00544379705528186,,
66.1307118317579,0.314611242017035,0.00567672055719237,,
66.3246435380094,0.319705821093956,0.00593436093967048,,
66.5185752442609,0.324441403337338,0.00618254019683206,,
66.7125069505123,0.329696198220697,0.00644253554991003,,
66.9064386567638,0.334299921437541,0.00669456277129177,,
