Time domain (s),Current (AC) (A),Potential (AC) (V),Frequency (Hz),Column 5
0,-0.334257624070996,-0.0071374669752533,15.849,0.4
0.000231062488169601,-0.337887872373533,-0.00720773563329535,,
0.000462124976339201,-0.341667613474976,-0.00729409698142724,,
0.000693187464508802,-0.345064761688349,-0.00740291732671272,,
0.000924249952678403,-0.348083515902675,-0.00747262041305685,,
0.001155312440848,-0.351265347556864,-0.00757118795858291,,
0.0013863749290176,-0.354185489627509,-0.00765967092567443,,
0.0016174374171872,-0.357084452007933,-0.00774128582209288,,
0.00184849990535681,-0.359303132618205,-0.00785944825168583,,
0.00207956239352641,-0.361576769275988,-0.0078982087654027,,
0.00231062488169601,-0.363653490388249,-0.00796875730892621,,
0.00254168736986561,-0.365665005223912,-0.00801563885215595,,
0.00277274985803521,-0.367511281426832,-0.00809198813104572,,
0.00300381234620481,-0.369041899972584,-0.00816068043925178,,
0.00323487483437441,-0.370385050473116,-0.00821263182519161,,
0.00346593732254401,-0.371713381365331,-0.00823203093443992,,
0.00369699981071361,-0.372741368195639,-0.008287043658469,,
0.00392806229888321,-0.373651045152877,-0.00832937742517137,,
0.00415912478705281,-0.374090940526442,-0.00838212931259141,,
0.00439018727522241,-0.374383813035821,-0.00840899831880737,,
0.00462124976339201,-0.374310023736073,-0.00840972921146355,,
0.00485231225156161,-0.374423393739703,-0.00843873288829444,,
0.00508337473973121,-0.374197085971018,-0.00843667942797488,,
0.00531443722790081,-0.373603128419316,-0.00848184395353613,,
0.00554549971607042,-0.372851774277606,-0.00845806093853474,,
0.00577656220424002,-0.37219156072705,-0.00845948791943485,,
0.00600762469240962,-0.371366849524167,-0.0084808215739276,,
0.00623868718057922,-0.370245499161457,-0.00845603068115652,,
0.00646974966874882,-0.368730194210967,-0.00848032416087019,,
0.00670081215691842,-0.367135913097817,-0.00845499815026152,,
0.00693187464508802,-0.365075987541649,-0.00841617817900708,,
0.00716293713325762,-0.363101892216989,-0.00840048283928985,,
0.00739399962142722,-0.360855239596018,-0.00837422871102245,,
0.00762506210959682,-0.358502935517414,-0.00834222025327191,,
0.00785612459776642,-0.355991999881443,-0.00831090788376532,,
0.00808718708593602,-0.353246914434052,-0.008288076189364,,
0.00831824957410562,-0.350498371078052,-0.00820989242791459,,
0.00854931206227522,-0.347242009143698,-0.00818690991439386,,
0.00878037455044482,-0.343886108840143,-0.00811694289459108,,
0.00901143703861442,-0.340390410231458,-0.00806706817191261,,
0.00924249952678403,-0.337055998359963,-0.00799201825774487,,
0.00947356201495363,-0.332787951164451,-0.00793793365137452,,
0.00970462450312323,-0.328719721687756,-0.00786263865613757,,
0.00993568699129283,-0.324762886266916,-0.00779117214624225,,
0.0101667494794624,-0.320373318283198,-0.00766605173457746,,
0.010397811967632,-0.315658521645273,-0.0076177664133894,,
0.0106288744558016,-0.310842025445268,-0.00753595284178488,,
0.0108599369439712,-0.305954580370441,-0.00743724752879382,,
0.0110909994321408,-0.300972475047485,-0.00733879744815891,,
0.0113220619203104,-0.296013525362525,-0.00720459163472675,,
0.01155312440848,-0.290509090594736,-0.00712359016607333,,
0.0117841868966496,-0.285098760339764,-0.00702907298401678,,
0.0120152493848192,-0.279401300173636,-0.00691481009877393,,
0.0122463118729888,-0.273533723253694,-0.00680908589598994,,
0.0124773743611584,-0.267699799194307,-0.00668602909593163,,
0.012708436849328,-0.261415729532268,-0.00657175460921788,,
0.0129394993374976,-0.255390817770686,-0.00642165478088241,,
0.0131705618256672,-0.248779975745241,-0.0062977742764021,,
0.0134016243138368,-0.242559259908761,-0.00616326682473112,,
0.0136326868020064,-0.235689630473067,-0.00603263571446844,,
0.013863749290176,-0.228854333129975,-0.00590869575245057,,
0.0140948117783456,-0.222102519580407,-0.00576120625503007,,
0.0143258742665152,-0.215192383215312,-0.00561955229738809,,
0.0145569367546848,-0.207928119959789,-0.00550169295621794,,
0.0147879992428544,-0.200880284734074,-0.00532571024667883,,
0.015019061731024,-0.193279863363211,-0.00517082916221767,,
0.0152501242191936,-0.18602510935636,-0.00498483583362042,,
0.0154811867073632,-0.178570661127426,-0.00484573419953938,,
0.0157122491955328,-0.170933684722713,-0.00468697967403742,,
0.0159433116837024,-0.163273120441427,-0.0045330745633021,,
0.016174374171872,-0.155378282851984,-0.00434664907991955,,
0.0164054366600416,-0.147582613141535,-0.00419229296200951,,
0.0166364991482112,-0.139650911776402,-0.0039997317507936,,
0.0168675616363808,-0.131572249295451,-0.00386167424907846,,
0.0170986241245504,-0.123469875441192,-0.00366367194808914,,
0.01732968661272,-0.115308964134078,-0.00350448816817028,,
0.0175607491008896,-0.107086304458973,-0.00330893377750563,,
0.0177918115890593,-0.0987436059564946,-0.00312718513701205,,
0.0180228740772289,-0.0904177030101094,-0.00297752616456481,,
0.0182539365653985,-0.0820727815663832,-0.00277712235913397,,
0.0184849990535681,-0.0735742301830963,-0.00259502567451841,,
0.0187160615417377,-0.0651018601078373,-0.0024144255796279,,
0.0189471240299073,-0.0565637897690364,-0.00220911435207727,,
0.0191781865180769,-0.0480383160973056,-0.00203139142192788,,
0.0194092490062465,-0.0395187085205338,-0.0018426238916418,,
0.0196403114944161,-0.0308381846967785,-0.00166050400408491,,
0.0198713739825857,-0.0222558407781282,-0.00142976235268888,,
0.0201024364707553,-0.0136647285912233,-0.00124773527689825,,
0.0203334989589249,-0.00502310623930209,-0.00107597550270544,,
0.0205645614470945,0.00357689771259346,-0.00086683578981317,,
0.0207956239352641,0.012229573022385,-0.000674914109671576,,
0.0210266864234337,0.0208575798591643,-0.000479845530593437,,
0.0212577489116033,0.0294531688027485,-0.000295395197603465,,
0.0214888113997729,0.0380821327392317,-6.57310328016081E-05,,
0.0217198738879425,0.0466821984394952,0.000110205270854813,,
0.0219509363761121,0.0551730930251513,0.000286370703558081,,
0.0221819988642817,0.0636790542125972,0.000519876405356001,,
0.0224130613524513,0.0721373456599542,0.000693283588392823,,
0.0226441238406209,0.0806109507025729,0.000890691314006986,,
0.0228751863287905,0.0889906982258459,0.00106977451659951,,
0.0231062488169601,0.0972963477075301,0.0012485879849975,,
0.0233373113051297,0.105655347779158,0.00145790171995053,,
0.0235683737932993,0.113941731770029,0.00166279529455515,,
0.0237994362814689,0.122132529287251,0.00182295359801543,,
0.0240304987696385,0.130299368437692,0.00202980782117335,,
0.0242615612578081,0.138190809866895,0.00224101259585607,,
0.0244926237459777,0.146151409468248,0.00239557899042353,,
0.0247236862341473,0.154197468810899,0.00259332605905671,,
0.0249547487223169,0.162049885271532,0.0027641461141199,,
0.0251858112104865,0.16971409270653,0.00297445757555659,,
0.0254168736986561,0.177341251120733,0.00315688780245527,,
0.0256479361868257,0.18476760384223,0.00333727036976983,,
0.0258789986749953,0.192440456048747,0.00350022462767674,,
0.0261100611631649,0.199565507608634,0.00371203557920508,,
0.0263411236513345,0.206826343829733,0.00388267871183956,,
0.0265721861395041,0.213922929391976,0.00403301927069277,,
0.0268032486276737,0.221018804847988,0.00422285993702198,,
0.0270343111158433,0.227803993390455,0.00439585816821531,,
0.0272653736040129,0.234625706092588,0.004555343586373,,
0.0274964360921825,0.241359766986359,0.00474104832838584,,
0.0277274985803521,0.247840875690656,0.00487692185323585,,
0.0279585610685217,0.253953933247544,0.00502726821282407,,
0.0281896235566913,0.260363413844972,0.00518031481472558,,
0.0284206860448609,0.266448839007185,0.00535257345215978,,
0.0286517485330305,0.272442876584772,0.00547940943130909,,
0.0288828110212001,0.278183498860125,0.00564082359397622,,
0.0291138735093697,0.283692935245721,0.00579250412269872,,
0.0293449359975393,0.289275234705547,0.0059427518697861,,
0.0295759984857089,0.294907920833652,0.00610149189344922,,
0.0298070609738785,0.299908303673534,0.00619731134059576,,
0.0300381234620481,0.305119865931943,0.0063439858346972,,
0.0302691859502177,0.309752969479017,0.00646951954875696,,
0.0305002484383873,0.314606885190024,0.00659959233824026,,
0.0307313109265569,0.319376082140149,0.00672117575151576,,
0.0309623734147265,0.32360362240626,0.00683068203375825,,
0.0311934359028961,0.327697786197511,0.00694227658073299,,
0.0314244983910657,0.331655115605295,0.0070535433861596,,
0.0316555608792353,0.335711489395335,0.00714945564507152,,
0.0318866233674049,0.339507038078984,0.00726996302193639,,
0.0321176858555745,0.343029411982641,0.00736874664485487,,
0.0323487483437441,0.346499917257187,0.00746938940345832,,
0.0325798108319137,0.349346023034611,0.00756894162381272,,
0.0328108733200833,0.352351192607979,0.00763194921136012,,
0.0330419358082529,0.355290167930862,0.00771576693703357,,
0.0332729982964225,0.357920895400735,0.0077872551996867,,
0.0335040607845921,0.360104317692883,0.00788693503621918,,
0.0337351232727617,0.362180791811672,0.00795746617753634,,
0.0339661857609313,0.36449240371577,0.00802476340888747,,
0.0341972482491009,0.366098602263942,0.00805321021512295,,
0.0344283107372705,0.367724807283344,0.00817162642688851,,
0.0346593732254401,0.369572565447095,0.00817996788434483,,
0.0348904357136097,0.370578075871455,0.00823444839090426,,
0.0351214982017793,0.371590255119557,0.00827484471199424,,
0.0353525606899489,0.372595765543917,0.00830380198294201,,
0.0355836231781185,0.373150265888473,0.00835460482327921,,
0.0358146856662881,0.373595101131477,0.00836044036305772,,
0.0360457481544577,0.373876673689514,0.00842846848706458,,
0.0362768106426273,0.373667964205706,0.00844500058285824,,
0.0365078731307969,0.373917427612388,0.00846445914964411,,
0.0367389356189665,0.373381698771701,0.00845816825213941,,
0.0369699981071361,0.373021829283052,0.00848334634399617,,
0.0372010605953057,0.372096097750136,0.00850042370891435,,
0.0374321230834753,0.371335851843436,0.00846836884528068,,
0.0376631855716449,0.370193507035609,0.00849767416035085,,
0.0378942480598145,0.369132423080058,0.00846883290411027,,
0.0381253105479841,0.367494856360946,0.00846397188787318,,
0.0383563730361537,0.365698966826307,0.00846694186438057,,
0.0385874355243233,0.363728946893934,0.00844147663612294,,
0.0388184980124929,0.361523048195836,0.00840204323710392,,
0.0390495605006625,0.359402115252094,0.00836613378481932,,
0.0392806229888321,0.357271549562945,0.0083431077657834,,
0.0395116854770017,0.354528934050273,0.00830118005055658,,
0.0397427479651713,0.35158477186448,0.00821948249365922,,
0.0399738104533409,0.348560336800298,0.00818504932852582,,
0.0402048729415105,0.345394868463626,0.0081628789179562,,
0.0404359354296801,0.342113313195132,0.00810780673638956,,
0.0406669979178497,0.338549197394713,0.0080381051002294,,
0.0408980604060193,0.334590633019569,0.00795121298481183,,
0.0411291228941889,0.330600206486543,0.00788711195864789,,
0.0413601853823585,0.326763409893077,0.00781744512689997,,
0.0415912478705281,0.322492645769372,0.00773151303318542,,
0.0418223103586977,0.317962044513164,0.00765065078218052,,
0.0420533728468673,0.313442063976249,0.00757277010915436,,
0.0422844353350369,0.308707940099143,0.00748278910215383,,
0.0425154978232065,0.303571710849682,0.00736786783344678,,
0.0427465603113761,0.298835858018273,0.00729260619243854,,
0.0429776227995457,0.293548715757443,0.00719609355741557,,
0.0432086852877153,0.288006429240075,0.00708801135570525,,
0.0434397477758849,0.282528114031946,0.00699305621812885,,
0.0436708102640545,0.27673932802956,0.0068625860782725,,
0.0439018727522241,0.270716639209226,0.00675540009017617,,
0.0441329352403937,0.264669498035167,0.00661876956936114,,
0.0443639977285633,0.258710039543655,0.0064834500147386,,
0.0445950602167329,0.252277835546806,0.00636125172351454,,
0.0448261227049025,0.246013309243237,0.00625701250898425,,
0.0450571851930721,0.239439114874194,0.00611421000573964,,
0.0452882476812417,0.232887890898044,0.00596885517893364,,
0.0455193101694113,0.226022182483717,0.00580577620521661,,
0.0457503726575809,0.219328165406588,0.00567520165212398,,
0.0459814351457505,0.212224880146418,0.00554289557952448,,
0.0462124976339201,0.205053640807273,0.0053865309569936,,
0.0464435601220897,0.197643589654925,0.00523752166690672,,
0.0466746226102593,0.190317825024885,0.00508462588412506,,
0.0469056850984289,0.182975666203142,0.00490322528775389,,
0.0471367475865985,0.175282591406109,0.00475500199730927,,
0.0473678100747681,0.167566978454759,0.00460655247818575,,
0.0475988725629377,0.159899066117683,0.00445562894542828,,
0.0478299350511073,0.151940442464106,0.00425208114142883,,
0.0480609975392769,0.144182624503234,0.00407062253770407,,
0.0482920600274465,0.136156077644868,0.00393019833595964,,
0.0485231225156161,0.127998377252889,0.00374711552633222,,
0.0487541850037857,0.119886617646696,0.00357463646095413,,
0.0489852474919553,0.111768961071359,0.00340464301068044,,
0.0492163099801249,0.103460563787299,0.00320258889603764,,
0.0494473724682945,0.095180848620171,0.0030506676367974,,
0.0496784349564641,0.086913483126641,0.00284710823132706,,
0.0499094974446337,0.0783326829171905,0.0026559652999083,,
0.0501405599328033,0.0699489834983661,0.00248329771063105,,
0.0503716224209729,0.0614833131210342,0.00230657250696487,,
0.0506026849091425,0.0529232294890446,0.00211181861778043,,
0.0508337473973121,0.0444362559247559,0.0019411261788953,,
0.0510648098854817,0.0358850949319409,0.00173135708621563,,
0.0512958723736513,0.0272684806690559,0.00152212746192504,,
0.0515269348618209,0.0187198204851446,0.00132361469622344,,
0.0517579973499905,0.0100785068750633,0.00112531075699529,,
0.0519890598381601,0.00147251333147265,0.000945728691161385,,
0.0522201223263297,-0.00717911225606307,0.000770178136406674,,
0.0524511848144993,-0.0158997725190123,0.000564170820612109,,
0.0526822473026689,-0.0245245993148401,0.000377131909464978,,
0.0529133097908385,-0.0330796504548385,0.000162667121506477,,
0.0531443722790081,-0.0417422055035085,-3.80615251049932E-05,,
0.0533754347671778,-0.050283733750917,-0.000207209518198859,,
0.0536064972553474,-0.0588883070820438,-0.000403903753363188,,
0.053837559743517,-0.0673312231857712,-0.000615558085037105,,
0.0540686222316865,-0.075837246121585,-0.000811415564124562,,
0.0542996847198561,-0.0842554011297482,-0.000998582091449762,,
0.0545307472080258,-0.092602854256562,-0.00117288258773307,,
0.0547618096961954,-0.100967041191101,-0.0013742261122931,,
0.054992872184365,-0.109329746164809,-0.00158083670456577,,
0.0552239346725346,-0.117432614006012,-0.0017793958761505,,
0.0554549971607042,-0.125603405052004,-0.00194173525610841,,
0.0556860596488738,-0.133548691058095,-0.00215297628538691,,
0.0559171221370434,-0.141660265419185,-0.00231663678282468,,
0.056148184625213,-0.149665200348755,-0.00255878267995069,,
0.0563792471133826,-0.157590850373825,-0.00273652881304143,,
0.0566103096015522,-0.165248759475287,-0.00288954061053026,,
0.0568413720897218,-0.173012320034381,-0.0030746188731241,,
0.0570724345778914,-0.180576248119762,-0.00328144989334067,,
0.057303497066061,-0.188114488884059,-0.0034241827877608,,
0.0575345595542306,-0.195208388392295,-0.00362786835922524,,
0.0577656220424002,-0.202653759611133,-0.00381793670441732,,
0.0579966845305698,-0.209839293697468,-0.00397985698124526,,
0.0582277470187394,-0.216894168237133,-0.00415332362181919,,
0.058458809506909,-0.223918662579748,-0.00432058057518381,,
0.0586898719950786,-0.230571616992163,-0.00447953377587185,,
0.0589209344832482,-0.237443778110945,-0.004656398197187,,
0.0591519969714178,-0.244058263290101,-0.00480957386545011,,
0.0593830594595874,-0.250609024153492,-0.0049733851820073,,
0.059614121947757,-0.256902664812569,-0.00513643225168003,,
0.0598451844359266,-0.263088616317871,-0.00529306370803795,,
0.0600762469240962,-0.269245916580425,-0.00540486708148569,,
0.0603073094122658,-0.275126584154381,-0.0055522753686108,,
0.0605383719004354,-0.280833121330603,-0.00568825620706503,,
0.060769434388605,-0.286480380073555,-0.00583588492213449,,
0.0610004968767746,-0.291918435345754,-0.00599640287118763,,
0.0612315593649442,-0.297239909699187,-0.00613613098468813,,
0.0614626218531138,-0.302551319068637,-0.00625770279649274,,
0.0616936843412834,-0.3074093719203,-0.00639630556733195,,
0.061924746829453,-0.312204935423557,-0.00651863147473408,,
0.0621558093176226,-0.317057245676997,-0.00662848580109898,,
0.0623868718057922,-0.32154530230766,-0.00676712337635088,,
0.0626179342939618,-0.325774818521546,-0.00687657165123978,,
0.0628489967821314,-0.32976104616555,-0.00700197194838603,,
0.063080059270301,-0.334089853755165,-0.00709617589073286,,
0.0633111217584706,-0.33756282896443,-0.00722885176021215,,
0.0635421842466402,-0.341608582035177,-0.00729495549026105,,
0.0637732467348098,-0.344884456453816,-0.00738327748694667,,
0.0640043092229794,-0.347950942156599,-0.00747622847045459,,
0.064235371711149,-0.351271522393663,-0.00754387664629474,,
0.0644664341993186,-0.354306084190195,-0.00766324417866038,,
0.0646974966874882,-0.356781391017835,-0.00774380479142556,,
0.0649285591756578,-0.359201433056124,-0.00781305397022747,,
0.0651596216638274,-0.361558738752535,-0.0078915031153195,,
0.065390684151997,-0.363833733874414,-0.00794808348808118,,
0.0656217466401666,-0.365464508273046,-0.00803637068035457,,
0.0658528091283362,-0.367329802973307,-0.0080748643602444,,
0.0660838716165058,-0.369214054422542,-0.0081699369627124,,
0.0663149341046754,-0.37051521603284,-0.00821113523546702,,
0.066545996592845,-0.371662006723162,-0.00822745995497121,,
0.0667770590810146,-0.372349636549106,-0.00828431731284685,,
0.0670081215691842,-0.373529462616303,-0.00834947117247964,,
0.0672391840573538,-0.37397114869254,-0.00835135061073844,,
0.0674702465455234,-0.37437769994739,-0.00839523897451899,,
0.067701309033693,-0.374588385378974,-0.00842459069547186,,
0.0679323715218626,-0.374423640733175,-0.00843832683681889,,
0.0681634340100322,-0.374294710140811,-0.00847192324587587,,
0.0683944964982018,-0.373796030320919,-0.00847154184752563,,
0.0686255589863714,-0.373254126643433,-0.00850592860677635,,
0.068856621474541,-0.372070286932316,-0.00849599774782961,,
0.0690876839627106,-0.371377717236933,-0.00847388534461357,,
0.0693187464508802,-0.370177390711564,-0.00845377999583441,,
0.0695498089390498,-0.368808491141579,-0.00845855835159215,,
0.0697808714272194,-0.366910840296491,-0.00843575131031615,,
0.070011933915389,-0.365286611224865,-0.00842411503517182,,
0.0702429964035586,-0.363357283466998,-0.00837972780814988,,
0.0704740588917282,-0.360969906315376,-0.00838531971704271,,
0.0707051213798978,-0.35893789102154,-0.00835672354187134,,
0.0709361838680674,-0.356132786160462,-0.00829251955265464,,
0.071167246356237,-0.353380784895855,-0.00825830681546469,,
0.0713983088444066,-0.350691272979655,-0.00822056723117237,,
0.0716293713325762,-0.347490175834653,-0.00816510059960107,,
0.0718604338207458,-0.344306244735952,-0.00810691922387807,,
0.0720914963089154,-0.341087672802808,-0.00806240438067807,,
0.072322558797085,-0.337125403525585,-0.00798165814438079,,
0.0725536212852546,-0.333168074117801,-0.00792525324386384,,
0.0727846837734242,-0.329039331240475,-0.00785212772365407,,
0.0730157462615938,-0.32487922019221,-0.00775783096954141,,
0.0732468087497634,-0.320464705867824,-0.00768236340242723,,
0.073477871237933,-0.316007523421156,-0.00761282418685738,,
0.0737089337261026,-0.311547006562617,-0.00753510593442108,,
0.0739399962142722,-0.30631352363357,-0.00744750177873721,,
0.0741710587024418,-0.301552168726181,-0.00736314893522616,,
0.0744021211906114,-0.29613411992521,-0.00727186856350404,,
0.074633183678781,-0.290808446682754,-0.00712876442202015,,
0.0748642461669506,-0.285485243375018,-0.00706474750651909,,
0.0750953086551202,-0.27962828717437,-0.00692088926943768,,
0.0753263711432898,-0.273888158885961,-0.00681182384308254,,
0.0755574336314594,-0.267828729786672,-0.0066748220752042,,
0.075788496119629,-0.261884029155109,-0.00659057219474546,,
0.0760195586077986,-0.255639293203481,-0.00646831589616781,,
