Time domain (s),Current (AC) (A),Potential (AC) (V),Frequency (Hz),Column 5
0,0.205505089467953,0.00277877188777431,3162.3,0.3
9.88204787654555E-06,0.175758174227763,0.00233090461473173,,
1.97640957530911E-05,0.139609770720461,0.00180909289496745,,
2.96461436296367E-05,0.0980178406901751,0.00115247290411391,,
3.95281915061822E-05,0.0528110218170437,0.000491862544834021,,
4.94102393827278E-05,0.00642674825097756,-0.000129064087076358,,
5.92922872592733E-05,-0.0402550685281761,-0.000796500896147023,,
6.91743351358188E-05,-0.0868385785638399,-0.0014813415511199,,
7.90563830123644E-05,-0.130133617820412,-0.00206497867671684,,
8.893843088891E-05,-0.168360393403309,-0.00258513001391147,,
9.88204787654555E-05,-0.199741669274955,-0.00299731560713834,,
0.000108702526642001,-0.223491432324844,-0.00329786431744505,,
0.000118584574518547,-0.238390105845063,-0.00348534350524021,,
0.000128466622395092,-0.244127075793177,-0.00346933142198447,,
0.000138348670271638,-0.240421352401021,-0.00339862014694869,,
0.000148230718148183,-0.227391917686838,-0.00314963283627367,,
0.000158112766024729,-0.205374777928152,-0.00278629908519079,,
0.000167994813901274,-0.175670800252159,-0.00231657432577803,,
0.00017787686177782,-0.139203186372834,-0.00176190922147734,,
0.000187758909654365,-0.0974635978504768,-0.00116096168299507,,
0.000197640957530911,-0.0521392076388307,-0.000503675981896823,,
0.000207523005407457,-0.00555089247534617,0.000123495089970671,,
0.000217405053284002,0.0408522268902006,0.000818222126034662,,
0.000227287101160548,0.0870241490735802,0.00148359951569343,,
0.000237169149037093,0.130033900397195,0.00209236233672749,,
0.000247051196913639,0.168095361949559,0.00259409763700447,,
0.000256933244790184,0.199333453828893,0.0029954352676751,,
0.00026681529266673,0.222839874625839,0.00329133373887425,,
0.000276697340543275,0.23806280610648,0.00344703596834828,,
0.000286579388419821,0.243624080302943,0.00350497222485568,,
0.000296461436296367,0.239786105686362,0.00338340419085714,,
0.000306343484172912,0.227010593323077,0.0031501097339639,,
0.000316225532049458,0.205344249937181,0.00277353574579076,,
0.000326107579926003,0.175837524962419,0.00236728120261009,,
0.000335989627802549,0.139498062519562,0.00177662102858323,,
0.000345871675679094,0.0980033591811004,0.00119422967654392,,
0.00035575372355564,0.0528555904796752,0.000513671368174595,,
0.000365635771432185,0.00642017977349774,-0.000150491392265195,,
0.000375517819308731,-0.0402645024488518,-0.000821198356923958,,
0.000385399867185276,-0.0868197548062299,-0.00149512876066327,,
0.000395281915061822,-0.130234834090839,-0.00208986105700637,,
0.000405163962938368,-0.168358145132494,-0.00258725561504392,,
0.000415046010814913,-0.199723198187277,-0.00301274568056042,,
0.000424928058691459,-0.223557117099642,-0.00327567008290997,,
0.000434810106568004,-0.238449398477348,-0.00345517826645869,,
0.00044469215444455,-0.244169352101252,-0.00350934605795494,,
0.000454574202321095,-0.24032480900719,-0.00338820431209541,,
0.000464456250197641,-0.227357488284746,-0.00313679163602565,,
0.000474338298074186,-0.205493671778911,-0.00281397277685791,,
0.000484220345950732,-0.175653078588086,-0.00232333654036943,,
0.000494102393827277,-0.139248151789139,-0.00177790573256376,,
0.000503984441703823,-0.0975027001291654,-0.00113823994121942,,
0.000513866489580369,-0.0521146089110875,-0.000504507146442013,,
0.000523748537456914,-0.00553603625446899,0.000152945955477879,,
0.00053363058533346,0.0408603382986321,0.000828040378884953,,
0.000543512633210005,0.0870215260909624,0.00149115980397019,,
0.000553394681086551,0.130052327401131,0.00206703420308685,,
0.000563276728963096,0.168070542803109,0.00259020848767966,,
0.000573158776839642,0.199389682641145,0.00300679516530256,,
0.000583040824716187,0.223071226101102,0.00330403673611812,,
0.000592922872592733,0.237856472154505,0.00348884335032862,,
0.000602804920469279,0.243673167549076,0.00348326462061666,,
0.000612686968345824,0.239838962092391,0.00338607481792108,,
0.00062256901622237,0.227070414960259,0.00316290227118232,,
0.000632451064098915,0.20537321295533,0.00280433360395715,,
0.000642333111975461,0.175845790663945,0.00237658557386755,,
0.000652215159852006,0.139508400156938,0.00179072162803706,,
0.000662097207728552,0.0980490740210103,0.00116220551003154,,
0.000671979255605097,0.0528578387504904,0.000507208917845503,,
0.000681861303481643,0.00640137805775852,-0.000157070633865608,,
0.000691743351358189,-0.0402932891320352,-0.000801682535537473,,
0.000701625399234734,-0.0868935069057181,-0.00150326716573179,,
0.00071150744711128,-0.13013326515048,-0.00206748579600102,,
0.000721389494987825,-0.168382214855339,-0.00258690913427317,,
0.000731271542864371,-0.199926512402961,-0.00300419266647989,,
0.000741153590740916,-0.223536221406183,-0.00328442358867242,,
0.000751035638617462,-0.238709889305725,-0.00346250497219369,,
0.000760917686494007,-0.244410534250863,-0.00348932998062423,,
0.000770799734370553,-0.240312068805904,-0.00337847365269894,,
0.000780681782247098,-0.227105241116024,-0.00314894960733803,,
0.000790563830123644,-0.205609127097835,-0.00280829088152279,,
0.00080044587800019,-0.175743758844301,-0.00233331830099903,,
0.000810327925876735,-0.139334996759845,-0.00178778627409182,,
0.000820209973753281,-0.0974679180571413,-0.00114237629873415,,
0.000830092021629826,-0.0521108177093206,-0.000527347626010144,,
0.000839974069506372,-0.00548899890231484,0.000165672310976195,,
0.000849856117382917,0.0409155972685714,0.00085599436960182,,
0.000859738165259463,0.0871490383131797,0.00149331654944174,,
0.000869620213136008,0.130111399614708,0.00209615026695076,,
0.000879502261012554,0.168008450853241,0.00259235355402376,,
0.0008893843088891,0.199489378022492,0.00302450461503057,,
0.000899266356765645,0.223092672841329,0.00330485038197326,,
0.000909148404642191,0.237936792731473,0.00344889684259941,,
0.000919030452518736,0.243596616132004,0.00348054338400194,,
0.000928912500395282,0.239895741951411,0.00338381685334799,,
0.000938794548271827,0.226945900432461,0.00315820336904515,,
0.000948676596148373,0.205299482897712,0.00279033033056253,,
0.000958558644024918,0.175804616449407,0.00234613808951423,,
0.000968440691901464,0.139694984592732,0.00179420979399803,,
0.000978322739778009,0.0979995900212043,0.00117596352175697,,
0.000988204787654555,0.0527940936603171,0.000499021849747372,,
0.000998086835531101,0.00641074585282202,-0.000159011315485458,,
0.00100796888340765,-0.0402477947108327,-0.000828754752158822,,
0.00101785093128419,-0.0868635740452564,-0.00149745485347763,,
0.00102773297916074,-0.130092840359547,-0.00209271855010362,,
0.00103761502703728,-0.168227657257727,-0.0026111919860381,,
0.00104749707491383,-0.199622422754264,-0.0030234418144639,,
0.00105737912279037,-0.223440868273372,-0.00331022278043935,,
0.00106726117066692,-0.238598710109724,-0.003461175498225,,
0.00107714321854347,-0.244084182312721,-0.00351245075924256,,
0.00108702526642001,-0.240297388919992,-0.00338494972867665,,
0.00109690731429656,-0.227279239643627,-0.00314984890012493,,
0.0011067893621731,-0.205516815743186,-0.00279512071919497,,
0.00111667141004965,-0.175806974929576,-0.00231735682729362,,
0.00112655345792619,-0.139260186650561,-0.00176446695031229,,
0.00113643550580274,-0.0974932662084897,-0.00115975094681886,,
0.00114631755367928,-0.0521089661921787,-0.000508411867936154,,
0.00115619960155583,-0.00552038652624526,0.000152665656427686,,
0.00116608164943237,0.0408499786193854,0.000803590126297937,,
0.00117596369730892,0.0870636701478128,0.00148645700879069,,
0.00118584574518547,0.130038220603859,0.00208278155946218,,
0.00119572779306201,0.167986629401211,0.00260600645360531,,
0.00120560984093856,0.199514571880745,0.00302587885898609,,
0.0012154918888151,0.222938071159975,0.00327917576756187,,
0.00122537393669165,0.237772206082675,0.00347358262424979,,
0.00123525598456819,0.243695738424712,0.00348668660485751,,
0.00124513803244474,0.240065023518676,0.00338021578915848,,
0.00125502008032128,0.226915813278905,0.00317718973666992,,
0.00126490212819783,0.205425893026393,0.0028153314486441,,
0.00127478417607438,0.175888133097632,0.00235518941301782,,
0.00128466622395092,0.139560683474328,0.00177663660075256,,
0.00129454827182747,0.0979435595857892,0.00115526421549106,,
0.00130443031970401,0.0527830065993361,0.000493390563963025,,
0.00131431236758056,0.00640322957490048,-0.000157800579309253,,
0.0013241944154571,-0.0402232841505724,-0.000811847269158061,,
0.00133407646333365,-0.0868574023214498,-0.00149403092271561,,
0.00134395851121019,-0.130084949369823,-0.00211537411015916,,
0.00135384055908674,-0.168403683637438,-0.00260481323611961,,
0.00136372260696329,-0.200019485013732,-0.00301601778266969,,
0.00137360465483983,-0.223580437398883,-0.00329828087297823,,
0.00138348670271638,-0.23854567736873,-0.00346210593535101,,
0.00139336875059292,-0.243932225655856,-0.00347044483210146,,
0.00140325079846947,-0.240489065027927,-0.00338941894131395,,
0.00141313284634601,-0.227494015632095,-0.00315997859636452,,
0.00142301489422256,-0.205238603250735,-0.00280428883396944,,
0.0014328969420991,-0.175680542759025,-0.00235718654375194,,
0.00144277898997565,-0.139262258586411,-0.00176825293401439,,
0.0014526610378522,-0.0974554864420453,-0.00115358826075163,,
0.00146254308572874,-0.0521134627338091,-0.000484588395170515,,
0.00147242513360529,-0.00552810118100343,0.000175402970372662,,
0.00148230718148183,0.0408969939296688,0.000782890820032023,,
0.00149218922935838,0.0869786546523777,0.00148825170132216,,
0.00150207127723492,0.129972205201,0.00206507600277606,,
0.00151195332511147,0.168009949700451,0.00260336307783815,,
0.00152183537298801,0.199403017972941,0.00301732973794788,,
0.00153171742086456,0.223014225823374,0.00326360749113563,,
0.00154159946874111,0.237849506923352,0.0034619852510378,,
0.00155148151661765,0.243426585141134,0.00349090666278329,,
0.0015613635644942,0.239628858980519,0.00336134621280504,,
0.00157124561237074,0.227223716171239,0.00314670332189282,,
0.00158112766024729,0.205241556861414,0.00281574411113494,,
0.00159100970812383,0.176043660537557,0.00232935907691179,,
0.00160089175600038,0.139599433083085,0.00179628867862203,,
0.00161077380387692,0.0979842047954294,0.00117323449905804,,
0.00162065585175347,0.0527933442367121,0.000503771361435312,,
0.00163053789963002,0.00641903359621938,-0.000146654799012325,,
0.00164041994750656,-0.0402259732588024,-0.000804703536414486,,
0.00165030199538311,-0.0868368592979223,-0.00148791884619914,,
0.00166018404325965,-0.130178583236716,-0.00208738702858202,,
0.0016700660911362,-0.168399760184446,-0.0026045309905478,,
0.00167994813901274,-0.199853730145785,-0.00301090232499934,,
0.00168983018688929,-0.2237703942409,-0.00329595478016387,,
0.00169971223476583,-0.238347432783315,-0.00343521474519992,,
0.00170959428264238,-0.244139860078205,-0.00348494446839753,,
0.00171947633051893,-0.24045688389665,-0.00338930409656424,,
0.00172935837839547,-0.22731040684885,-0.00316454902810337,,
0.00173924042627202,-0.205209860651293,-0.00280868991836547,,
0.00174912247414856,-0.175705229654251,-0.00232235549369308,,
0.00175900452202511,-0.139197543653925,-0.00178564315426843,,
0.00176888656990165,-0.0974387346202847,-0.00117579612093488,,
0.0017787686177782,-0.0520831772034156,-0.000495305940807267,,
0.00178865066565474,-0.00555746095282599,0.000142896066607001,,
0.00179853271353129,0.0409173165344889,0.000815315969907804,,
0.00180841476140784,0.0869718877980612,0.00146310264763017,,
0.00181829680928438,0.130134345202146,0.00209307865652297,,
0.00182817885716093,0.168063357153248,0.00261595706989581,,
0.00183806090503747,0.199482787503141,0.00298234685923671,,
0.00184794295291402,0.2231291521374,0.00329563165764757,,
0.00185782500079056,0.237965579414656,0.00345238890160271,,
0.00186770704866711,0.243665651271155,0.00348711483951769,,
0.00187758909654365,0.240001080051666,0.00338389860723787,,
0.0018874711444202,0.227099774732081,0.00315755323096978,,
0.00189735319229675,0.20530777064111,0.00279147488501819,,
0.00190723524017329,0.17575777747409,0.00232962769683542,,
0.00191711728804984,0.139639306827249,0.00181965861195188,,
0.00192699933592638,0.0979413113149739,0.00116114270946532,,
0.00193688138380293,0.0528366124289701,0.000520248663253842,,
0.00194676343167947,0.0064128398305421,-0.000161654691253066,,
0.00195664547955602,-0.0402921870384983,-0.000844901145376387,,
0.00196652752743256,-0.0868233255892894,-0.00148305254324033,,
0.00197640957530911,-0.130286588403331,-0.00208815006488594,,
0.00198629162318566,-0.168267332625055,-0.0025862589961978,,
0.0019961736710622,-0.19980638420744,-0.00301351066338551,,
0.00200605571893875,-0.223322900181184,-0.00325980982830609,,
0.00201593776681529,-0.238433572414158,-0.00348074192916226,,
0.00202581981469184,-0.244199858050352,-0.00349849809539871,,
0.00203570186256838,-0.240500526800711,-0.00339730819167094,,
0.00204558391044493,-0.227344659915976,-0.00316549503739871,,
0.00205546595832147,-0.205623410230073,-0.00279379124522627,,
0.00206534800619802,-0.175625041328508,-0.0023547125153276,,
0.00207523005407457,-0.139361358837247,-0.00181248568138992,,
0.00208511210195111,-0.0974088458435644,-0.00114179623542165,,
0.00209499414982766,-0.0521529176824295,-0.000498062214803419,,
0.0021048761977042,-0.00555009896799961,0.00014869280669183,,
0.00211475824558075,0.0408998152891232,0.000827641342042273,,
0.00212464029345729,0.0869897417133587,0.001482451068195,,
0.00213452234133384,0.130061364568134,0.00207530691811719,,
0.00214440438921038,0.168089520853814,0.00258814906826732,,
0.00215428643708693,0.199559338920213,0.00298449192558126,,
0.00216416848496348,0.2228297353653,0.00329950523480305,,
0.00217405053284002,0.237726865954567,0.003476883924177,,
0.00218393258071657,0.243444835810105,0.00351852779837802,,
0.00219381462859311,0.240004099787957,0.00337445019341276,,
0.00220369667646966,0.226890421043815,0.00317368210549684,,
0.0022135787243462,0.205406870891946,0.00278982034201247,,
0.00222346077222275,0.17584504124034,0.00232789918602405,,
0.00223334282009929,0.139649093417857,0.00179005591779191,,
0.00224322486797584,0.0979700759562866,0.00115062760203166,,
0.00225310691585239,0.0528296692396877,0.000488606014894089,,
0.00226298896372893,0.00641696166037004,-0.000148994517474854,,
0.00227287101160548,-0.0403344633465731,-0.000827411652541965,,
0.00228275305948202,-0.0868316133326868,-0.00147189119077362,,
0.00229263510735857,-0.130156761784686,-0.00207634052086503,,
0.00230251715523511,-0.168301144854766,-0.00258260537593635,,
0.00231239920311166,-0.199668666599072,-0.00298917720206981,,
0.0023222812509882,-0.223447613085818,-0.00331623558437544,,
0.00233216329886475,-0.238325258661353,-0.00345949759696484,,
0.0023420453467413,-0.244323424777708,-0.00349211934548022,,
0.00235192739461784,-0.240454238872162,-0.00337440347690388,,
0.00236180944249439,-0.227298768741101,-0.0031481028706235,,
0.00237169149037093,-0.205429529935065,-0.00278751176788816,,
0.00238157353824748,-0.175809752205289,-0.00232617846129735,,
0.00239145558612402,-0.139252251577096,-0.00178964714834295,,
0.00240133763400057,-0.0974447740928668,-0.00114646204669855,,
0.00241121968187711,-0.0521321101564532,-0.000490073691866044,,
0.00242110172975366,-0.00552175312223099,0.000161701407761505,,
0.00243098377763021,0.0409566392318849,0.000820281545446999,,
0.00244086582550675,0.0870457941906445,0.00149138949347005,,
0.0024507478733833,0.130051754312492,0.00208731306077725,,
0.00246062992125984,0.168104751786494,0.00260368230731256,,
0.00247051196913639,0.199210416106436,0.00298319554247284,,
0.00248039401701293,0.222920944626412,0.00329746138756004,,
0.00249027606488948,0.237974594539788,0.0034690121925105,,
0.00250015811276602,0.243753311791078,0.00349223808327315,,
0.00251004016064257,0.240030594116584,0.00341081120912179,,
0.00251992220851912,0.22686877592675,0.00315901701489985,,
0.00252980425639566,0.205547586194736,0.00282349905153056,,
0.00253968630427221,0.175833755802522,0.00232494436686759,,
0.00254956835214875,0.139491097288409,0.00176730497819833,,
0.0025594504000253,0.0979798625468941,0.00117478003687754,,
0.00256933244790184,0.0528644513117117,0.000522658456479252,,
0.00257921449577839,0.00639383973796624,-0.000161654691253066,,
0.00258909654365493,-0.0402571404640255,-0.000836147639613927,,
0.00259897859153148,-0.0868217826583378,-0.00147976486896129,,
0.00260886063940803,-0.130185945221543,-0.00206894763340992,,
0.00261874268728457,-0.168319615942444,-0.00257670936327115,,
0.00262862473516112,-0.199812908601179,-0.00301786113823077,,
0.00263850678303766,-0.223473798828254,-0.00328382600666899,,
0.00264838883091421,-0.238455570201154,-0.00346866571173932,,
0.00265827087879075,-0.244175611992541,-0.0034863907336371,,
0.0026681529266673,-0.240546991064226,-0.00337377280404061,,
0.00267803497454384,-0.227309304755313,-0.0031630852441733,,
0.00268791702242039,-0.205489704242178,-0.00277174689282234,,
0.00269779907029694,-0.17588747184151,-0.00231954861014616,,
0.00270768111817348,-0.13914600976014,-0.00177564582146994,,
0.00271756316605003,-0.0974930898735237,-0.00115893730096417,,
0.00272744521392657,-0.0520842792969525,-0.000512812952332187,,
0.00273732726180312,-0.00556120807085139,0.000158444877821573,,
0.00274720930967966,0.0408537257374108,0.000847291473390133,,
0.00275709135755621,0.0870895913878003,0.00147060843331426,,
0.00276697340543275,0.130095595593389,0.00204392899663786,,
0.0027768554533093,0.168210464598551,0.00259746511865222,,
0.00278673750118585,0.199551624265455,0.00300708325043786,,
0.00279661954906239,0.223004659651474,0.00328782610770162,,
0.00280650159693894,0.237870755286743,0.00343926545578332,,
0.00281638364481548,0.243793758623882,0.00352660196824761,,
0.00282626569269203,0.239903632941135,0.00340627970780671,,
0.00283614774056857,0.226835669036903,0.0031335993412851,,
0.00284602978844512,0.205246053403044,0.00281108024637922,,
0.00285591183632166,0.175768886576942,0.00235863086247035,,
0.00286579388419821,0.139680128371855,0.00179500786768294,,
0.00287567593207476,0.0979328251947399,0.0011647282014855,,
0.0028855579799513,0.0528584338810004,0.000541944588365872,,
0.00289544002782785,0.00642694662781419,-0.000163165191691128,,
0.00290532207570439,-0.0402558620355227,-0.000836196302643533,,
0.00291520412358094,-0.0868197548062299,-0.00149446499693973,,
0.00292508617145748,-0.13017391036012,-0.00207849921285774,,
0.00293496821933403,-0.16825582676853,-0.00262888391707561,,
0.00294485026721057,-0.199827456235866,-0.00299513939645513,,
0.00295473231508712,-0.223687649058151,-0.00327633579315467,,
0.00296461436296367,-0.23858932027279,-0.0034582343047167,,
0.00297449641084021,-0.244323248442742,-0.00350776742927517,,
0.00298437845871676,-0.240349099148743,-0.0033880232856256,,
0.0029942605065933,-0.227107268968132,-0.00314712571698905,,
0.00300414255446985,-0.20559374187206,-0.00277716211475543,,
0.00301402460234639,-0.17575239925763,-0.00232845199803977,,
0.00302390665022294,-0.139221789711736,-0.00174232137880725,,
0.00303378869809948,-0.0974120198729507,-0.00117586230265543,,
0.00304367074597603,-0.052091464946813,-0.000538872977938087,,
0.00305355279385258,-0.00552885060460851,0.000144772513028357,,
0.00306343484172912,0.0408939962352485,0.000824684576364199,,
0.00307331688960567,0.0870111664117157,0.0014882984178306,,
0.00308319893748221,0.130035972333044,0.0020894931645028,,
0.00309308098535876,0.168043629678938,0.00259226790709199,,
0.0031029630332353,0.19937520113207,0.00298897671038789,,
0.00311284508111185,0.222953875181294,0.0032886086092172,,
0.00312272712898839,0.237801918524429,0.00347640507996561,,
0.00313260917686494,0.243522886074387,0.00351767911514234,,
0.00314249122474148,0.239794371387888,0.00339049342100761,,
0.00315237327261803,0.226927098716722,0.0031582695507657,,
0.00316225532049458,0.205407443980586,0.00280086490320786,,
0.00317213736837112,0.175793132634753,0.00231588915032166,,
0.00318201941624767,0.13956972064133,0.00180655073830183,,
