Time domain (s),Current (AC) (A),Potential (AC) (V),Frequency (Hz),Column 5
0,0.4240732330855,0.0106975090365635,3.9811,0.5
0.000613249164803697,0.421494751089148,0.0106635264315007,,
0.00122649832960739,0.418427398207313,0.0105998379110557,,
0.00183974749441109,0.415403431198725,0.0105350814208593,,
0.00245299665921479,0.412557544767912,0.0104493022828538,,
0.00306624582401849,0.409362302808725,0.0103862824461718,,
0.00367949498882218,0.406433898148402,0.0103303775971582,,
0.00429274415362588,0.402652805116471,0.0102619938583466,,
0.00490599331842958,0.399529305810432,0.0101800921240329,,
0.00551924248323328,0.395928561898668,0.0101233694603446,,
0.00613249164803697,0.392270253723706,0.0100122813635006,,
0.00674574081284067,0.388500219835936,0.00993465631886714,,
0.00735898997764437,0.38466638319339,0.00983561415111112,,
0.00797223914244807,0.380959584924799,0.00976836573149464,,
0.00858548830725176,0.376985382221745,0.00967719382731191,,
0.00919873747205546,0.372757386338582,0.00961205248315089,,
0.00981198663685916,0.368661249481957,0.00946840093023837,,
0.0104252358016629,0.364437507115779,0.00938950586752219,,
0.0110384849664666,0.359868946306012,0.00933613143332446,,
0.0116517341312702,0.355731124982933,0.00921615320990155,,
0.0122649832960739,0.351233456122916,0.00910267901847783,,
0.0128782324608776,0.346605629643157,0.00900332896754996,,
0.0134914816256813,0.341847361975855,0.00890522969200669,,
0.014104730790485,0.337146658571751,0.00878829662557745,,
0.0147179799552887,0.332207474648684,0.00872123101159383,,
0.0153312291200924,0.327551291389024,0.00856788594945135,,
0.0159444782848961,0.322419564930433,0.00846636147362423,,
0.0165577274496998,0.317476127490381,0.0083366897409709,,
0.0171709766145035,0.31228740390419,0.00823065766308506,,
0.0177842257793072,0.306948956520124,0.00809774834645571,,
0.0183974749441109,0.301823468553111,0.00799518476492445,,
0.0190107241089146,0.296640132755101,0.00784322517705416,,
0.0196239732737183,0.291083054598002,0.00774731956910824,,
0.020237222438522,0.285599704068645,0.00758616197148676,,
0.0208504716033257,0.280229497091091,0.0074777101242991,,
0.0214637207681294,0.274485866768222,0.00735823221102994,,
0.0220769699329331,0.268528071865154,0.00721520123513475,,
0.0226902190977368,0.262851328096876,0.00707299769526371,,
0.0233034682625405,0.257260540817671,0.00695530935292865,,
0.0239167174273442,0.251453603983674,0.00680234914475042,,
0.0245299665921479,0.245442817348168,0.00665512326064288,,
0.0251432157569516,0.239193550193698,0.00654391970760937,,
0.0257564649217553,0.2333514863986,0.00636017118227361,,
0.026369714086559,0.227035545365389,0.00623984659028221,,
0.0269829632513627,0.2210982382358,0.00607041463242464,,
0.0275962124161664,0.214697262308863,0.00592692183177235,,
0.0282094615809701,0.20851463358716,0.00581027740581641,,
0.0288227107457738,0.202206667898296,0.00566136778561432,,
0.0294359599105775,0.195848510709009,0.00549975317390983,,
0.0300492090753812,0.189418610866573,0.00534288188731757,,
0.0306624582401849,0.183003172981887,0.00518844480205072,,
0.0312757074049886,0.176463248833438,0.00504262363491348,,
0.0318889565697923,0.169761123903957,0.00488489123757541,,
0.032502205734596,0.163345437897447,0.00473803096473402,,
0.0331154548993997,0.15662800030682,0.00454722036915012,,
0.0337287040642034,0.150002686804896,0.0044025874386282,,
0.0343419532290071,0.1433048153924,0.00425913312337256,,
0.0349552023938107,0.13658996535794,0.00410000081973871,,
0.0355684515586144,0.129847538355026,0.00390949810732666,,
0.0361817007234181,0.122965312427203,0.00374776322875858,,
0.0367949498882218,0.116194351414514,0.00356807491274758,,
0.0374081990530255,0.109307021266309,0.00343437664549118,,
0.0380214482178292,0.102564913277169,0.00328055532656757,,
0.0386346973826329,0.0955352675398381,0.00309378088693579,,
0.0392479465474366,0.0886879558972674,0.00293923796682893,,
0.0398611957122403,0.081629102676639,0.00275885691368227,,
0.040474444877044,0.0747094457993471,0.00259958991116083,,
0.0410876940418477,0.0676497418753218,0.00240498850402737,,
0.0417009432066514,0.0606652188640075,0.00228018036334987,,
0.0423141923714551,0.0536871824660956,0.00209244859948177,,
0.0429274415362588,0.046675685067901,0.00192109237180205,,
0.0435406907010625,0.0396037877285184,0.00174216895304546,,
0.0441539398658662,0.0326008328102689,0.00156900872240717,,
0.0447671890306699,0.0255357056520875,0.00139072512336691,,
0.0453804381954736,0.0184836580586353,0.00122144710709504,,
0.0459936873602773,0.0113587335408388,0.00103044408452879,,
0.046606936525081,0.00432256574413082,0.000876334125131883,,
0.0472201856898847,-0.00279498601089156,0.000733841944787095,,
0.0478334348546884,-0.00981250922481496,0.000572540026928969,,
0.0484466840194921,-0.0169833008341005,0.000390874523676032,,
0.0490599331842958,-0.0240035888340642,0.000225464289747013,,
0.0496731823490995,-0.031089097427799,3.64047797014599E-05,,
0.0502864315139032,-0.0381493684874224,-0.000164007922295983,,
0.0508996806787069,-0.0452345935133582,-0.00032362610405956,,
0.0515129298435106,-0.0522433261255125,-0.000486611758012234,,
0.0521261790083143,-0.0592680803183105,-0.000674632162353639,,
0.052739428173118,-0.066274189928324,-0.000846334758601408,,
0.0533526773379217,-0.0732315258769086,-0.00101551656138232,,
0.0539659265027254,-0.0802018350522977,-0.00119699444832788,,
0.0545791756675291,-0.0871184790217251,-0.00135182119823352,,
0.0551924248323328,-0.0941038172904615,-0.00153068448355809,,
0.0558056739971365,-0.101155510424165,-0.00171604699020733,,
0.0564189231619402,-0.107951850754865,-0.00187537653149761,,
0.0570321723267439,-0.114791718742711,-0.0020658768385724,,
0.0576454214915475,-0.121677170254248,-0.00220704608341427,,
0.0582586706563513,-0.12839311911393,-0.00239365936544811,,
0.0588719198211549,-0.135279563112763,-0.00257290509939967,,
0.0594851689859586,-0.142008981442898,-0.00273015642928165,,
0.0600984181507623,-0.148682395132729,-0.00288656108044227,,
0.060711667315566,-0.155451087603025,-0.00306594151328143,,
0.0613249164803697,-0.162004481221928,-0.00321097372979162,,
0.0619381656451734,-0.16861777853837,-0.00338440816887964,,
0.0625514148099771,-0.175081068489138,-0.00356069293264172,,
0.0631646639747808,-0.181695358292876,-0.00371686426608608,,
0.0637779131395845,-0.188114766126749,-0.00387321118915196,,
0.0643911623043882,-0.194669152232948,-0.00402234210038355,,
0.0650044114691919,-0.200905658836462,-0.00419608682798067,,
0.0656176606339956,-0.207234608542452,-0.00435891613501038,,
0.0662309097987993,-0.213436236306688,-0.00452403532312839,,
0.066844158963603,-0.219804034801142,-0.00469285391997998,,
0.0674574081284067,-0.225872102132047,-0.00484127525671507,,
0.0680706572932104,-0.231981853929406,-0.0049846117104444,,
0.0686839064580141,-0.238150587828958,-0.00514580538812481,,
0.0692971556228178,-0.24393189722312,-0.00531200938335541,,
0.0699104047876215,-0.250129342362321,-0.00546217940029115,,
0.0705236539524252,-0.255977715540947,-0.00560797891939302,,
0.0711369031172289,-0.261773486892858,-0.00572990065533707,,
0.0717501522820326,-0.267576985467292,-0.0058845157355627,,
0.0723634014468363,-0.273134914327788,-0.00601673231505595,,
0.07297665061164,-0.278822433672428,-0.00622682409425979,,
0.0735898997764437,-0.28450399809329,-0.00632829084199216,,
0.0742031489412474,-0.289863429494482,-0.00649741491667788,,
0.0748163981060511,-0.295440357397511,-0.00663888723401707,,
0.0754296472708548,-0.300849625839378,-0.00677970529961636,,
0.0760428964356585,-0.306190341765836,-0.00691188339371296,,
0.0766561456004622,-0.311313915650206,-0.00705129674234195,,
0.0772693947652659,-0.316500087126206,-0.00715922903667732,,
0.0778826439300696,-0.321638902779773,-0.00727455052713077,,
0.0784958930948733,-0.326555684846718,-0.00741475282638682,,
0.079109142259677,-0.331409231294486,-0.00756292160270755,,
0.0797223914244806,-0.336365145717694,-0.00768599790054481,,
0.0803356405892844,-0.341196857444938,-0.00783028205716141,,
0.0809488897540881,-0.345903515772821,-0.00796028332102194,,
0.0815621389188917,-0.350835326933114,-0.00806176931145242,,
0.0821753880836954,-0.355002001279742,-0.00816473698964604,,
0.0827886372484991,-0.359346047284647,-0.00827928877217055,,
0.0834018864133028,-0.363794658915435,-0.00841750907350969,,
0.0840151355781065,-0.368502167946715,-0.0085350627169567,,
0.0846283847429102,-0.372333168911271,-0.00863533641739922,,
0.0852416339077139,-0.376368905826709,-0.00875521842733118,,
0.0858548830725176,-0.380552594241277,-0.008857570339182,,
0.0864681322373213,-0.384194526375846,-0.00895000985611016,,
0.087081381402125,-0.388154550688949,-0.00907935927356807,,
0.0876946305669287,-0.39196995542456,-0.00916847461437831,,
0.0883078797317324,-0.395627696463924,-0.00925145153445506,,
0.0889211288965361,-0.399091760696567,-0.00937169675031635,,
0.0895343780613398,-0.402814722329702,-0.00945392079982499,,
0.0901476272261435,-0.406044843128167,-0.0095569654488119,,
0.0907608763909472,-0.409363437079921,-0.00964792568331418,,
0.0913741255557509,-0.412626735310869,-0.00972739802697697,,
0.0919873747205546,-0.415685581158735,-0.00981557047557402,,
0.0926006238853583,-0.418259596962252,-0.00990799315514135,,
0.093213873050162,-0.421749111404856,-0.00997147241124319,,
0.0938271222149657,-0.424508226089173,-0.0100734587118279,,
0.0944403713797694,-0.427258550171722,-0.0101288969254094,,
0.0950536205445731,-0.429520003368785,-0.0102241290389173,,
0.0956668697093768,-0.432246153296469,-0.0102945957998117,,
0.0962801188741805,-0.43421191617112,-0.0103480880955358,,
0.0968933680389842,-0.436721845652062,-0.0104223865587136,,
0.0975066172037879,-0.438928782939767,-0.0104728216707572,,
0.0981198663685916,-0.440959979084039,-0.010547387126373,,
0.0987331155333953,-0.443090211282114,-0.0105875658802637,,
0.099346364698199,-0.444766309650082,-0.0106619196661994,,
0.0999596138630027,-0.44672434530221,-0.0107173963651777,,
0.100572863027806,-0.448350606629503,-0.0107578252741449,,
0.10118611219261,-0.449806372817645,-0.0108386446066837,,
0.101799361357414,-0.451455674028607,-0.0108504187326588,,
0.102412610522217,-0.452739385454702,-0.0109085918147258,,
0.103025859687021,-0.454102992108166,-0.0109585819393732,,
0.103639108851825,-0.454849980582695,-0.0110036531492872,,
0.104252358016629,-0.455988221727901,-0.01101090524118,,
0.104865607181432,-0.457144327644443,-0.0110507977599346,,
0.105478856346236,-0.457713235541197,-0.0111098536007823,,
0.10609210551104,-0.458404006699573,-0.0111193763310657,,
0.106705354675843,-0.458793557963456,-0.0111689671697248,,
0.107318603840647,-0.459355872908882,-0.0111782974730259,,
0.107931853005451,-0.459747834499057,-0.0111925587177466,,
0.108545102170254,-0.460235216653597,-0.0112091242755796,,
0.109158351335058,-0.460345808095208,-0.0112240181240049,,
0.109771600499862,-0.460087761398114,-0.0112783402610894,,
0.110384849664666,-0.460170846763222,-0.0112741645955752,,
0.110998098829469,-0.460107398468195,-0.0112640621790079,,
0.111611347994273,-0.459715436878021,-0.0112705662110075,,
0.112224597159077,-0.459330068239173,-0.0112617338125229,,
0.11283784632388,-0.459072588677677,-0.0112630038306056,,
0.113451095488684,-0.458242018594391,-0.011262869131718,,
0.114064344653488,-0.457491201954576,-0.011253497937683,,
0.114677593818291,-0.456965112795472,-0.0112771664564981,,
0.115290842983095,-0.455732727140997,-0.0112610603180849,,
0.115904092147899,-0.454789509749557,-0.0112411248827256,,
0.116517341312703,-0.453923281015547,-0.0112014849243849,,
0.117130590477506,-0.452324525764758,-0.0112063725697338,,
0.11774383964231,-0.451351321078573,-0.0111512422393236,,
0.118357088807114,-0.449799921650217,-0.0111607288895477,,
0.118970337971917,-0.448128573042882,-0.0111333681780112,,
0.119583587136721,-0.446585113512899,-0.0110924389588902,,
0.120196836301525,-0.444749012014342,-0.0110629783879097,,
0.120810085466328,-0.442909507702198,-0.0110281466987883,,
0.121423334631132,-0.440804583930185,-0.0110045166653698,,
0.122036583795936,-0.438508322785793,-0.0109768264226262,,
0.122649832960739,-0.436421122001217,-0.0109086110574239,,
0.123263082125543,-0.434244172008257,-0.0108723746513322,,
0.123876331290347,-0.431847244295218,-0.0108221704516671,,
0.124489580455151,-0.429155831422913,-0.0107893448138352,,
0.125102829619954,-0.426659371412424,-0.0107054081641844,,
0.125716078784758,-0.424258969993848,-0.0106733690716423,,
0.126329327949562,-0.421238193122999,-0.0105961673663697,,
0.126942577114365,-0.418302061240153,-0.010574310066525,,
0.127555826279169,-0.415532454547272,-0.0104779811192186,,
0.128169075443973,-0.412316441246808,-0.0104216553361813,,
0.128782324608776,-0.409170327408799,-0.0103636794917712,,
0.12939557377358,-0.405774673907665,-0.0103112960565324,,
0.130008822938384,-0.402802812482144,-0.0102349241926207,,
0.130622072103188,-0.398964934998462,-0.0101529887835854,,
0.131235321267991,-0.39552617919188,-0.0100690713766327,,
0.131848570432795,-0.391781099270423,-0.0099591378416819,,
0.132461819597599,-0.387901891780036,-0.00992234580267892,,
0.133075068762402,-0.384365801326445,-0.00984431666138263,,
0.133688317927206,-0.380529908817356,-0.00975572327876195,,
0.13430156709201,-0.376219749164432,-0.00966085437118291,,
0.134914816256813,-0.372223711740855,-0.00957133974438484,,
0.135528065421617,-0.367963672696405,-0.00946250304323293,,
0.136141314586421,-0.363571774625418,-0.00938507042558179,,
0.136754563751224,-0.359257574131357,-0.00927582962776707,,
0.137367812916028,-0.354998598466153,-0.00918267813100471,,
0.137981062080832,-0.350332277657679,-0.00905561618929784,,
0.138594311245636,-0.345495461710053,-0.00896917798887786,,
0.139207560410439,-0.340767819365044,-0.0088591482404361,,
0.139820809575243,-0.336220526140201,-0.00876464734946092,,
0.140434058740047,-0.331486645303614,-0.00864457291254617,,
0.14104730790485,-0.326589145847001,-0.00854697635249435,,
0.141660557069654,-0.321410347133775,-0.00842362825154463,,
0.142273806234458,-0.316144493106254,-0.00832139179588332,,
0.142887055399261,-0.311263440581983,-0.00819200389302877,,
0.143500304564065,-0.305882458028067,-0.00807275689213816,,
0.144113553728869,-0.300568397474715,-0.00795089528962611,,
0.144726802893673,-0.295098374631911,-0.00781186438962456,,
0.145340052058476,-0.289761132410991,-0.00769296375730155,,
0.14595330122328,-0.284034976953736,-0.00758201035934514,,
0.146566550388084,-0.278709290120626,-0.00745649023883344,,
0.147179799552887,-0.272937834707479,-0.00732577458980144,,
0.147793048717691,-0.267197784428073,-0.00717685294291304,,
0.148406297882495,-0.261375924838653,-0.00707048171247093,,
0.149019547047298,-0.255656362332725,-0.00692352522613815,,
0.149632796212102,-0.249793598088299,-0.00677449052839751,,
0.150246045376906,-0.243707382418258,-0.00663028574791102,,
0.15085929454171,-0.237786486775036,-0.00649668369414558,,
0.151472543706513,-0.231819865824225,-0.0063437042432688,,
0.152085792871317,-0.225556774739554,-0.00619386135220301,,
0.152699042036121,-0.219523302680127,-0.00606684270656732,,
0.153312291200924,-0.213208247796288,-0.00592428798745326,,
0.153925540365728,-0.20687327227457,-0.00578530038352243,,
0.154538789530532,-0.200422742874756,-0.00563593855991185,,
0.155152038695335,-0.194169151311352,-0.00547859101653847,,
0.155765287860139,-0.187695369352021,-0.005329982063496,,
0.156378537024943,-0.181211591627774,-0.00517328636652525,,
0.156991786189747,-0.17480409364146,-0.00502275073832292,,
0.15760503535455,-0.168200650306033,-0.00486297861497365,,
0.158218284519354,-0.161705529869827,-0.00472506619680635,,
0.158831533684158,-0.154916633193851,-0.00452946416936495,,
0.159444782848961,-0.148404782257503,-0.00439661258082991,,
0.160058032013765,-0.141641477575388,-0.00423997701729117,,
0.160671281178569,-0.134823231632215,-0.00407657042931486,,
0.161284530343372,-0.128027883788812,-0.00390332360653423,,
0.161897779508176,-0.121299103486225,-0.00372229070698538,,
0.16251102867298,-0.114522967361205,-0.00358460920119619,,
0.163124277837783,-0.107611852963858,-0.00342243414590637,,
0.163737527002587,-0.100695067210531,-0.00325673046082953,,
0.164350776167391,-0.0938565461697292,-0.0030523176829389,,
0.164964025332195,-0.0868127220424481,-0.00292852940526744,,
0.165577274496998,-0.0798670123736227,-0.0027287709550099,,
0.166190523661802,-0.0729317947133605,-0.00255972385111658,,
0.166803772826606,-0.0658489091217664,-0.00240326147186165,,
0.167417021991409,-0.0589090834847704,-0.00222580530884509,,
0.168030271156213,-0.051907510959541,-0.00207015112291531,,
0.168643520321017,-0.0448466018723698,-0.0018815341949292,,
0.16925676948582,-0.0377554928146046,-0.00172509105837237,,
0.169870018650624,-0.030739741899425,-0.00153766717767567,,
0.170483267815428,-0.0236766351618116,-0.00141351328873807,,
0.171096516980232,-0.0166730776619892,-0.00119089451299104,,
0.171709766145035,-0.00952128509523695,-0.00103834080681242,,
0.172323015309839,-0.0023906183295106,-0.000845160954010105,,
0.172936264474643,0.00465657316538369,-0.00071321377229161,,
0.173549513639446,0.0117355596997414,-0.000509645267785519,,
0.17416276280425,0.0188769665958551,-0.000336845837738853,,
0.174776011969054,0.0259233782793021,-0.000158328920982775,,
0.175389261133857,0.0329722711809904,-1.14133253839022E-05,,
0.176002510298661,0.0399661873756467,0.000147300449563126,,
0.176615759463465,0.0471035888765994,0.000345634940152273,,
0.177229008628269,0.0541145191391959,0.000499364856259898,,
0.177842257793072,0.0610279020789348,0.000724754580550879,,
0.178455506957876,0.0679892079767055,0.000895418071094944,,
0.17906875612268,0.0751076104351249,0.00104739690166378,,
0.179682005287483,0.0820493501547642,0.00125542971215786,,
0.180295254452287,0.0889732605490411,0.00138526019707141,,
0.180908503617091,0.0958905425460163,0.00156777718972068,,
0.181521752781894,0.102827780626846,0.00173447187375597,,
0.182135001946698,0.109676226540613,0.00191378014647681,,
0.182748251111502,0.116532931366526,0.00204436590729573,,
0.183361500276306,0.123309882748969,0.00224874260512742,,
0.183974749441109,0.130223265688708,0.00240037025645368,,
0.184587998605913,0.136884308733307,0.00259052660029768,,
0.185201247770717,0.143569348702897,0.00271452173697506,,
0.18581449693552,0.150304119375238,0.00290793490749364,,
0.186427746100324,0.157036018923614,0.00306397394738767,,
0.187040995265128,0.163726517573335,0.0032698323329825,,
0.187654244429931,0.170202355399209,0.00341319524542172,,
0.188267493594735,0.176778576225931,0.00357612317127964,,
0.188880742759539,0.183280785857113,0.00374937961540933,,
0.189493991924342,0.189737589194479,0.00389391152176577,,
0.190107241089146,0.196112228762083,0.00405072026958875,,
0.19072049025395,0.20250898661801,0.00422734418590709,,
0.191333739418754,0.208877600369886,0.00439162391131553,,
0.191946988583557,0.214956726844952,0.00454244817999072,,
0.192560237748361,0.221394283017961,0.00470354804951789,,
0.193173486913165,0.227470821936862,0.00486308926048862,,
0.193786736077968,0.233555655213883,0.00502705629205069,,
0.194399985242772,0.239476019167482,0.00517478248631198,,
0.195013234407576,0.245520514925095,0.0053435794351282,,
0.195626483572379,0.251553136281125,0.00547506479208915,,
0.196239732737183,0.257329695914653,0.00563829579044439,,
0.196852981901987,0.263284052558157,0.00575664319519298,,
0.197466231066791,0.269062880734078,0.00593343067444652,,
0.198079480231594,0.27473710783814,0.00607333952255473,,
0.198692729396398,0.280442172940344,0.00621573548940857,,
0.199305978561202,0.285982520597302,0.00640354422406952,,
0.199919227726005,0.291270776480943,0.00652646658032063,,
0.200532476890809,0.2967257702304,0.00667746403328007,,
0.201145726055613,0.302117528360679,0.00677640517687061,,
0.201758975220416,0.307247553412476,0.00692513680211437,,
0.20237222438522,0.312748201577573,0.00705560229606927,,
0.202985473550024,0.317615642847491,0.00719559292564531,,
0.203598722714828,0.322640464245858,0.00734364624577655,,
0.204211971879631,0.327671240568003,0.0074359390371308,,
