Time domain (s),Current (AC) (A),Potential (AC) (V),Frequency (Hz),Column 5
0,0.318516183285181,0.0237620719669773,0.0039811,0.5
0.613249164803698,0.313397217377545,0.0236842424570165,,
1.2264983296074,0.308215582986329,0.0235876309223424,,
1.83974749441109,0.30299765191684,0.0235015445802613,,
2.45299665921479,0.297780571550749,0.0233878997205839,,
3.06624582401849,0.292362973304786,0.0232842810141953,,
3.67949498882219,0.28666698237215,0.0231936290811268,,
4.29274415362588,0.281152439384902,0.0231187938069897,,
4.90599331842958,0.275714778717159,0.0229552780112492,,
5.51924248323328,0.269913796806942,0.0228583901490267,,
6.13249164803698,0.264079672910215,0.0227025125416409,,
6.74574081284067,0.258435539438822,0.0225916309574483,,
7.35898997764437,0.252439214761065,0.0224102074868497,,
7.97223914244807,0.24666747578012,0.0222806882281561,,
8.58548830725177,0.240339093209728,0.0221615168175089,,
9.19873747205546,0.234704565597526,0.0219854095589995,,
9.81198663685916,0.228502689711466,0.0218032024729649,,
10.4252358016629,0.222373371735975,0.021649642717553,,
11.0384849664666,0.215989693444777,0.0214844400864793,,
11.6517341312703,0.209646565348837,0.0212517970364092,,
12.264983296074,0.203455996728762,0.0210892834435681,,
12.8782324608776,0.197135235042968,0.0209424421594471,,
13.4914816256813,0.190753860740137,0.0207083638558418,,
14.104730790485,0.18419068403217,0.0205372057474542,,
14.7179799552887,0.177926387784353,0.0203525199620667,,
15.3312291200924,0.171273851773724,0.0200973046631483,,
15.9444782848961,0.164646943202929,0.0199229337314737,,
16.5577274496998,0.158115490642475,0.0196699331772345,,
17.1709766145035,0.151474864479404,0.0194790774513618,,
17.7842257793072,0.144691107469786,0.019236672202676,,
18.3974749441109,0.137926030488926,0.0190290801008066,,
19.0107241089146,0.13116860983864,0.018778657228923,,
19.6239732737183,0.124367803315106,0.0185412300004018,,
20.237222438522,0.117665111250028,0.0182744089444471,,
20.8504716033257,0.110745206250912,0.0180121658523551,,
21.4637207681294,0.103973040075077,0.0177918296889219,,
22.0769699329331,0.0970116987313319,0.0174863186518883,,
22.6902190977368,0.0900739998528283,0.0172485944743594,,
23.3034682625405,0.0830791975088002,0.0169689015037959,,
23.9167174273442,0.0761666652724583,0.0166948835587055,,
24.5299665921479,0.0690334818425158,0.0164195293430818,,
25.1432157569516,0.0621144629927717,0.0161363884646,,
25.7564649217553,0.0551304716710806,0.015891685985399,,
26.369714086559,0.0480815433234174,0.0156100092304947,,
26.9829632513627,0.0410677773828309,0.0152558851663871,,
27.5962124161664,0.034037848077701,0.0150038249506714,,
28.2094615809701,0.0269702042553035,0.0146831323956387,,
28.8227107457738,0.019898555037745,0.014358851706767,,
29.4359599105775,0.0127623232539632,0.0140653176130288,,
30.0492090753812,0.00567879963482139,0.0137519498001764,,
30.6624582401849,-0.00137636720441991,0.0134010550565233,,
31.2757074049886,-0.00839495379758959,0.0130990166731588,,
31.8889565697923,-0.0155309374595473,0.0127667637282989,,
32.502205734596,-0.0226161624854831,0.0124573676084192,,
33.1154548993997,-0.0297257743421333,0.0121090835414557,,
33.7287040642034,-0.0367378388759259,0.0117705493002327,,
34.3419532290071,-0.0437988897469966,0.0114412947154885,,
34.9552023938108,-0.050832363649614,0.0111015355596105,,
35.5684515586145,-0.057855132867819,0.0107644984362993,,
36.1817007234182,-0.0648830063064061,0.0104246073030847,,
36.7949498882219,-0.0718786947998061,0.010055631664319,,
37.4081990530255,-0.0788913264691967,0.00973100041064745,,
38.0214482178292,-0.0858704971383047,0.00935438658352705,,
38.6346973826329,-0.0927938758429585,0.00900853997299844,,
39.2479465474366,-0.0997320709651102,0.00861972236653541,,
39.8611957122403,-0.106739385738269,0.00827492745040814,,
40.474444877044,-0.113477240210424,0.00788986707374617,,
41.0876940418477,-0.120280244384401,0.00751863132309172,,
41.7009432066514,-0.127013349095922,0.00715724025688846,,
42.3141923714551,-0.133897808120162,0.00679059484297229,,
42.9274415362588,-0.140600216617442,0.00640944429490675,,
43.5406907010625,-0.147429663488675,0.00605478407286908,,
44.1539398658662,-0.154055225112424,0.00565011268884863,,
44.7671890306699,-0.160661007882192,0.00528229185177853,,
45.3804381954736,-0.167342928605993,0.00488767961538095,,
45.9936873602773,-0.173842586126984,0.00450862420753362,,
46.606936525081,-0.180364078368498,0.00414167772031826,,
47.2201856898847,-0.186964402458136,0.00374200085362908,,
47.8334348546884,-0.193310862475714,0.00331982597534353,,
48.4466840194921,-0.199617197649733,0.00295257841482943,,
49.0599331842958,-0.205987831822177,0.00255961589513909,,
49.6731823490995,-0.212176061007911,0.00218576121921155,,
50.2864315139032,-0.218489485376905,0.00178218689680154,,
50.8996806787069,-0.224927325117713,0.00138279048195278,,
51.5129298435106,-0.230945697191842,0.000993160390011294,,
52.1261790083143,-0.236892468396723,0.000632961244129149,,
52.739428173118,-0.242953659208503,0.000214906533320125,,
53.3526773379217,-0.248969337388542,-0.000195938915477978,,
53.9659265027254,-0.254943827345776,-0.000588062141793078,,
54.5791756675291,-0.260651196436347,-0.000982688813211841,,
55.1924248323328,-0.266378131705049,-0.00136291551992151,,
55.8056739971365,-0.272143915762215,-0.00173976236952678,,
56.4189231619402,-0.277920475395744,-0.00214897047449236,,
57.0321723267439,-0.283545609824603,-0.00254665118396558,,
57.6454214915476,-0.288878952988287,-0.00292854616669525,,
58.2586706563513,-0.294465522196482,-0.00332432970195518,,
58.871919821155,-0.299743853207159,-0.00371979772889475,,
59.4851689859587,-0.305057275732962,-0.00411346962676884,,
60.0984181507624,-0.310455697706518,-0.00448611176091651,,
60.7116673155661,-0.315768269528924,-0.00487281979213972,,
61.3249164803698,-0.320649605620994,-0.00527638999025815,,
61.9381656451734,-0.325388023542366,-0.00567473058641443,,
62.5514148099771,-0.330565120848798,-0.00604243800546111,,
63.1646639747808,-0.335779932672497,-0.00643666668272402,,
63.7779131395845,-0.340601081499229,-0.00681513025470259,,
64.3911623043882,-0.34508868370238,-0.00718819719090202,,
65.0044114691919,-0.349855387511702,-0.00759025171179584,,
65.6176606339956,-0.35436695119387,-0.00796174935497751,,
66.2309097987993,-0.358537666381634,-0.00833092295974769,,
66.844158963603,-0.363191935558651,-0.00871035986458368,,
67.4574081284067,-0.367607015297207,-0.00907491013828166,,
68.0706572932104,-0.371538115694811,-0.00944189168197695,,
68.6839064580141,-0.375574986881445,-0.0098219554791612,,
69.2971556228178,-0.379785685128868,-0.0101808987782004,,
69.9104047876215,-0.383811284495491,-0.0105502043603072,,
70.5236539524252,-0.387609037135614,-0.0108859382074193,,
71.1369031172289,-0.391620387220337,-0.0112651915812716,,
71.7501522820326,-0.394935791034352,-0.0116070128830339,,
72.3634014468363,-0.3987120634137,-0.0119467720389119,,
72.97665061164,-0.402105377480492,-0.0123012301706527,,
73.5898997764437,-0.40548259907469,-0.0126778110034391,,
74.2031489412474,-0.408872935679592,-0.012999538755706,,
74.8163981060511,-0.411980271621088,-0.0133109722757192,,
75.4296472708548,-0.415039330144802,-0.0136448584401192,,
76.0428964356585,-0.418318295496646,-0.0139897956443127,,
76.6561456004622,-0.421235428336958,-0.0143458230690712,,
77.2693947652659,-0.423931236510148,-0.0146508391910927,,
77.8826439300696,-0.42662910054988,-0.0149600270342378,,
78.4958930948733,-0.428834974458339,-0.0153022133358216,,
79.109142259677,-0.431570836583138,-0.015591439606808,,
79.7223914244807,-0.433926150721673,-0.0158926469453813,,
80.3356405892844,-0.436118129807981,-0.0162162718718619,,
80.9488897540881,-0.438772111730817,-0.0165018708282378,,
81.5621389188918,-0.440856831297151,-0.016787290377922,,
82.1753880836955,-0.442504643777168,-0.0171043473697612,,
82.7886372484992,-0.444485364853217,-0.017404051403985,,
83.4018864133029,-0.446149340697778,-0.0176906236932184,,
84.0151355781066,-0.447816152220329,-0.0179480619854,,
84.6283847429103,-0.449283615580179,-0.0182174937180442,,
85.2416339077139,-0.451044217152251,-0.0185120176418065,,
85.8548830725177,-0.452399174987846,-0.0187753784169677,,
86.4681322373214,-0.45374583846532,-0.0190211532120284,,
87.081381402125,-0.45468607839487,-0.0192741867606014,,
87.6946305669287,-0.455952846644975,-0.0195001319608394,,
88.3078797317324,-0.456671974583251,-0.0197667591750812,,
88.9211288965361,-0.457563866203071,-0.0199990227903086,,
89.5343780613398,-0.458593146421509,-0.0202235822285126,,
90.1476272261435,-0.458893444720655,-0.0204958184795592,,
90.7608763909472,-0.459386640015074,-0.020704590128874,,
91.3741255557509,-0.45998064366204,-0.0209063834765169,,
91.9873747205546,-0.460222314318742,-0.0211240635960515,,
92.6006238853583,-0.46036806816743,-0.0213178888119976,,
93.213873050162,-0.460086698018868,-0.0215297289343881,,
93.8271222149657,-0.460713666422468,-0.0217234386701648,,
94.4403713797694,-0.460280941961186,-0.0219551248845447,,
95.0536205445731,-0.460022611696293,-0.022124220847048,,
95.6668697093768,-0.459286186122277,-0.0222814223520911,,
96.2801188741805,-0.459398762538482,-0.0224683682493678,,
96.8933680389842,-0.458503822564823,-0.0226197957459351,,
97.5066172037879,-0.457857075307242,-0.0228011820979082,,
98.1198663685916,-0.457334956097324,-0.0229382735562886,,
98.7331155333953,-0.456349557995782,-0.0231289478133236,,
99.346364698199,-0.455336015790189,-0.0232441310338309,,
99.9596138630027,-0.454127449830831,-0.0234163944524122,,
100.572863027806,-0.452932778693623,-0.0235344481799897,,
101.18611219261,-0.451161968680787,-0.0236816359046195,,
101.799361357414,-0.450181674799627,-0.0237911111053188,,
102.412610522217,-0.448631409642468,-0.0239022195255587,,
103.025859687021,-0.446959210331736,-0.0239967812872242,,
103.639108851825,-0.445235685249384,-0.0241413954537899,,
104.252358016629,-0.443234051048159,-0.0242235843401502,,
104.865607181432,-0.441169110335805,-0.0243148301712335,,
105.478856346236,-0.439229435698662,-0.0244157928337234,,
106.09210551104,-0.436915309782933,-0.0244848664722599,,
106.705354675843,-0.434890493914139,-0.0245718395370713,,
107.318603840647,-0.432480238514547,-0.0246564535069909,,
107.931853005451,-0.430002423086842,-0.02471440805492,,
108.545102170254,-0.427470162641729,-0.0248087223590794,,
109.158351335058,-0.424510849091314,-0.0248030473336058,,
109.771600499862,-0.422035373097951,-0.0248824481987304,,
110.384849664666,-0.419221742504275,-0.0249146011773567,,
110.998098829469,-0.416144464749474,-0.024980408376813,,
111.611347994273,-0.413075977596442,-0.0250177909574014,,
112.224597159077,-0.409956731807389,-0.0250302133242077,,
112.83784632388,-0.406559873143109,-0.0250671504812852,,
113.451095488684,-0.403474371922137,-0.0250775107022072,,
114.064344653488,-0.400075599175215,-0.0250665895776048,,
114.677593818291,-0.396331866200803,-0.0250723305917462,,
115.290842983095,-0.392814491221946,-0.0250953276426467,,
115.904092147899,-0.388830363645928,-0.0250835486653562,,
116.517341312703,-0.384953141130134,-0.0250566417858593,,
117.130590477506,-0.381515448702798,-0.0250631416696865,,
117.74383964231,-0.377101715911287,-0.0250195561542781,,
118.357088807114,-0.373257954395776,-0.0249863308597922,,
118.970337971917,-0.369018048665055,-0.0249426958528831,,
119.583587136721,-0.364901282251052,-0.0249234271617413,,
120.196836301525,-0.360557448921996,-0.0248716920457985,,
120.810085466328,-0.355781387375306,-0.0248266052881867,,
121.423334631132,-0.351426353118189,-0.0247654832841797,,
122.036583795936,-0.346400113880828,-0.0246959312277979,,
122.64983296074,-0.34210803167509,-0.0246268740864282,,
123.263082125543,-0.337414417465962,-0.024522430521686,,
123.876331290347,-0.332664089697032,-0.0244585534907777,,
124.489580455151,-0.32743283094099,-0.0243760841525775,,
125.102829619954,-0.322465290238023,-0.0242877913144,,
125.716078784758,-0.317506540136824,-0.0242219181262757,,
126.329327949562,-0.312400334780144,-0.0241326684524084,,
126.942577114365,-0.307050332008268,-0.0240200752871318,,
127.555826279169,-0.301774482215833,-0.0238769458656023,,
128.169075443973,-0.296484524925397,-0.0237584467145133,,
128.782324608776,-0.291030381879337,-0.0236316989798881,,
129.39557377358,-0.285577302212524,-0.0235156249123589,,
130.008822938384,-0.279727085843204,-0.0233673483747028,,
130.622072103188,-0.274217930644137,-0.0232463911457197,,
131.235321267991,-0.268584501857156,-0.0230886782284974,,
131.848570432795,-0.262823609344523,-0.0229774708252553,,
132.461819597599,-0.256870670540014,-0.0228209292068948,,
133.075068762402,-0.251195911746328,-0.0226378106523795,,
133.688317927206,-0.24515138054274,-0.02247495061903,,
134.30156709201,-0.239162428627757,-0.0223228632357797,,
134.914816256813,-0.233127538729336,-0.022165282295894,,
135.528065421617,-0.226983687904146,-0.0219928209113078,,
136.141314586421,-0.221024581500008,-0.0217964221372982,,
136.754563751225,-0.214699956202953,-0.0216096907031931,,
137.367812916028,-0.208427649164815,-0.0214343258172023,,
137.981062080832,-0.202052194339788,-0.0211983338422161,,
138.594311245636,-0.195671351726581,-0.021036843073734,,
139.207560410439,-0.189377564427667,-0.0208187835193567,,
139.820809575243,-0.182889533186436,-0.0206069598941334,,
140.434058740047,-0.176307073868136,-0.0204153123042405,,
141.04730790485,-0.16986015995776,-0.0201967248405173,,
141.660557069654,-0.16330889309735,-0.0199812718385375,,
142.273806234458,-0.156759540319584,-0.0197566134173308,,
142.887055399262,-0.149881390678871,-0.0195197635896571,,
143.500304564065,-0.143240303718127,-0.0193101010933203,,
144.113553728869,-0.136507128114656,-0.0190329981779871,,
144.726802893673,-0.129793164229567,-0.0187972866548414,,
145.340052058476,-0.123036310714879,-0.0185689823597115,,
145.95330122328,-0.116056572910173,-0.0183169056468286,,
146.566550388084,-0.109389043252171,-0.0180474409198506,,
147.179799552887,-0.102409943475013,-0.0178098817139927,,
147.793048717691,-0.095430985481754,-0.017548154158372,,
148.406297882495,-0.0885397917222873,-0.0172527723819211,,
149.019547047298,-0.0815645201104156,-0.0170303080839354,,
149.632796212102,-0.0745442321104519,-0.0167129170244631,,
150.246045376906,-0.067625177814733,-0.0164793356980155,,
150.85929454171,-0.0606536634761981,-0.0161353017137191,,
151.472543706513,-0.0536566280357528,-0.0158656761393621,,
152.085792871317,-0.0465796973679379,-0.015574398033221,,
152.699042036121,-0.0394761822189662,-0.0153248639462138,,
153.312291200924,-0.0324500101871732,-0.015027040589036,,
153.925540365728,-0.0253950560237811,-0.014733110563288,,
154.538789530532,-0.0183686004241891,-0.0144209181735895,,
155.152038695335,-0.0112287177049951,-0.0141216760600438,,
155.765287860139,-0.004173196406005,-0.0137897695556926,,
156.378537024943,0.00292053565390096,-0.0134903604083303,,
156.991786189747,0.0099836423915144,-0.0131616914730173,,
157.60503535455,0.0170890007311796,-0.0128565743058471,,
158.218284519354,0.0241742612030903,-0.0125540987475552,,
158.831533684158,0.0311854395875109,-0.0122159233197161,,
159.444782848961,0.0382230252232139,-0.0119005799711065,,
160.058032013765,0.0453116530627378,-0.0115469631948866,,
160.671281178569,0.0523793323311102,-0.0112635727967523,,
161.284530343372,0.0592906948502812,-0.0108863362015752,,
161.897779508176,0.0662502638952829,-0.0105691925996085,,
162.51102867298,0.0732536087192561,-0.010225719518993,,
163.124277837784,0.080344505101172,-0.00989798886005699,,
163.737527002587,0.08724959368279,-0.00957517229476323,,
164.350776167391,0.094178891865248,-0.00921386990083306,,
164.964025332195,0.101124601534073,-0.00885904676927085,,
165.577274496998,0.107981838049609,-0.00847820760523366,,
166.190523661802,0.114918757116666,-0.00813826904266346,,
166.803772826606,0.121724951428381,-0.00780962897739279,,
167.417021991409,0.128415450078102,-0.0074555667776619,,
168.030271156213,0.135162378719825,-0.00711265666287275,,
168.643520321017,0.141950991828001,-0.00673307334567896,,
169.256769485821,0.148738754232781,-0.00635452935001135,,
169.870018650624,0.155420178712934,-0.00597540795349572,,
170.483267815428,0.161934865327272,-0.00562014146056811,,
171.096516980232,0.168467983848545,-0.00526584830049837,,
171.709766145035,0.175179466515393,-0.004930380470205,,
172.323015309839,0.181691317451741,-0.00454865045914588,,
172.936264474643,0.188039549768063,-0.00421413740239718,,
173.549513639446,0.194591100196271,-0.00381492245638615,,
174.16276280425,0.20096882356369,-0.00344395272255094,,
174.776011969054,0.207229681551944,-0.00310557726656091,,
175.389261133857,0.213601485441558,-0.00272264708659709,,
176.002510298661,0.21982721646871,-0.00232151846920559,,
176.615759463465,0.225947176706834,-0.00198348945372429,,
177.229008628269,0.231988305096833,-0.00159064241420337,,
177.842257793072,0.23819989318001,-0.00126211782910257,,
178.455506957876,0.244125857597639,-0.00083281205034913,,
179.06875612268,0.250142032021327,-0.000486223067302838,,
179.682005287483,0.256046480732206,-0.000145443149211832,,
180.295254452287,0.261787594390859,0.000238794431242528,,
180.908503617091,0.267798097458566,0.000636372033421484,,
181.521752781894,0.273345498864524,0.000976415765431504,,
182.135001946698,0.278905448145587,0.00134235592545551,,
182.748251111502,0.284482659616415,0.00173833742672036,,
183.361500276306,0.289974800747541,0.00209408233749242,,
183.974749441109,0.295387294773122,0.00246617594083487,,
184.587998605913,0.300872594831098,0.00284236084161149,,
185.201247770717,0.306347154758686,0.00321239229906922,,
185.81449693552,0.311647604057685,0.00355820591526346,,
186.427746100324,0.316580833056973,0.00394221047323295,,
187.040995265128,0.321501585073105,0.00428868397611026,,
187.654244429931,0.326555330386969,0.00468682660626119,,
188.267493594735,0.331482888030277,0.00504034439947887,,
188.880742759539,0.33615239897649,0.0053775959859621,,
189.493991924343,0.341032884365163,0.00579241725202451,,
190.107241089146,0.345713170887739,0.00613166499572326,,
190.72049025395,0.350489586894177,0.00649965080446435,,
191.333739418754,0.35485709813445,0.00688470705683475,,
191.946988583557,0.359330380163752,0.00721156955235314,,
192.560237748361,0.363659609751159,0.00754382249721308,,
193.173486913165,0.36799933134713,0.00790568785696966,,
193.786736077968,0.372078454135815,0.00823881102739277,,
194.399985242772,0.375964467253378,0.00863416976060005,,
195.013234407576,0.380187642483958,0.00894929864603755,,
195.62648357238,0.384064297864153,0.00929743836278929,,
196.239732737183,0.387878568328568,0.00963969271518739,,
196.852981901987,0.391835189828083,0.0100004156461244,,
197.466231066791,0.395319954510054,0.0103179861122884,,
198.079480231594,0.398727588750695,0.0106587515953582,,
198.692729396398,0.402299408746961,0.0109840262385461,,
199.305978561202,0.405817350861415,0.0113333867456609,,
199.919227726005,0.408719100148632,0.011661003986573,,
200.532476890809,0.412275607483751,0.0119758359230033,,
201.145726055613,0.415128583109539,0.0122864280874957,,
201.758975220416,0.418331481399299,0.0126159548754967,,
202.37222438522,0.420948528616315,0.012950191604697,,
202.985473550024,0.423977599845285,0.0132289937282386,,
203.598722714828,0.426639167206745,0.0135679074043047,,
204.211971879631,0.429090894396941,0.0138625344353613,,
204.825221044435,0.431352064026206,0.014172499707505,,
205.438470209239,0.433772598758512,0.0144407601412868,,
206.051719374042,0.436152016159962,0.0147531133783643,,
206.664968538846,0.438316772737565,0.0150649345818037,,
207.27821770365,0.440427651433357,0.0153492096405219,,
207.891466868453,0.44252123249341,0.0156193837456842,,
208.504716033257,0.444526623967973,0.015918143317093,,
209.117965198061,0.445954671403761,0.0161895258397435,,
209.731214362865,0.447641332672242,0.0164748938357806,,
210.344463527668,0.449275250330108,0.0167492417242125,,
210.957712692472,0.451063428870633,0.0170288192146066,,
211.570961857276,0.452010828887108,0.0172629841283394,,
212.184211022079,0.453447666924666,0.0175259943386998,,
