Time domain (s),Current (AC) (A),Potential (AC) (V),Frequency (Hz),Column 5
0,-0.349666373567747,-0.00860593643216889,6.3096,0.4
0.000386935186065678,-0.347427748234614,-0.00854330149653837,,
0.000773870372131355,-0.345445687370483,-0.0084870303808855,,
0.00116080555819703,-0.342921661080498,-0.00844619322720686,,
0.00154774074426271,-0.340526565382877,-0.00842564782690891,,
0.00193467593032839,-0.33864422813305,-0.00835116622141951,,
0.00232161111639407,-0.335941440317732,-0.00828079731951714,,
0.00270854630245974,-0.333210124756403,-0.00825025098362442,,
0.00309548148852542,-0.330640095932265,-0.00820106159931333,,
0.0034824166745911,-0.328065744722367,-0.00814759645268248,,
0.00386935186065678,-0.325084780509251,-0.00810440627090525,,
0.00425628704672246,-0.322231017934196,-0.00805445594584242,,
0.00464322223278813,-0.319170027836164,-0.0079768399891611,,
0.00503015741885381,-0.316016476934515,-0.00791866199221936,,
0.00541709260491949,-0.313374264268195,-0.00786867543188263,,
0.00580402779098517,-0.30987763943399,-0.00778906653513722,,
0.00619096297705084,-0.306582993511481,-0.00772143339641396,,
0.00657789816311652,-0.30359912712507,-0.00766139154757139,,
0.0069648333491822,-0.299898917921599,-0.00759263511535746,,
0.00735176853524788,-0.296381422139013,-0.00751898918587202,,
0.00773870372131355,-0.292899308171285,-0.00742398029772184,,
0.00812563890737923,-0.289275913937595,-0.00734924278061078,,
0.00851257409344491,-0.285696731535386,-0.00730072374886648,,
0.00889950927951059,-0.281688768465849,-0.00718409825513389,,
0.00928644446557626,-0.278137002339028,-0.00711793264500304,,
0.00967337965164194,-0.27419671548081,-0.00702731048969873,,
0.0100603148377076,-0.270233211236227,-0.00695714088180255,,
0.0104472500237733,-0.266038768095359,-0.00685436179210663,,
0.010834185209839,-0.262145656990286,-0.00679643970678701,,
0.0112211203959047,-0.258218460786081,-0.0066702481007459,,
0.0116080555819703,-0.253922997315181,-0.00660047708086298,,
0.011994990768036,-0.249569737371841,-0.00650514207524777,,
0.0123819259541017,-0.245234507951955,-0.00639176190323276,,
0.0127688611401674,-0.24108822853812,-0.00631796876794777,,
0.013155796326233,-0.236539658506826,-0.00619239769097213,,
0.0135427315122987,-0.232109027858394,-0.00610955932544099,,
0.0139296666983644,-0.227496918756437,-0.00599317389039777,,
0.0143166018844301,-0.222861592268116,-0.00588461300981091,,
0.0147035370704958,-0.218203295386903,-0.00580230458516073,,
0.0150904722565614,-0.213605758899792,-0.00568752935510108,,
0.0154774074426271,-0.208899051298074,-0.00556878636254998,,
0.0158643426286928,-0.204030068985277,-0.00547442970932988,,
0.0162512778147585,-0.199307492052985,-0.0053667565929536,,
0.0166382130008241,-0.194362003512247,-0.00526707335447085,,
0.0170251481868898,-0.189301601258679,-0.00512667978576831,,
0.0174120833729555,-0.184438052802264,-0.00503926218749884,,
0.0177990185590212,-0.179425320288785,-0.00490799764311278,,
0.0181859537450869,-0.174330585942614,-0.00477208139544061,,
0.0185728889311525,-0.169158974878294,-0.00466027745784015,,
0.0189598241172182,-0.164187058036056,-0.00455581116320358,,
0.0193467593032839,-0.15906144950589,-0.0044308017329735,,
0.0197336944893496,-0.1537202156747,-0.00431827082519076,,
0.0201206296754152,-0.148442953152748,-0.00421523582387273,,
0.0205075648614809,-0.143196070827848,-0.00405496720743947,,
0.0208945000475466,-0.138010442883995,-0.00395988584874107,,
0.0212814352336123,-0.132452348784422,-0.00382016489731019,,
0.021668370419678,-0.127168417438727,-0.00369942669999057,,
0.0220553056057436,-0.121682754174807,-0.00356550112767762,,
0.0224422407918093,-0.116241426239105,-0.00347101765099911,,
0.022829175977875,-0.110848817765746,-0.00332915655370369,,
0.0232161111639407,-0.105233915167622,-0.00321862085068947,,
0.0236030463500063,-0.0997348525078482,-0.00305880517517965,,
0.023989981536072,-0.094211399242718,-0.00295808923139118,,
0.0243769167221377,-0.0885934092261942,-0.0028210293078863,,
0.0247638519082034,-0.0830467385746995,-0.00267489244827157,,
0.0251507870942691,-0.0773708285890004,-0.00254150814036302,,
0.0255377222803347,-0.0718087208455081,-0.00242555752860651,,
0.0259246574664004,-0.065974549792649,-0.00227175690856285,,
0.0263115926524661,-0.0604446746972478,-0.00214875627132916,,
0.0266985278385318,-0.0546955928954798,-0.00203086707241962,,
0.0270854630245974,-0.0490120261121499,-0.00189775226436018,,
0.0274723982106631,-0.0433956415531938,-0.0017768011848065,,
0.0278593333967288,-0.037657921451136,-0.00163849114435255,,
0.0282462685827945,-0.0319395903366274,-0.0014964149001182,,
0.0286332037688602,-0.0262049576529692,-0.00137183576376598,,
0.0290201389549258,-0.0204474780731545,-0.00125046571385745,,
0.0294070741409915,-0.0146940121372592,-0.00109253427259004,,
0.0297940093270572,-0.00895931770523305,-0.000963754109170267,,
0.0301809445131229,-0.00320782771711344,-0.00082046171855632,,
0.0305678796991885,0.00257083155292206,-0.000671097654860287,,
0.0309548148852542,0.00829762219384542,-0.000553751985058693,,
0.0313417500713199,0.0141343558039761,-0.000404571362436545,,
0.0317286852573856,0.0198517298187809,-0.000265828763400755,,
0.0321156204434513,0.025600008891765,-0.000115450112035731,,
0.0325025556295169,0.0312939494009173,1.06441117075917E-06,,
0.0328894908155826,0.0370358375178144,0.000110313761961578,,
0.0332764260016483,0.042741355845965,0.000281991960262573,,
0.033663361187714,0.0484760502779912,0.000429800171885653,,
0.0340502963737796,0.0540655434226873,0.000566533977925054,,
0.0344372315598453,0.0598140386149594,0.000682957912947035,,
0.034824166745911,0.0655215637650697,0.000845473116362072,,
0.0352111019319767,0.0711342434219464,0.000984294980059364,,
0.0355980371180424,0.0767768092889305,0.00112522754846145,,
0.035984972304108,0.0824324658099286,0.00124295595334356,,
0.0363719074901737,0.0879567526780267,0.00138671940251811,,
0.0367588426762394,0.0935706364280792,0.00152107979811733,,
0.0371457778623051,0.0990669821596615,0.00165078396102158,,
0.0375327130483707,0.104607786716197,0.00178276641677133,,
0.0379196482344364,0.110149610120805,0.00192131651591465,,
0.0383065834205021,0.115616779748511,0.00206055055585308,,
0.0386935186065678,0.121134860905626,0.00220873923785225,,
0.0390804537926334,0.126578103040737,0.00231887182344392,,
0.0394673889786991,0.131919059004271,0.00243833499206358,,
0.0398543241647648,0.137403826916855,0.0025721926232376,,
0.0402412593508305,0.14265762505897,0.00272501489088617,,
0.0406281945368962,0.147919790104948,0.00284553341185756,,
0.0410151297229618,0.153221782848279,0.0029753100453096,,
0.0414020649090275,0.158407935653261,0.00310664479553857,,
0.0417890000950932,0.163545862982841,0.00323990001528429,,
0.0421759352811589,0.168876506968921,0.003374169822699,,
0.0425628704672245,0.173748638448486,0.00348443376115837,,
0.0429498056532902,0.178961219554967,0.00362325109544681,,
0.0433367408393559,0.183776851277821,0.00374679526178889,,
0.0437236760254216,0.188842656513588,0.00385211308536215,,
0.0441106112114873,0.193821828789065,0.00397909960272402,,
0.0444975463975529,0.19853693416883,0.00409876659475916,,
0.0448844815836186,0.203578317925057,0.0042438571608403,,
0.0452714167696843,0.208298394048445,0.00435235915910681,,
0.04565835195575,0.213077655982552,0.00446657274242135,,
0.0460452871418156,0.217782171517207,0.00459008520289839,,
0.0464322223278813,0.222315489701607,0.00472226695265476,,
0.046819157513947,0.226981937367395,0.00480200267285902,,
0.0472060927000127,0.231526864244978,0.00494900917904717,,
0.0475930278860784,0.23594335451714,0.005052859474028,,
0.047979963072144,0.24032180779462,0.00516065941386268,,
0.0483668982582097,0.244661730090474,0.00526836423610355,,
0.0487538334442754,0.249065160582806,0.00540641157082167,,
0.0491407686303411,0.2533230192976,0.00549378840440795,,
0.0495277038164067,0.257261608075699,0.00562508691936348,,
0.0499146390024724,0.261614127038622,0.00572303086469939,,
0.0503015741885381,0.265751514687467,0.0057843635951742,,
0.0506885093746038,0.269841726583166,0.00593006110209293,,
0.0510754445606695,0.273793869128039,0.00600948882246888,,
0.0514623797467351,0.277446902578365,0.00611524146932885,,
0.0518493149328008,0.281106851845906,0.00621535953109831,,
0.0522362501188665,0.285027379226367,0.00634201993099515,,
0.0526231853049322,0.288853061113595,0.00640696713004107,,
0.0530101204909978,0.292332705146603,0.00654623740525295,,
0.0533970556770635,0.295784191923807,0.00662101795175207,,
0.0537839908631292,0.299372760077951,0.00670399219956019,,
0.0541709260491949,0.302647893516174,0.00678986979868945,,
0.0545578612352606,0.306067271142024,0.00688315751132951,,
0.0549447964213262,0.309291523925023,0.00695965017452016,,
0.0553317316073919,0.312523433505652,0.00704438636252158,,
0.0557186667934576,0.315528109092077,0.00714948677445149,,
0.0561056019795233,0.318477211147309,0.00720499921405704,,
0.0564925371655889,0.321693560139206,0.00727422670483158,,
0.0568794723516546,0.324410982317737,0.0073526896610403,,
0.0572664075377203,0.327379843850727,0.00743648826132937,,
0.057653342723786,0.330035270667796,0.00752669144627971,,
0.0580402779098517,0.332712926897342,0.00759649870143653,,
0.0584272130959173,0.335064551743897,0.00767149213016971,,
0.058814148281983,0.337630813917588,0.00775240096736596,,
0.0592010834680487,0.340076296283489,0.0078371598024134,,
0.0595880186541144,0.342324924852236,0.00787140666565289,,
0.05997495384018,0.344728418327904,0.00793177463196049,,
0.0603618890262457,0.346933823039057,0.0079897691878279,,
0.0607488242123114,0.348831967871089,0.00806524273393983,,
0.0611357593983771,0.350777041462794,0.00810390577118492,,
0.0615226945844428,0.353024435064181,0.008171937497921,,
0.0619096297705084,0.354849716821984,0.00823208805258524,,
0.0622965649565741,0.356664871847437,0.00827403038211783,,
0.0626835001426398,0.358214261897058,0.00832684329381861,,
0.0630704353287055,0.359903697245282,0.00838960278820311,,
0.0634573705147711,0.361396031802879,0.00841168818764171,,
0.0638443057008368,0.362654463542529,0.00846830580310121,,
0.0642312408869025,0.364233245815313,0.00852401753671339,,
0.0646181760729682,0.365292106829616,0.00855153369782657,,
0.0650051112590339,0.366311695881878,0.00860534760896847,,
0.0653920464450995,0.367571856575831,0.00862232383478778,,
0.0657789816311652,0.368574650071999,0.00867975674391008,,
0.0661659168172309,0.369525574939054,0.00871253154914742,,
0.0665528520032966,0.370266555354942,0.00874667876538338,,
0.0669397871893622,0.370904292499549,0.00877335245637845,,
0.0673267223754279,0.371604025005619,0.00882431736911071,,
0.0677136575614936,0.37220693607068,0.00882090672395508,,
0.0681005927475593,0.372713025694731,0.00882337072258021,,
0.068487527933625,0.372955326290726,0.008848427414478,,
0.0688744631196906,0.373400902514147,0.00889224039002512,,
0.0692613983057563,0.373656540757628,0.00887028181404537,,
0.069648333491822,0.37394626410024,0.00891582502392074,,
0.0700352686778877,0.374094460183417,0.00895442012002734,,
0.0704222038639533,0.373893160503768,0.00894340006735428,,
0.070809139050019,0.373540947812749,0.0089509188866872,,
0.0711960742360847,0.37315711995732,0.00894097230400348,,
0.0715830094221504,0.373200096821441,0.0089447090666237,,
0.0719699446082161,0.372538401310053,0.00895258570928625,,
0.0723568797942817,0.372329444832773,0.00893876195229604,,
0.0727438149803474,0.371645272915437,0.00895454694348619,,
0.0731307501664131,0.371061133354245,0.00895273065038182,,
0.0735176853524788,0.3703858532019,0.00896081564586959,,
0.0739046205385444,0.369479387159797,0.00893088530963304,,
0.0742915557246101,0.368619108896952,0.00892593919474649,,
0.0746784909106758,0.367507144286177,0.00890727802869096,,
0.0750654260967415,0.366600678244074,0.0088796848676207,,
0.0754523612828071,0.365182935715009,0.00888493898233556,,
0.0758392964688728,0.364131237511393,0.00885950182006168,,
0.0762262316549385,0.362532695760851,0.00885795729151218,,
0.0766131668410042,0.361366639579716,0.00881502302135662,,
0.0770001020270699,0.35993111352067,0.00876621410742118,,
0.0773870372131355,0.358152019542124,0.00872557171833988,,
0.0777739723992012,0.356340816412222,0.00872635530613808,,
0.0781609075852669,0.354720292242676,0.00865779816793033,,
0.0785478427713326,0.35300541656684,0.00863544100393776,,
0.0789347779573983,0.351069975720542,0.0086032821983566,,
0.0793217131434639,0.348868275911468,0.00858003727015344,,
0.0797086483295296,0.346820700028898,0.00853396411939711,,
0.0800955835155953,0.344436472044044,0.00851053801482449,,
0.080482518701661,0.342429650084348,0.00844196275898002,,
0.0808694538877266,0.339918220461433,0.0083925740806623,,
0.0812563890737923,0.337554492934752,0.00835333127903493,,
0.081643324259858,0.335018610958112,0.00832042965033919,,
0.0820302594459237,0.332440987084711,0.00825727156794187,,
0.0824171946319893,0.329981920077852,0.00822812029009379,,
0.082804129818055,0.327182002079685,0.00814970715738728,,
0.0831910650041207,0.324307492052985,0.00809142271932828,,
0.0835780001901864,0.321525110591327,0.0080355479269838,,
0.0839649353762521,0.318627630171735,0.00795023650400939,,
0.0843518705623177,0.31562789445475,0.00789651771046129,,
0.0847388057483834,0.312460944157246,0.00784504097448568,,
0.0851257409344491,0.308889418552668,0.00778177418626624,,
0.0855126761205148,0.305761246230262,0.00771879728023839,,
0.0858996113065805,0.302676544758922,0.0076730094822639,,
0.0862865464926461,0.29941919485068,0.0075914438807283,,
0.0866734816787118,0.295652791396723,0.00750482798789376,,
0.0870604168647775,0.292216865208253,0.00743560049711922,,
0.0874473520508432,0.288696961239314,0.00734702337008519,,
0.0878342872369088,0.285005643800834,0.00727080247144896,,
0.0882212224229745,0.281218492895233,0.00717387311378204,,
0.0886081576090402,0.277617081080547,0.00709230751224643,,
0.0889950927951059,0.273672101346361,0.00703346142744232,,
0.0893820279811716,0.269527303893358,0.00693125983742426,,
0.0897689631672372,0.265441537880154,0.00686750840241679,,
0.0901558983533029,0.26156596331159,0.00674562652926447,,
0.0905428335393686,0.257428606536929,0.00665927787157505,,
0.0909297687254343,0.253254138993106,0.0065888953814448,,
0.0913167039114999,0.249175813658245,0.00646576339134342,,
0.0917036390975656,0.244528106622142,0.00639590178327554,,
0.0920905742836313,0.240263054222477,0.00629904489615685,,
0.092477509469697,0.235785278695084,0.0061681993221252,,
0.0928644446557627,0.231464868883515,0.00610030800707539,,
0.0932513798418283,0.226831765336442,0.00599193283226729,,
0.093638315027894,0.222135153592891,0.00586777266626903,,
0.0940252502139597,0.217567781183543,0.00575625861086015,,
0.0944121854000254,0.212989757180718,0.00566742783690888,,
0.094799120586091,0.208280332650808,0.00556336013028469,,
0.0951860557721567,0.203528888356481,0.00543322114409417,,
0.0955729909582224,0.198473703840008,0.00533826660885461,,
0.0959599261442881,0.193733158132631,0.00523336096152205,,
0.0963468613303538,0.188773529215623,0.00511238949962634,,
0.0967337965164194,0.183894420170475,0.00499821668099543,,
0.0971207317024851,0.1787186719655,0.00488882238910904,,
0.0975076668885508,0.173518718400273,0.00475989728459414,,
0.0978946020746165,0.168631211577078,0.00465050752211704,,
0.0982815372606821,0.163432492979211,0.00453844540819004,,
0.0986684724467478,0.158314572120859,0.00442448547179319,,
0.0990554076328135,0.152989886852291,0.00427414984981578,,
0.0994423428188792,0.147716545351706,0.00415884467887562,,
0.0998292780049448,0.142421993286717,0.00404428686045932,,
0.100216213191011,0.137120772397986,0.00394130168264306,,
0.100603148377076,0.131753851245712,0.00379243358925851,,
0.100990083563142,0.126414130249538,0.00367483200783525,,
0.101377018749208,0.120960730507893,0.00354712078499553,,
0.101763953935273,0.11541276314067,0.00342861332172451,,
0.102150889121339,0.109948773553915,0.00329855133549106,,
0.102537824307405,0.104463295535099,0.00317248428820438,,
0.10292475949347,0.0989595399993578,0.00305118670884363,,
0.103311694679536,0.0934612183199998,0.00291802207728287,,
0.103698629865602,0.087875954938511,0.00278132450651736,,
0.104085565051667,0.0822042129676513,0.00263370200067303,,
0.104472500237733,0.076641919979055,0.00253628346680834,,
0.104859435423799,0.0709746856390586,0.00239011037191972,,
0.105246370609864,0.0652908718622567,0.00222585587535784,,
0.10563330579593,0.0596685594599735,0.00210468511945594,,
0.106020240981996,0.0539647392119426,0.00200050870701052,,
0.106407176168061,0.0482999439324819,0.00185015043798664,,
0.106794111354127,0.0426244970595427,0.00171062198644822,,
0.107181046540193,0.0368928282975481,0.00157218965194517,,
0.107567981726258,0.0311704526649361,0.00144431537037271,,
0.107954916912324,0.0254192096702884,0.00128315898972886,,
0.10834185209839,0.0197252691611361,0.00118188139919484,,
0.108728787284455,0.0139871168205024,0.00103750647977297,,
0.109115722470521,0.00818351120979872,0.000922654249756238,,
0.109502657656587,0.00245227468638004,0.000800124671083591,,
0.109889592842652,-0.00333231242698255,0.000647737226721734,,
0.110276528028718,-0.00899093286964426,0.00047993167331839,,
0.110663463214784,-0.0148165208993526,0.000352963273593243,,
0.11105039840085,-0.0205746797112152,0.000189868305795926,,
0.111437333586915,-0.02635827885069,8.79928332429003E-05,,
0.111824268772981,-0.0320754367462068,-7.14944600974654E-05,,
0.112211203959047,-0.0377955585633872,-0.000220550523965635,,
0.112598139145112,-0.0435411207081797,-0.000323241290181464,,
0.112985074331178,-0.0492160427199909,-0.000466280033878164,,
0.113372009517244,-0.0548941138985697,-0.000590440199876419,,
0.113758944703309,-0.0606488765501928,-0.00074554302507579,,
0.114145879889375,-0.0662432786901442,-0.000892246060844926,,
0.114532815075441,-0.0719299946402417,-0.00103482959891377,,
0.114919750261506,-0.0776149198876674,-0.00118290504568197,,
0.115306685447572,-0.0832305017178396,-0.00127642602289813,,
0.115693620633638,-0.088831572681534,-0.00142502688113755,,
0.116080555819703,-0.0943785520748687,-0.00156234498096852,,
0.116467491005769,-0.0999660383976052,-0.00170842522296821,,
0.116854426191835,-0.105415702362987,-0.00183691550419685,,
0.1172413613779,-0.111029616987223,-0.00195940658289118,,
0.117628296563966,-0.116476996262989,-0.00209538171288326,,
0.118015231750032,-0.121975873677659,-0.00222492281705478,,
0.118402166936097,-0.127287715285685,-0.00237022626536998,,
0.118789102122163,-0.132823765217885,-0.00249572713650226,,
0.119176037308229,-0.138035636218135,-0.00261988956720494,,
0.119562972494294,-0.143355628610736,-0.00274913852448044,,
0.11994990768036,-0.148530388841823,-0.00289424267878946,,
0.120336842866426,-0.153776344941203,-0.00301465249393962,,
0.120723778052491,-0.159234097942791,-0.00315814191385577,,
0.121110713238557,-0.164251523332238,-0.0032759088187162,,
0.121497648424623,-0.16950451874557,-0.00338845557943124,,
0.121884583610688,-0.174425431435847,-0.00352457338581447,,
0.122271518796754,-0.179602908595126,-0.00363931238060022,,
0.12265845398282,-0.184697889934769,-0.00377519239299851,,
0.123045389168886,-0.189517473553174,-0.0038945536499102,,
0.123432324354951,-0.194321496582845,-0.0040121371136963,,
0.123819259541017,-0.199366585241152,-0.00415608173924076,,
0.124206194727083,-0.204369932002697,-0.00425516483099964,,
0.124593129913148,-0.20906848881984,-0.00438151723106817,,
0.124980065099214,-0.213690909899251,-0.00449316037464076,,
0.12536700028528,-0.218374894101549,-0.00460101466738649,,
0.125753935471345,-0.223118959465901,-0.00474028494259837,,
0.126140870657411,-0.227619427518531,-0.00486062002249632,,
0.126527805843477,-0.232316440626474,-0.00495439691133415,,
0.126914741029542,-0.236763434592424,-0.00506591323144789,,
0.127301676215608,-0.241137874225984,-0.00521090867993523,,
0.127688611401674,-0.245435251896292,-0.00531773026737481,,
0.128075546587739,-0.249827536808202,-0.00542226903255916,,
0.128462481773805,-0.253998392072498,-0.0055239610640383,,
0.128849416959871,-0.258224141635937,-0.00565593219626548,,
