Time domain (s),Current (AC) (A),Potential (AC) (V),Frequency (Hz),Column 5
0,0.372040647715681,0.00989444854153465,0.15849,0.4
0.0154041658779734,0.372412125897513,0.0099500198572291,,
0.0308083317559467,0.372787555974896,0.00995770133298057,,
0.0462124976339201,0.372942420881816,0.0100091624451752,,
0.0616166635118935,0.373748854567774,0.0100056286934529,,
0.0770208293898669,0.373830856400465,0.010027898833409,,
0.0924249952678402,0.373857778688909,0.0100474913719153,,
0.107829161145814,0.373966208823101,0.0100760888375908,,
0.123233327023787,0.373778987771353,0.0101112080535484,,
0.13863749290176,0.373493957304708,0.0100957768829004,,
0.154041658779734,0.373309453181152,0.0101251929783182,,
0.169445824657707,0.373070857487237,0.0101193636523593,,
0.18484999053568,0.372570942699984,0.0101403069299408,,
0.200254156413654,0.372009773531686,0.0101569012370151,,
0.215658322291627,0.371438477631036,0.0101431482573395,,
0.231062488169601,0.370728371399144,0.010138355862388,,
0.246466654047574,0.369967137518555,0.0101514300615686,,
0.261870819925547,0.369096979516831,0.0101320012490107,,
0.277274985803521,0.368081342360121,0.0101081927673299,,
0.292679151681494,0.367149929977351,0.0101212499117245,,
0.308083317559468,0.365933240134463,0.0101024487153025,,
0.323487483437441,0.364970953567697,0.0100940441166117,,
0.338891649315414,0.363655960322969,0.010094658088919,,
0.354295815193388,0.362259953219436,0.0100746153040538,,
0.369699981071361,0.360564837021358,0.0100288675452713,,
0.385104146949334,0.359077936320143,0.0100139548401268,,
0.400508312827308,0.357526817316218,0.00998658531906527,,
0.415912478705281,0.355686962943569,0.00993768583577381,,
0.431316644583254,0.354075083545542,0.00992883099072461,,
0.446720810461228,0.352220656558047,0.00990345346870347,,
0.462124976339201,0.35005254786116,0.00985035168606618,,
0.477529142217175,0.348191946036866,0.00981503122363003,,
0.492933308095148,0.346242673556138,0.00977213161415991,,
0.508337473973121,0.343859433545171,0.00973195053762721,,
0.523741639851095,0.341237350846817,0.00969811725255632,,
0.539145805729068,0.338977607571832,0.00965838301142474,,
0.554549971607041,0.336501251021936,0.00958606048462229,,
0.569954137485015,0.334207669641291,0.00952516807560144,,
0.585358303362988,0.331621647989844,0.00949535289818426,,
0.600762469240962,0.328656738352405,0.00943622054310955,,
0.616166635118935,0.326154941474897,0.00936113855188347,,
0.631570800996908,0.323230044779916,0.0092997003897004,,
0.646974966874882,0.32014830723024,0.00924270670482885,,
0.662379132752855,0.317275279164372,0.00918064433746713,,
0.677783298630828,0.314335809854546,0.00910991472770606,,
0.693187464508802,0.311211342434219,0.0090485993599847,,
0.708591630386775,0.308000674292178,0.00897675095624173,,
0.723995796264749,0.304610688889493,0.0089116835355334,,
0.739399962142722,0.301164635968671,0.00883223551901313,,
0.754804128020695,0.297891478478224,0.00873891513931291,,
0.770208293898669,0.294551138763403,0.00867989193487073,,
0.785612459776642,0.290786217270278,0.00860106812352957,,
0.801016625654615,0.287211233757092,0.00848977199906464,,
0.816420791532589,0.283492500043224,0.00842933324735906,,
0.831824957410562,0.279809333389319,0.00832042479297668,,
0.847229123288536,0.275975006730572,0.00824084374912371,,
0.862633289166509,0.271895168560695,0.0081757626845862,,
0.878037455044482,0.267902272092949,0.00804964253986551,,
0.893441620922456,0.264038553211039,0.00796313725277242,,
0.908845786800429,0.259824103598942,0.00787705833533714,,
0.924249952678402,0.25576501288071,0.00776033537787013,,
0.939654118556376,0.251622191375482,0.00766366884909742,,
0.955058284434349,0.247160532172135,0.00760218975542726,,
0.970462450312323,0.242687449520709,0.00746556045138602,,
0.985866616190296,0.238624653900397,0.00737290520835154,,
1.00127078206827,0.234172843561745,0.00724431211961685,,
1.01667494794624,0.229678550345914,0.00713315584439966,,
1.03207911382422,0.225067676211318,0.00701268083394568,,
1.04748327970219,0.220336269262403,0.00690634083038111,,
1.06288744558016,0.215785939402622,0.00677735207060381,,
1.07829161145814,0.211063640337986,0.00665818345678115,,
1.09369577733611,0.206261068394962,0.00655155693280607,,
1.10909994321408,0.201462016108914,0.00644737606518753,,
1.12450410909206,0.196616467301769,0.00630764961195318,,
1.13990827497003,0.191855945997347,0.00619743476093992,,
1.155312440848,0.186692053479027,0.00606861313806872,,
1.17071660672598,0.18168351985457,0.00594510919756708,,
1.18612077260395,0.176799717933455,0.00582958348609885,,
1.20152493848192,0.171603716263779,0.00567199726064649,,
1.2169291043599,0.166492711222642,0.00557408914343061,,
1.23233327023787,0.161259382664516,0.00541148198889063,,
1.24773743611584,0.156079435570518,0.00530160823360326,,
1.26314160199382,0.150983713250459,0.00516457302564799,,
1.27854576787179,0.145464891112928,0.00499060738342916,,
1.29394993374976,0.14028247408421,0.00488234701092649,,
1.30935409962774,0.13480909874552,0.00472931782437458,,
1.32475826550571,0.129589138709064,0.00463007261191262,,
1.34016243138368,0.124221229582902,0.00450289848139818,,
1.35556659726166,0.118789627015158,0.00431956635054087,,
1.37097076313963,0.113268551062195,0.00420350170782546,,
1.3863749290176,0.107786036965043,0.00405402673873967,,
1.40177909489558,0.102271444590719,0.00388604732651388,,
1.41718326077355,0.0967335730816635,0.00374341473769313,,
1.43258742665152,0.0911539905500298,0.0036023511892127,,
1.4479915925295,0.0856284995887559,0.00349358258407806,,
1.46339575840747,0.079984204767468,0.00330170941623953,,
1.47879992428544,0.0743376870049325,0.00317364843683743,,
1.49420409016342,0.06878971963771,0.00300063104073711,,
1.50960825604139,0.0631382620057352,0.00287106924014058,,
1.52501242191936,0.0574111934971559,0.00271225507007422,,
1.54041658779734,0.0517113560188604,0.00252661713210856,,
1.55582075367531,0.0460169215227642,0.00242401894865907,,
1.57122491955328,0.0402871669601772,0.00227084650190257,,
1.58662908543126,0.03453345403081,0.00211567523419109,,
1.60203325130923,0.0288508752213679,0.00195555466749386,,
1.6174374171872,0.02314112713001,0.00180736904025292,,
1.63284158306518,0.0174084086457595,0.00165634549657057,,
1.64824574894315,0.0116047721608718,0.00149779055925636,,
1.66364991482112,0.00587507934665287,0.00134800860401718,,
1.6790540806991,0.000115407699774495,0.00117052626486203,,
1.69445824657707,-0.00563256263136965,0.00105306995158427,,
1.70986241245504,-0.0114283261993386,0.000884268498658081,,
1.72526657833302,-0.0171624648960528,0.000715835429116574,,
1.74067074421099,-0.0228895025304481,0.000580069097262381,,
1.75607491008896,-0.0286763743334264,0.000414344327785532,,
1.77147907596694,-0.0343979781114385,0.000226363062181711,,
1.78688324184491,-0.0400888929505593,9.36495370758017E-05,,
1.80228740772288,-0.0458085825291638,-6.11124157643417E-05,,
1.81769157360086,-0.051582054936288,-0.000199242541000455,,
1.83309573947883,-0.0572110979106822,-0.0003714822388452,,
1.8484999053568,-0.062941531705317,-0.000507659591049592,,
1.86390407123478,-0.0684909810333713,-0.00069439074081723,,
1.87930823711275,-0.0741797346796124,-0.000827158841239406,,
1.89471240299073,-0.0799033144054003,-0.000969750498572619,,
1.9101165688687,-0.085522107150708,-0.00112377739012315,,
1.92552073474667,-0.0909619531255789,-0.0012809935267124,,
1.94092490062465,-0.0965921693189649,-0.00145122928716646,,
1.95632906650262,-0.102094689887346,-0.00161764136453124,,
1.97173323238059,-0.1076503140522,-0.00177189679021827,,
1.98713739825857,-0.113168642202787,-0.00190323569954787,,
2.00254156413654,-0.11859459479486,-0.002038130531822,,
2.01794573001451,-0.124018386194053,-0.00222230858007988,,
2.03334989589249,-0.129421800631809,-0.00239113732066398,,
2.04875406177046,-0.134884061264261,-0.00253426108733024,,
2.06415822764843,-0.140317917647437,-0.00266904847445071,,
2.07956239352641,-0.145546028468468,-0.0028200447304747,,
2.09496655940438,-0.150705413355925,-0.00295563710350866,,
2.11037072528235,-0.155899006839249,-0.00312580293933928,,
2.12577489116033,-0.161186149100079,-0.00329092226390193,,
2.1411790570383,-0.166274461615979,-0.00340977365869977,,
2.15658322291627,-0.171358328249384,-0.00356647132978516,,
2.17198738879425,-0.176570137501266,-0.00370557187236198,,
2.18739155467222,-0.181615473153045,-0.00385139541170032,,
2.20279572055019,-0.186587945730594,-0.00399713879354247,,
2.21819988642817,-0.191565111184111,-0.00414420733228082,,
2.23360405230614,-0.196255023229736,-0.00427896572626452,,
2.24900821818411,-0.201397118574156,-0.00442996198228895,,
2.26441238406209,-0.206093328953316,-0.00456106383008903,,
2.27981654994006,-0.210821710232199,-0.0047025111112613,,
2.29522071581803,-0.215573123652342,-0.00481867467173736,,
2.31062488169601,-0.220335898772195,-0.00496238512305247,,
2.32602904757398,-0.224981104999395,-0.0050898474794554,,
2.34143321345195,-0.229404017101828,-0.0052531487637979,,
2.35683737932993,-0.233916032099272,-0.00536811166731832,,
2.3722415452079,-0.238320481439676,-0.00550445615642836,,
2.38764571108587,-0.242768586876249,-0.00563497131957957,,
2.40304987696385,-0.247175938389948,-0.00575828424647451,,
2.41845404284182,-0.251507462907755,-0.00588268867969299,,
2.43385820871979,-0.255729816310955,-0.00602036855857069,,
2.44926237459777,-0.259868191933687,-0.00613979299418821,,
2.46466654047574,-0.263930987553999,-0.00622463032318077,,
2.48007070635371,-0.268106659190998,-0.00639300881740645,,
2.49547487223169,-0.272104804270023,-0.00652195835117464,,
2.51087903810966,-0.275940798134705,-0.00662660481445965,,
2.52628320398763,-0.279859287819023,-0.00674740557133191,,
2.54168736986561,-0.283589197987497,-0.00687270026439535,,
2.55709153574358,-0.287386475625449,-0.00696380011091868,,
2.57249570162155,-0.290816226977121,-0.00706090153674266,,
2.58789986749953,-0.29463573402755,-0.00722124381566136,,
2.6033040333775,-0.298153909042184,-0.00731268475791103,,
2.61870819925547,-0.30122335866663,-0.00742405933439283,,
2.63411236513345,-0.304714549644453,-0.00752561035396315,,
2.64951653101142,-0.308158379624027,-0.00766004129605014,,
2.66492069688939,-0.311183493920256,-0.00774001118903112,,
2.68032486276737,-0.314447512652241,-0.0078211646841817,,
2.69572902864534,-0.317585132474949,-0.00790074913899241,,
2.71113319452331,-0.320497432502859,-0.00804434873419657,,
2.72653736040129,-0.323558669594363,-0.00812836743344603,,
2.74194152627926,-0.326477391452544,-0.00822567522218431,,
2.75734569215723,-0.328954180241016,-0.00831569720621284,,
2.77274985803521,-0.331759655592303,-0.00838944210219283,,
2.78815402391318,-0.334427864321546,-0.00849197377197619,,
2.80355818979115,-0.336970909108872,-0.0085810134003137,,
2.81896235566913,-0.339398854938264,-0.00864580964992001,,
2.8343665215471,-0.341911025541595,-0.00873561333268391,,
2.84977068742507,-0.343977619921506,-0.00880286376603934,,
2.86517485330305,-0.346351721174009,-0.00890122212961364,,
2.88057901918102,-0.348463762352761,-0.00896558007121184,,
2.89598318505899,-0.350320227036399,-0.00906103400467861,,
2.91138735093697,-0.352516678234194,-0.00910991984414133,,
2.92679151681494,-0.354588521225384,-0.00918381311676253,,
2.94219568269291,-0.356199350901156,-0.00922553594597719,,
2.95759984857089,-0.357999686318291,-0.00933445463323146,,
2.97300401444886,-0.35963700604393,-0.0093950878095006,,
2.98840818032683,-0.361080374145711,-0.00943166520968752,,
3.00381234620481,-0.362693735504571,-0.00949250474887098,,
3.01921651208278,-0.363862261620425,-0.00955438121906171,,
3.03462067796075,-0.365120755108443,-0.0095936754467072,,
3.05002484383873,-0.366581474501629,-0.0096327769552671,,
3.0654290097167,-0.367673741383015,-0.00968186745216526,,
3.08083317559468,-0.368880489738656,-0.00974020846515522,,
3.09623734147265,-0.369726442380128,-0.00978310466366805,,
3.11164150735062,-0.370450874233394,-0.00983413087881191,,
3.12704567322859,-0.371391178381155,-0.00983439181704249,,
3.14244983910657,-0.372003969185094,-0.00991963675542751,,
3.15785400498454,-0.372474491749183,-0.00995080267191994,,
3.17325817086251,-0.373043070721641,-0.009987504572047,,
3.18866233674049,-0.373562991980122,-0.0100019243938672,,
3.20406650261846,-0.373706495187332,-0.0100289528192024,,
3.21947066849643,-0.374042900296145,-0.0100769927412645,,
3.23487483437441,-0.374304219389482,-0.0100877167908928,,
3.25027900025238,-0.374349172201379,-0.0101137082852207,,
3.26568316613036,-0.373900632056295,-0.0101170510233364,,
3.28108733200833,-0.374298044552682,-0.0101239411570031,,
3.2964914978863,-0.374150342456449,-0.010146248817489,,
3.31189566376428,-0.373328842168701,-0.0101520338010035,,
3.32729982964225,-0.37346839348036,-0.0101680380124716,,
3.34270399552022,-0.372693327965342,-0.0101962125194466,,
3.3581081613982,-0.372696785873949,-0.0101938794246799,,
3.37351232727617,-0.372081031148347,-0.0101933609591764,,
3.38891649315414,-0.371111828764366,-0.0101796898424746,,
3.40432065903212,-0.370370848348478,-0.0101793214590904,,
3.41972482491009,-0.369524154726591,-0.010162839713606,,
3.43512899078806,-0.368460106849376,-0.010160561194156,,
3.45053315666604,-0.367632678718301,-0.0101539302932405,,
3.46593732254401,-0.366031234794464,-0.0101327277829073,,
3.48134148842198,-0.364958048158787,-0.0101185791321892,,
3.49674565429996,-0.363668124751463,-0.0101134899839557,,
3.51214982017793,-0.362330716849154,-0.0100602108315409,,
3.5275539860559,-0.360618558101509,-0.0100943067603207,,
3.54295815193388,-0.3592003215855,-0.0100671964720114,,
3.55836231781185,-0.357404864289437,-0.0100298396680905,,
3.57376648368982,-0.355660905132277,-0.0100073000625103,,
3.5891706495678,-0.354187836065493,-0.00995650408698179,,
3.60457481544577,-0.35186041657919,-0.00992030700852942,,
3.61997898132374,-0.349861745404069,-0.00991357889533218,,
3.63538314720172,-0.347777120500705,-0.00984818402272669,,
3.65078731307969,-0.346211181888463,-0.00980215144901253,,
3.66619147895766,-0.34360194285065,-0.00976771271902832,,
3.68159564483564,-0.341226853624259,-0.00972681022503474,,
3.69699981071361,-0.338996008585493,-0.00969242777584522,,
3.71240397659158,-0.336286984185008,-0.00962194375500669,,
3.72780814246956,-0.333861755283808,-0.00960095954593765,,
3.74321230834753,-0.331165265802025,-0.00951816879130174,,
3.7586164742255,-0.32836096366973,-0.00947180535473358,,
3.77402064010348,-0.325777905939946,-0.00939914002672637,,
3.78942480598145,-0.322796200746414,-0.00935496130828373,,
3.80482897185942,-0.319829068167728,-0.00929270451635844,,
3.8202331377374,-0.316784379638846,-0.00922489468601206,,
3.83563730361537,-0.313550741103913,-0.00913642809849424,,
3.85104146949334,-0.310500865712119,-0.00907529010055042,,
3.86644563537132,-0.307451237313798,-0.00899491259817697,,
3.88184980124929,-0.304204261131378,-0.00892036442176192,,
3.89725396712726,-0.300764383047356,-0.00886326499721468,,
3.91265813300524,-0.297223978620245,-0.00879078897733576,,
3.92806229888321,-0.293672397738528,-0.00871550232867424,,
3.94346646476118,-0.290127115190346,-0.00859632348197925,,
3.95887063063916,-0.286337247356552,-0.00851997090917322,,
3.97427479651713,-0.282722744887853,-0.00844838173818241,,
3.9896789623951,-0.278843156675369,-0.00837540260210723,,
4.00508312827308,-0.274812284961309,-0.00826787558541575,,
4.02048729415105,-0.271211120140095,-0.00818620533024017,,
4.03589146002902,-0.267024086803386,-0.00809761424278221,,
4.051295625907,-0.262965737065569,-0.00802572320207329,,
4.06669979178497,-0.258906152360393,-0.00794323431715505,,
4.08210395766294,-0.2547727166071,-0.00783389267120072,,
4.09750812354092,-0.250467867384265,-0.00769854418161087,,
4.11291228941889,-0.246179566724051,-0.00760122445452227,,
4.12831645529686,-0.241757642595506,-0.00747789788379816,,
4.14372062117484,-0.237451867147151,-0.00738748022872704,,
4.15912478705281,-0.23292565002507,-0.00726982949088528,,
4.17452895293078,-0.228403940533852,-0.00715182401348846,,
4.18993311880876,-0.223881984049162,-0.00706433978166165,,
4.20533728468673,-0.219179043097891,-0.00694300520997793,,
4.2207414505647,-0.214573726316413,-0.006839559403649,,
4.23614561644268,-0.209840652161563,-0.00672210991228539,,
4.25154978232065,-0.205109553954489,-0.00660435172928953,,
4.26695394819862,-0.200368699505272,-0.00648372663671637,,
4.2823581140766,-0.195347075226802,-0.00634049201393916,,
4.29776227995457,-0.190460309384023,-0.00621738544995853,,
4.31316644583254,-0.185435474190417,-0.00609733339820506,,
4.32857061171052,-0.180501285601022,-0.00596174102517111,,
4.34397477758849,-0.175408774196098,-0.00583111500590894,,
4.35937894346646,-0.170246363638609,-0.00572526618018943,,
4.37478310934444,-0.165133104782041,-0.00559143386110206,,
4.39018727522241,-0.160038617429341,-0.00545380855754063,,
4.40559144110038,-0.154844159468865,-0.005313113392444,,
4.42099560697836,-0.149532256112471,-0.00517638858159941,,
4.43639977285633,-0.144382936208996,-0.00505280277812359,,
4.45180393873431,-0.139046889240717,-0.0049305813575522,,
4.46720810461228,-0.133569994245052,-0.00476892927104489,,
4.48261227049025,-0.128234750005557,-0.00467224909844299,,
4.49801643636822,-0.122769772444914,-0.00449951822275274,,
4.5134206022462,-0.117356848758487,-0.00437804721277857,,
4.52882476812417,-0.111809931113521,-0.00422917939408496,,
4.54422893400215,-0.106398365891189,-0.00410381989283382,,
4.55963309988012,-0.100898500502632,-0.00394859404980608,,
4.57503726575809,-0.0953429380861464,-0.0037833962732261,,
4.59044143163607,-0.0898161504091447,-0.00367136338199314,,
4.60584559751404,-0.0842481765706932,-0.00352447562398961,,
4.62124976339201,-0.0786162314230035,-0.00338529662939546,,
4.63665392926999,-0.072962550849781,-0.00321882486027869,,
4.65205809514796,-0.0672649054385493,-0.00306451485927584,,
4.66746226102593,-0.061682358985252,-0.00293148752610195,,
4.68286642690391,-0.0559310542422364,-0.00278720403396715,,
4.69827059278188,-0.0502072892713446,-0.00262813063114908,,
4.71367475865985,-0.0445508917699305,-0.00247733903256053,,
4.72907892453783,-0.0387744554411427,-0.00231716047959019,,
4.7444830904158,-0.0330355621200932,-0.0021553583109637,,
4.75988725629377,-0.0273477964477399,-0.00198747099458352,,
4.77529142217175,-0.0216155719504334,-0.00185208157350658,,
4.79069558804972,-0.0158761846424399,-0.00169818088737506,,
4.80609975392769,-0.0101454421059651,-0.00155226013575493,,
4.82150391980567,-0.00438678930715861,-0.00137929731497088,,
4.83690808568364,0.00140076172786753,-0.00123319919357323,,
4.85231225156161,0.00716633034388901,-0.00109496162318345,,
4.86771641743959,0.012948447522532,-0.000910536280524177,,
4.88312058331756,0.0186821539806703,-0.000762828187299114,,
4.89852474919553,0.0244420417468366,-0.000616157025081776,,
4.91392891507351,0.0301759951984469,-0.000454354856455286,,
4.92933308095148,0.0358733936162067,-0.000324615686080776,,
4.94473724682945,0.0416026541918497,-0.000156962020273266,,
4.96014141270743,0.0472795521514366,9.53362554678705E-07,,
4.9755455785854,0.0529875712884908,0.000161882326122242,,
4.99094974446337,0.0586451728830807,0.00030036719091342,,
5.00635391034135,0.0643680425026367,0.000480776131398297,,
5.02175807621932,0.0700044644070057,0.00062906408735719,,
5.03716224209729,0.0757168676781873,0.000785899902211895,,
5.05256640797527,0.081302902914276,0.00096085131107948,,
5.06797057385324,0.0868931061652041,0.00108000287011611,,
5.08337473973121,0.0924195851003658,0.00124999133616877,,
5.09877890560919,0.0979838540367378,0.00141033020413017,,
5.11418307148716,0.103491314474558,0.00156535480067976,,
5.12958723736513,0.109061511254258,0.00171195774375166,,
5.14499140324311,0.114606761693288,0.00186049811054811,,
5.16039556912108,0.119960623065732,0.00203062301489121,,
5.17579973499905,0.125496179010989,0.00218436168055325,,
5.19120390087703,0.130723579725788,0.00233774219570249,,
5.206608066755,0.136122857022889,0.00245141234642121,,
5.22201223263297,0.14154732765413,0.00263676376397681,,
5.23741639851095,0.146812734489427,0.00276305104560315,,
5.25282056438892,0.151982801844547,0.00292681792561211,,
