Time domain (s),Current (AC) (A),Potential (AC) (V),Frequency (Hz),Column 5
0,0.0771406844441701,0.000496509779990273,10000,0.3
3.125E-06,0.0549189740831684,9.53154604736994E-05,,
6.25E-06,0.0304075982736807,-0.000321689487704724,,
9.375E-06,0.00550440616996046,-0.00067628945889453,,
1.25E-05,-0.0194740368804581,-0.00105104239294063,,
1.5625E-05,-0.0443869053654322,-0.0013794964901197,,
1.875E-05,-0.0680462085778144,-0.00167344464816166,,
2.1875E-05,-0.0890876869701685,-0.00188551010238802,,
2.5E-05,-0.106583730454371,-0.00203105791755087,,
2.8125E-05,-0.119956930184579,-0.00210970683793299,,
3.125E-05,-0.12864398411222,-0.00208011894443416,,
3.4375E-05,-0.132320920821192,-0.00197955777276571,,
3.75E-05,-0.130786277612954,-0.00182042408619854,,
4.0625E-05,-0.124075762318099,-0.00158254501695998,,
4.375E-05,-0.112574093748485,-0.00123397776675871,,
4.6875E-05,-0.0967397428154522,-0.000871176969778009,,
5E-05,-0.0772042091156361,-0.000511083241505172,,
5.3125E-05,-0.054604943550769,-0.000106661263144847,,
5.625E-05,-0.0299951507884377,0.000300241174098659,,
5.9375E-05,-0.00493169224258401,0.00068169594057288,,
6.25E-05,0.0197911753166315,0.00104074236398422,,
6.5625E-05,0.0446970785704524,0.00140402547241436,,
6.875E-05,0.0680324764923449,0.00166904259921719,,
7.1875E-05,0.0889902178177666,0.0018943785084713,,
7.5E-05,0.106501734695227,0.00203570341894244,,
7.8125E-05,0.119610409934712,0.00209847127787866,,
8.125E-05,0.128297485904224,0.00207921250513854,,
8.4375E-05,0.131881824714227,0.00197190050432328,,
8.75E-05,0.13034603532871,0.00180101219871309,,
9.0625E-05,0.123823030228222,0.00155197106449823,,
9.375E-05,0.112372476756847,0.00123638319941755,,
9.6875E-05,0.096664315533788,0.000898305840458136,,
0.0001,0.0772089701597154,0.0004985875470922,,
0.000103125,0.0548150025788989,0.000109091194163025,,
0.00010625,0.0305129143320652,-0.000330588516736618,,
0.000109375,0.00542838375778629,-0.00068553605840016,,
0.0001125,-0.0193760828069,-0.00102077160767511,,
0.000115625,-0.0444912956652457,-0.00138921162074768,,
0.00011875,-0.0680510137056352,-0.0016813897723269,,
0.000121875,-0.0890509652135196,-0.00189632612803914,,
0.000125,-0.106634867594482,-0.00206300530928427,,
0.000128125,-0.119972712164027,-0.00210996100841099,,
0.00013125,-0.128649406412421,-0.00207525448895662,,
0.000134375,-0.132192593049757,-0.00198458299872639,,
0.0001375,-0.130709704154011,-0.00180528103782862,,
0.000140625,-0.124271361879025,-0.00154644362217038,,
0.00014375,-0.112540325602515,-0.00123913620254834,,
0.000146875,-0.0966027746306885,-0.000895340007829315,,
0.00015,-0.0771346890553295,-0.000494627999762631,,
0.000153125,-0.0547011783584096,-0.000106500492661699,,
0.00015625,-0.0300985712459388,0.000328663864381351,,
0.000159375,-0.00504547237933178,0.000689279713937729,,
0.0001625,0.0198806873536971,0.0010350097478975,,
0.000165625,0.0448656768397247,0.00139214376813213,,
0.00016875,0.068096904880511,0.0016667213796695,,
0.000171875,0.0888605675340877,0.00188155361735465,,
0.000175,0.106402965072452,0.00201409892829485,,
0.000178125,0.119655728020949,0.00210206334981766,,
0.00018125,0.128298433704665,0.00208118156077086,,
0.000184375,0.131936202009337,0.00197042754046795,,
0.0001875,0.130354918202618,0.00182815025627736,,
0.000190625,0.123816858504415,0.00155966354933224,,
0.00019375,0.112387332977724,0.00126578429292623,,
0.000196875,0.096642890835431,0.000917243072231511,,
0.0002,0.0771981696430539,0.000539459997364045,,
0.000203125,0.0548794530089358,0.00010779124997029,,
0.00020625,0.0304270832874128,-0.000308624206436736,,
0.000209375,0.00550015208890809,-0.000678272294854398,,
0.0002125,-0.0194223707354491,-0.00104893859633215,,
0.000215625,-0.0444491956921368,-0.00139378209591268,,
0.00021875,-0.0681143179583938,-0.0016618109897677,,
0.000221875,-0.0891933556984848,-0.00188973147593297,,
0.000225,-0.106635837436795,-0.00205832765379688,,
0.000228125,-0.119947011342747,-0.00210343525794077,,
0.00023125,-0.128519756128742,-0.00207561583975702,,
0.000234375,-0.132368751680693,-0.00197485408777132,,
0.0002375,-0.130625019286637,-0.00181921754200109,,
0.000240625,-0.124044154275462,-0.00155016890393833,,
0.00024375,-0.112511362584365,-0.00123072101611355,,
0.000246875,-0.0967771699119648,-0.000881602552826877,,
0.00025,-0.0772487336945261,-0.000510225798928232,,
0.000253125,-0.0546496885483665,-0.000109944043297006,,
0.00025625,-0.0300117703589739,0.000306659744246929,,
0.000259375,-0.00495792206876182,0.000674914488477008,,
0.0002625,0.019798691594553,0.00104220614095496,,
0.000265625,0.0447084521757531,0.00138123281133895,,
0.00026875,0.0680299857609515,0.00167468334645671,,
0.000271875,0.0889921354605208,0.00188351042380708,,
0.000275,0.106497877367848,0.00205737221778257,,
0.000278125,0.119710127357929,0.00207377386936436,,
0.00028125,0.128176916871289,0.00208118156077086,,
0.000284375,0.131911140402308,0.00198705580187308,,
0.0002875,0.130525632491481,0.00179286343193619,,
0.000290625,0.123867995644526,0.00154127753064381,,
0.00029375,0.112567701605971,0.00122851616377284,,
0.000296875,0.0967144607897161,0.000898827961741677,,
0.0003,0.0772709078164882,0.0004985875470922,,
0.000303125,0.0548036289735983,0.000107243099179755,,
0.00030625,0.030536455050013,-0.000323096612219853,,
0.000309375,0.00543204270832874,-0.000673729380343158,,
0.0003125,-0.0193652822902385,-0.00102627914508524,,
0.000315625,-0.0444939847734757,-0.00139347280412627,,
0.00031875,-0.0680757006008614,-0.00167679326765446,,
0.000321875,-0.088984222428926,-0.00189337713803273,,
0.000325,-0.106606345413748,-0.00205462840153592,,
0.000328125,-0.119954417411315,-0.0021015197924692,,
0.00033125,-0.128663865879625,-0.0020810299771723,,
0.000334375,-0.132274985562575,-0.0019881612903383,,
0.0003375,-0.130748850516441,-0.00180322930023369,,
0.000340625,-0.124060509343549,-0.00154332161250137,,
0.00034375,-0.112627919996826,-0.00123994158611174,,
0.000346875,-0.0966924850445907,-0.000881013061055036,,
0.00035,-0.0771465034980449,-0.000516229428114912,,
0.000353125,-0.0546503057207471,-9.90101192921422E-05,,
0.00035625,-0.0300702254001702,0.00031001142603504,,
0.000359375,-0.00502501752328724,0.000668831239622136,,
0.0003625,0.0199167698960946,0.00103872124933835,,
0.000365625,0.0448014468283952,0.00139431187293404,,
0.00036875,0.0681131276973739,0.00168224415260942,,
0.000371875,0.088968594742573,0.00186418428057911,,
0.000375,0.106429767987269,0.00203986814003088,,
0.000378125,0.119720729497754,0.00209367266174221,,
0.00038125,0.128255606349822,0.00208004238706172,,
0.000384375,0.131843031021729,0.00196958234707045,,
0.0003875,0.130397326761917,0.00182116822386424,,
0.000390625,0.123775000991884,0.00157025296515911,,
0.00039375,0.112503471594641,0.00124950207084673,,
0.000396875,0.0967277740796417,0.000883029582259276,,
0.0004,0.0771808226907834,0.000528349991401278,,
0.000403125,0.054848770724869,0.000100193696278339,,
0.00040625,0.03040488712358,-0.000295411935012702,,
0.000409375,0.00554472075153963,-0.000672871937766217,,
0.0004125,-0.0194159785929351,-0.00103468055119338,,
0.000415625,-0.0443949726901222,-0.00138410677511924,,
0.00041875,-0.0680106770821853,-0.00166886039266911,,
0.000421875,-0.0890262783182934,-0.00191590337945069,,
0.000425,-0.106574649203627,-0.00202864482915555,,
0.000428125,-0.11989631504005,-0.00211682208017505,,
0.00043125,-0.128634902861476,-0.00207881746909377,,
0.000434375,-0.132175841227997,-0.00196901276021544,,
0.0004375,-0.130686560189736,-0.0017939964810556,,
0.000440625,-0.124021583399826,-0.00156431976875471,,
0.00044375,-0.112662437566401,-0.00124438956948048,,
0.000446875,-0.0967463112929321,-0.000897831184745179,,
0.00045,-0.0772867338796778,-0.000486560383800683,,
0.000453125,-0.0545960827187325,-0.000123747337640534,,
0.00045625,-0.029988405975992,0.000330473680677734,,
0.000459375,-0.00495113317257462,0.000678532589922565,,
0.0004625,0.0197934897130589,0.00104465903918438,,
0.000465625,0.0447175113846262,0.00137888709343148,,
0.00046875,0.0680768467781398,0.00165871041616361,,
0.000471875,0.0889905925295692,0.0018973642460165,,
0.000475,0.106487253186152,0.00205022788373865,,
0.000478125,0.119727871063873,0.0020874439538785,,
0.00048125,0.12827048461257,0.0020938319010777,,
0.000484375,0.13200411301308,0.00198528885770521,,
0.0004875,0.130439206316319,0.00182229514839394,,
0.000490625,0.123900198817674,0.00155016431049626,,
0.00049375,0.112456390158746,0.00126530045032913,,
0.000496875,0.096593318668142,0.000899203092869172,,
0.0005,0.0772410190397679,0.00050717728433769,,
0.000503125,0.0546882618221574,0.000117642652721628,,
0.00050625,0.0304705057727659,-0.000295678354670592,,
0.000509375,0.00546332012290547,-0.000675110475351293,,
0.0005125,-0.0193411243999101,-0.00103134264973237,,
0.000515625,-0.044460437046213,-0.00136998193980942,,
0.00051875,-0.0679814054778457,-0.00166695717637788,,
0.000521875,-0.0889925542560648,-0.00188636907611262,,
0.000525,-0.106556134032208,-0.00205319524751424,,
0.000528125,-0.120086712719482,-0.0020922180716556,,
0.00053125,-0.128686789425192,-0.00207710258393989,,
0.000534375,-0.132319730560172,-0.00200312978789796,,
0.0005375,-0.130705075361156,-0.00181362885377556,,
0.000540625,-0.124181695548865,-0.00156365065731512,,
0.00054375,-0.112632725124647,-0.00125162577237203,,
0.000546875,-0.0967276197865465,-0.000883198008479358,,
0.00055,-0.077125828223293,-0.000492750812977949,,
0.000553125,-0.0547023686194295,-7.24875830062643E-05,,
0.00055625,-0.0300800560745192,0.000309005462154399,,
0.000559375,-0.00503312893171869,0.000686641546865818,,
0.0005625,0.0198949704859351,0.00102167651582397,,
0.000565625,0.0448273019427705,0.00140019454147167,,
0.00056875,0.0681929633531857,0.00168139895921193,,
0.000571875,0.0890374755886282,0.00190901015359035,,
0.000575,0.106499618675636,0.00205585638179828,,
0.000578125,0.119719781697312,0.00211329278528227,,
0.00058125,0.128235349870614,0.00210409977593828,,
0.000584375,0.131969970155307,0.0019818437759227,,
0.0005875,0.130395783830965,0.00177273802973454,,
0.000590625,0.12381820305853,0.00153172623279429,,
0.00059375,0.112359736555561,0.0012361688387732,,
0.000596875,0.0967240930872285,0.000873044969678549,,
0.0006,0.0771235138268655,0.000508382297387922,,
0.000603125,0.0548688288272402,9.63872636949858E-05,,
0.00060625,0.0304345995653343,-0.000307538622888348,,
0.000609375,0.00555474980272526,-0.000646324903120998,,
0.0006125,-0.0194547722854334,-0.0010289448728118,,
0.000615625,-0.0444133115265759,-0.00137453863464732,,
0.00061875,-0.0681131276973739,-0.00167261323509127,,
0.000621875,-0.0890571369373261,-0.00188914351530878,,
0.000625,-0.106680758769358,-0.00204259664480233,,
0.000628125,-0.120019969934888,-0.0021045866808298,,
0.00063125,-0.128555419875596,-0.00207388717427559,,
0.000634375,-0.132233150091915,-0.00200036912902934,,
0.0006375,-0.130758460772083,-0.00177752745898596,,
0.000640625,-0.124105915597269,-0.00155295559231394,,
0.00064375,-0.112560427788627,-0.0012425675040042,,
0.000646875,-0.0966826543702417,-0.000908726830064044,,
0.00065,-0.0772365665818789,-0.000502507284586784,,
0.000653125,-0.0546172869983821,-0.000103190151855337,,
0.00065625,-0.0299660114353225,0.00030783872779061,,
0.000659375,-0.00496656248209098,0.000676831485095786,,
0.0006625,0.0198276546127023,0.00104641373417236,,
0.000665625,0.0448012484515586,0.00136193422876474,,
0.00066875,0.0681389607698785,0.00167958608062024,,
0.000671875,0.0889711075158371,0.00190178619987824,,
0.000675,0.106449451377837,0.00201535753150628,,
0.000678125,0.119583562936154,0.00208328841967464,,
0.00068125,0.128353428172156,0.00208476138353042,,
0.000684375,0.131886828218885,0.00199445430639544,,
0.0006875,0.130374976304989,0.00180118674952379,,
0.000690625,0.123823228605058,0.00153649422598168,,
0.00069375,0.112412791338426,0.00126062432598895,,
0.000696875,0.0966208930484348,0.000874574585990384,,
0.0007,0.0772259424001834,0.000511251667726143,,
0.000703125,0.0547660035002491,0.000108997794167731,,
0.00070625,0.0304789698511292,-0.000292637495816539,,
0.000709375,0.00547315079725447,-0.000657514528751957,,
0.0007125,-0.0194427815077521,-0.00103900910505983,,
0.000715625,-0.0445676487054809,-0.00136428607126149,,
0.00071875,-0.0680377004157097,-0.00168617460813625,,
0.000721875,-0.0890382690959747,-0.00189865806561906,,
0.000725,-0.106498472498358,-0.00205271293606435,,
0.000728125,-0.120044480495149,-0.00209909445489398,,
0.00073125,-0.128566044057291,-0.00209251358311535,,
0.000734375,-0.132309723550857,-0.00196984264213818,,
0.0007375,-0.130744001304879,-0.00182761894810879,,
0.000740625,-0.124128839142836,-0.00155883979199878,,
0.00074375,-0.112681349491494,-0.00126124750300471,,
0.000746875,-0.0966241993290455,-0.00089595552910815,,
0.00075,-0.077149016271309,-0.000482259390588435,,
0.000753125,-0.0546682037197861,-9.70119718579632E-05,,
0.00075625,-0.0300902835025414,0.000305347550874746,,
0.000759375,-0.00503255584307951,0.000673923836071122,,
0.0007625,0.0199003927861365,0.0010186877159839,,
0.000765625,0.0448411883213352,0.00138782593229747,,
0.00076875,0.0681275871645778,0.00169253346353404,,
0.000771875,0.0889969626302124,0.00188416575491956,,
0.000775,0.106439620703488,0.00204769536584148,,
0.000778125,0.119660533148769,0.00210943429368537,,
0.00078125,0.128440625812794,0.00209565702884884,,
0.000784375,0.131959963145992,0.00202157705248496,,
0.0007875,0.130493208899626,0.00180389381823121,,
0.000790625,0.123792369986025,0.00155644813966838,,
0.00079375,0.112454847227794,0.00124707673327151,,
0.000796875,0.0967304631878717,0.000892919263697056,,
0.0008,0.0772043413668605,0.000517469657557168,,
0.000803125,0.0548516802518063,8.08170251840323E-05,,
0.00080625,0.0304303675261527,-0.000299177026614306,,
0.000809375,0.00552309767634599,-0.000674452081943944,,
0.0008125,-0.0194721412795747,-0.00104533427521325,,
0.000815625,-0.044408682733721,-0.001399369252991,,
0.00081875,-0.0681464990896707,-0.00169449639457619,,
0.000821875,-0.0890907728320718,-0.00188640888594671,,
0.000825,-0.10657830815417,-0.00203117887820037,,
0.000828125,-0.119881855572846,-0.00207750527572159,,
0.00083125,-0.128745420801354,-0.00207435570539838,,
0.000834375,-0.132263038868635,-0.00199455383097957,,
0.0008375,-0.130645474142681,-0.00179817804476601,,
0.000840625,-0.124108207951825,-0.00154911088104415,,
0.00084375,-0.112569288620664,-0.00125293949689187,,
0.000846875,-0.0967661930603374,-0.000871512291071852,,
0.00085,-0.0771787287130633,-0.000508645654750506,,
0.000853125,-0.054542609140323,-8.3785920106827E-05,,
0.00085625,-0.0299754894397397,0.000328048343102516,,
0.000859375,-0.00495113317257462,0.000657909564796721,,
0.0008625,0.0197595452321229,0.00105315384528737,,
0.000865625,0.044753990680697,0.0013853209750545,,
0.00086875,0.0680693084583475,0.00167184459906755,,
0.000871875,0.0889879034213392,0.00187420717184583,,
0.000875,0.106489369205743,0.00201935076407933,,
0.000878125,0.1197215230051,0.00210782658885345,,
0.00088125,0.128286288633889,0.00209418100269865,,
0.000884375,0.132029196661979,0.00197183313383542,,
0.0008875,0.130379208344171,0.00182186642710569,,
0.000890625,0.123770967329539,0.00156094971319787,,
0.00089375,0.112496506363488,0.00124958169051448,,
0.000896875,0.0966182039402048,0.000897208007729855,,
0.0009,0.0772683950432241,0.000503853163203782,,
0.000903125,0.0547428374941038,0.000118460285464916,,
0.00090625,0.0305291371489281,-0.000311130694827355,,
0.000909375,0.0054401541167602,-0.000652302502801128,,
0.0009125,-0.0193279874449504,-0.00101597299153866,,
0.000915625,-0.0445294721853633,-0.00140384632816115,,
0.00091875,-0.0679765562662834,-0.00169394671263845,,
0.000921875,-0.0890095264965328,-0.00190156571464373,,
0.000925,-0.106599380182595,-0.00204546295284569,,
0.000928125,-0.120024422392777,-0.00210348884810152,,
0.00093125,-0.128580106770822,-0.00207203754814511,,
0.000934375,-0.132227683707972,-0.00197459991729332,,
0.0009375,-0.130693084583475,-0.00179694547106157,,
0.000940625,-0.124112087321075,-0.00157431816166254,,
0.00094375,-0.112544601725438,-0.00124409405802073,,
0.000946875,-0.0967085315264877,-0.000882420185570165,,
0.00095,-0.0771623295612345,-0.000530126122453289,,
0.000953125,-0.0547064243236452,-8.10926317260652E-05,,
0.00095625,-0.0300605710607871,0.000292135279450711,,
0.000959375,-0.00506782283625976,0.000669406951066875,,
0.0009625,0.0198523415079285,0.00105244339286603,,
0.000965625,0.044863384485168,0.00139712612196385,,
0.00096875,0.0680615938035893,0.001650883190353,,
0.000971875,0.0889599102455024,0.00187779924378484,,
0.000975,0.106452537239741,0.00205389957534585,,
0.000978125,0.119776693807557,0.00210103135643047,,
0.00098125,0.128361715915553,0.00207938705594923,,
0.000984375,0.131922712384446,0.00197704515978581,,
0.0009875,0.130364748876967,0.00181082379163078,,
0.000990625,0.123908684937908,0.0015624931098368,,
0.00099375,0.112431306509846,0.00123734782231644,,
0.000996875,0.0966936312218691,0.000873487471294343,,
0.001,0.0771821672448984,0.000505877340144956,,
0.001003125,0.0548412544469474,0.000109936387560516,,
0.00100625,0.0304340264766951,-0.000295666105490699,,
0.001009375,0.00553277405759982,-0.000670138839551804,,
0.0010125,-0.0194530089357744,-0.00103502965281388,,
0.001015625,-0.0444360587371771,-0.00137869263770396,,
0.00101875,-0.0681046195352692,-0.00165833987847819,,
0.001021875,-0.088935069057181,-0.00185998281195099,,
0.001025,-0.106577558730565,-0.00202321691141316,,
0.001028125,-0.120003791201767,-0.00210673181842003,,
0.00103125,-0.128630891241001,-0.00209448416989488,,
0.001034375,-0.132292927645355,-0.0019916446508077,,
0.0010375,-0.130594513337536,-0.00178646629785195,,
0.001040625,-0.124024272508056,-0.00155490014958692,,
0.00104375,-0.112521986766061,-0.00122897857030502,,
0.001046875,-0.0968242072641189,-0.000880060687335593,,
0.00105,-0.077246220921262,-0.000494842360406977,,
0.001053125,-0.054636198923475,-9.48408047611871E-05,,
0.00105625,-0.0300349143232484,0.000323840749885118,,
0.001059375,-0.00497969943705062,0.000675598911390907,,
0.0010625,0.019774577787966,0.00103625610192903,,
0.001065625,0.044751477907433,0.00140319559049162,,
0.00106875,0.0680654731728391,0.00167027670406927,,
0.001071875,0.0889919370836842,0.00189642718377181,,
0.001075,0.10646507906419,0.0020302739700524,,
0.001078125,0.119744071838865,0.00209411363221035,,
0.00108125,0.128223976265314,0.00209340317978945,,
0.001084375,0.132002966835801,0.00199139813606708,,
0.0010875,0.130402749062118,0.00183139322659587,,
0.001090625,0.123879942338466,0.00154326496004575,,
0.00109375,0.112356650693658,0.00126590372242807,,
0.001096875,0.0965964045300453,0.000888403909840463,,
0.0011,0.0772597105461535,0.000485064452733663,,
0.001103125,0.0547733434432047,9.24215917761373E-05,,
0.00110625,0.0305327960994706,-0.000318849209168359,,
0.001109375,0.00542878051145957,-0.00066066409907517,,
0.0011125,-0.0193594632363638,-0.0010373064690854,,
0.001115625,-0.0444432003032961,-0.0013919860599434,,
0.00111875,-0.0679557487403071,-0.00167242490395392,,
0.001121875,-0.0890251321410151,-0.00190417785220909,,
0.001125,-0.106622127393196,-0.00204628058558898,,
0.001128125,-0.120022085954479,-0.00208982029473459,,
0.00113125,-0.12860902570523,-0.00207455628571518,,
0.001134375,-0.132248755736397,-0.00198150079889148,,
0.0011375,-0.130749599940046,-0.00180033543153613,,
0.001140625,-0.124135010866642,-0.00156821960133291,,
0.00114375,-0.112531068016805,-0.00125082191995585,,
0.001146875,-0.0966649327061686,-0.000879445166057202,,
0.00115,-0.0770921041610644,-0.000479229249767066,,
0.001153125,-0.0546975194078672,-0.000101796807667753,,
0.00115625,-0.0300833182713883,0.000304408957482405,,
0.001159375,-0.00504816148756177,0.000704784113108037,,
0.0011625,0.0199075123103848,0.00103945620011858,,
0.001165625,0.0448548763230633,0.00139961883002737,,
0.00116875,0.0681761894895544,0.00166481969452548,,
0.001171875,0.0890145079593195,0.00189457755764133,,
0.001175,0.106445990804132,0.00204096750390637,,
0.001178125,0.119757186751954,0.0020956049698353,,
