Time domain (s),Current (AC) (A),Potential (AC) (V),Frequency (Hz),Column 5
0,0.350722077043386,0.00668239374566193,316.23,0.5
9.88204787654555E-05,0.286477204622666,0.00571776975925431,,
0.000197640957530911,0.211554090486768,0.00454054848396446,,
0.000296461436296367,0.128286958419178,0.00318098967360969,,
0.000395281915061822,0.0401228940305717,0.00169767747747329,,
0.000494102393827278,-0.0493988929796695,0.000120433455028213,,
0.000592922872592733,-0.138295412993105,-0.00141572984773397,,
0.000691743351358189,-0.220997394437279,-0.00289620595270446,,
0.000790563830123644,-0.295014899361079,-0.0042922444421376,,
0.0008893843088891,-0.357925762517356,-0.00550472818999603,,
0.000988204787654555,-0.406693469022416,-0.00652758333579984,,
0.00108702526642001,-0.439735639665861,-0.00726679132727703,,
0.00118584574518547,-0.456322087365254,-0.00772824800845529,,
0.00128466622395092,-0.45569625323285,-0.00793107112906899,,
0.00138348670271638,-0.436771151003114,-0.00780490919590715,,
0.00148230718148183,-0.401475254385128,-0.0073853731069029,,
0.00158112766024729,-0.350707827761486,-0.00667700760685896,,
0.00167994813901274,-0.286252867047678,-0.00570588373769221,,
0.0017787686177782,-0.211110448665225,-0.00452250339746652,,
0.00187758909654365,-0.127624544040702,-0.00315168542690225,,
0.00197640957530911,-0.0394196458890396,-0.00166793351491457,,
0.00207523005407457,0.0498107043157743,-0.000167352201429605,,
0.00217405053284002,0.138444888669155,0.00140924822307342,,
0.00227287101160548,0.221189440729155,0.00292703170754827,,
0.00237169149037093,0.295236649379901,0.00427636598322634,,
0.00247051196913639,0.357784049509803,0.00553169540020582,,
0.00256933244790184,0.406375376843882,0.00654463031296038,,
0.0026681529266673,0.43938238508025,0.00729932269274158,,
0.00276697340543275,0.455615507302084,0.00778010709177623,,
0.00286579388419821,0.45470468753168,0.00795584736756227,,
0.00296461436296367,0.436073148865864,0.0078177918052984,,
0.00306343484172912,0.40104430222259,0.00737694395182764,,
0.00316225532049458,0.350710734331426,0.00665797354007314,,
0.00326107579926003,0.28667541851417,0.00570199476289623,,
0.00335989627802549,0.211611087614368,0.00453771239279854,,
0.00345871675679094,0.128255765961287,0.00314550810386915,,
0.0035575372355564,0.0401314010645419,0.00169349028708154,,
0.00365635771432185,-0.0493457949093058,0.000132873305551229,,
0.00375517819308731,-0.138141152110446,-0.00138913388550987,,
0.00385399867185277,-0.221062047895452,-0.00292770725716052,,
0.00395281915061822,-0.295027305452286,-0.00427751776488527,,
0.00405163962938368,-0.357763561736325,-0.00552056404667978,,
0.00415046010814913,-0.406674753547681,-0.00651379390756013,,
0.00424928058691459,-0.439998152555789,-0.00725459643956361,,
0.00434810106568004,-0.456422753933901,-0.00773528346207808,,
0.0044469215444455,-0.455153788033354,-0.00791642813476434,,
0.00454574202321095,-0.436736910191384,-0.00781026490454728,,
0.00464456250197641,-0.401236419406416,-0.00736776165022413,,
0.00474338298074187,-0.350798853024967,-0.00667542523839693,,
0.00484220345950732,-0.286208843146882,-0.00571417291401932,,
0.00494102393827278,-0.211220827430988,-0.00454364627452986,,
0.00503984441703823,-0.127663605505015,-0.0031520262447251,,
0.00513866489580369,-0.039428365598859,-0.0016713310425831,,
0.00523748537456914,0.0498918401522646,-0.000153196089728969,,
0.0053363058533346,0.138340004029498,0.00139229253640139,,
0.00543512633210005,0.221188306457959,0.00291376719961489,,
0.00553394681086551,0.295045241115573,0.00430185428752727,,
0.00563276728963096,0.357677995152976,0.00552481818342931,,
0.00573158776839642,0.406386719555842,0.00652580012826443,,
0.00583040824716188,0.439375863020873,0.00729696131211366,,
0.00592922872592733,0.45541984552077,0.00776209547845763,,
0.00602804920469279,0.454646839700683,0.00794457907830415,,
0.00612686968345824,0.436009346111087,0.00781784049355894,,
0.0062256901622237,0.401161699291378,0.00739731998879023,,
0.00632451064098915,0.350642110924067,0.0066819555513189,,
0.00642333111975461,0.286732132073971,0.00569215973430248,,
0.00652215159852006,0.211566851037723,0.00452880244115184,,
0.00662097207728552,0.128365506699502,0.00317728936582196,,
0.00671979255605098,0.0401875474887448,0.00168982649548921,,
0.00681861303481643,-0.0493645812759899,0.000148794366690463,,
0.00691743351358189,-0.138224166583605,-0.00142771933184882,,
0.00701625399234734,-0.22106545070904,-0.00292159688048477,,
0.0071150744711128,-0.295079198359504,-0.00430771513686823,,
0.00721389494987825,-0.357715638778293,-0.00551775077813543,,
0.00731271542864371,-0.406546013766933,-0.00651615528818761,,
0.00741153590740916,-0.440047564244766,-0.00727385112502965,,
0.00751035638617462,-0.456305924000711,-0.00771751376855301,,
0.00760917686494007,-0.455625361283099,-0.00791461449706565,,
0.00770799734370553,-0.436782281039225,-0.00780453034038153,,
0.00780681782247099,-0.401396422537005,-0.00737866782054564,,
0.00790563830123644,-0.350776238492996,-0.00666238895668458,,
0.0080044587800019,-0.286464337733786,-0.00570649234094711,,
0.00810327925876735,-0.21106061162455,-0.00449952406008292,,
0.00820209973753281,-0.127644606462482,-0.00312607540195042,,
0.00830092021629826,-0.0394068144461347,-0.00166547627927427,,
0.00839974069506372,0.0498027644174022,-0.000144578267644135,,
0.00849856117382918,0.138393314775711,0.00141628671971228,,
0.00859738165259463,0.221146019409932,0.00290144906974277,,
0.00869620213136009,0.295261603346213,0.00431103202460603,,
0.00879502261012554,0.357514660100749,0.0055245990862578,,
0.008893843088891,0.406217146012037,0.00653177661222415,,
0.00899266356765645,0.439489290140475,0.00730109981424487,,
0.00909148404642191,0.455922894796205,0.00779736708007572,,
0.00919030452518736,0.454651376785467,0.00794001455389504,,
0.00928912500395282,0.436460502479304,0.00781830607504874,,
0.00938794548271828,0.400997513535754,0.00738486796620208,,
0.00948676596148373,0.350788715476152,0.00667449407541776,,
0.00958558644024919,0.286461324825921,0.00570496474677817,,
0.00968440691901464,0.211600595605805,0.00452838859093863,,
0.0097832273977801,0.128261118303493,0.00314393790747225,,
0.00988204787654555,0.0401648975107993,0.00171991584039466,,
0.00998086835531101,-0.0493364371719386,0.000133518425001089,,
0.0100796888340765,-0.138187869905332,-0.00141316154199966,,
0.0101785093128419,-0.220834910088449,-0.00291139668993834,,
0.0102773297916074,-0.295104152325816,-0.00428965179227303,,
0.0103761502703728,-0.357761576761732,-0.00551989458309965,,
0.0104749707491383,-0.406588619828734,-0.00651890465339022,,
0.0105737912279037,-0.44001523751568,-0.00726147213483186,,
0.0106726117066692,-0.456477695194958,-0.00773424883654528,,
0.0107714321854347,-0.454996407904906,-0.00791958069962284,,
0.0108702526642001,-0.43717984309343,-0.00778425167993957,,
0.0109690731429656,-0.401319575663474,-0.00736395179385063,,
0.011067893621731,-0.350449284820743,-0.00667165189821883,,
0.0111667141004965,-0.286168576519424,-0.00570323022750241,,
0.0112655345792619,-0.210908902852082,-0.00451602785883809,,
0.0113643550580274,-0.127581158167454,-0.00315026129528695,,
0.0114631755367928,-0.039481959912871,-0.00168184770682167,,
0.0115619960155583,0.0497789447222858,-0.000173728842029597,,
0.0116608164943238,0.138470161649242,0.00139434048635323,,
0.0117596369730892,0.221136413550741,0.00291275387519629,,
0.0118584574518547,0.295380701821795,0.00428522420359645,,
0.0119572779306201,0.357658712542643,0.005535700009621,,
0.0120560984093856,0.406308454843317,0.00651506436685434,,
0.012154918888151,0.439380116537858,0.00727799723470168,,
0.0122537393669165,0.455890568067118,0.00777708841963376,,
0.0123525598456819,0.4549840018137,0.00794950572164987,,
0.0124513803244474,0.436394998317734,0.00781371720650936,,
0.0125502008032129,0.401262649427824,0.00737100398406332,,
0.0126490212819783,0.350755821611468,0.00668078703307007,,
0.0127478417607438,0.286652484968425,0.00570850681772006,,
0.0128466622395092,0.211463915926685,0.00453793148997006,,
0.0129454827182747,0.128191963206511,0.00317097510705588,,
0.0130443031970401,0.0401203419203807,0.00168046617743434,,
0.0131431236758056,-0.0494436257999625,0.000134893868356301,,
0.013241944154571,-0.138347589468122,-0.00143805341511127,,
0.0133407646333365,-0.221097210302529,-0.00290853777614997,,
0.013439585112102,-0.295006888570757,-0.00428832503717835,,
0.0135384055908674,-0.35743178741149,-0.00551279826915163,,
0.0136372260696329,-0.406740612169,-0.00651274558845394,,
0.0137360465483983,-0.440083293787441,-0.00727498464859133,,
0.0138348670271638,-0.456172363567379,-0.00772045940830512,,
0.0139336875059292,-0.455221277169517,-0.00791654985541523,,
0.0140325079846947,-0.436838923707076,-0.0077864183075258,,
0.0141313284634601,-0.401378770441516,-0.00736630100241342,,
0.0142301489422256,-0.350805729544092,-0.00670646400437924,,
0.0143289694209911,-0.286418187074498,-0.00571100817709569,,
0.0144277898997565,-0.2111034303622,-0.00452553424167412,,
0.014526610378522,-0.127612917760943,-0.00315284177308595,,
0.0146254308572874,-0.0394714679043078,-0.00168462293766236,,
0.0147242513360529,0.0498912375706917,-0.000170722341951812,,
0.0148230718148183,0.13833514793094,0.00141812470154123,,
0.0149218922935838,0.221219782483648,0.0029126321545454,,
0.0150207127723492,0.295144489845224,0.00428489860085524,,
0.0151195332511147,0.357707202636273,0.00549970721314663,,
0.0152183537298802,0.406110524519611,0.00651127885461067,,
0.0153171742086456,0.439386355029436,0.00728207487650723,,
0.0154159946874111,0.455686399251835,0.00772953520433894,,
0.0155148151661765,0.454772176667843,0.00793064206377458,,
0.015613635644942,0.436184307443073,0.0078040769309573,,
0.0157124561237074,0.40106727121431,0.00737079705895649,,
0.0158112766024729,0.350470835973468,0.00667719627386809,,
0.0159100970812383,0.286656454917611,0.00572258989703034,,
0.0160089175600038,0.211422798595829,0.00448731091427224,,
0.0161077380387693,0.128167257362023,0.00315984983956241,,
0.0162065585175347,0.0401920845735289,0.00168610184357121,,
0.0163053789963002,-0.0493350193329436,0.000138435939298187,,
0.0164041994750656,-0.138261881100873,-0.0014344626559093,,
0.0165030199538311,-0.220981798208334,-0.00291731383508065,,
0.0166018404325965,-0.294873966164974,-0.00429574999688365,,
0.016700660911362,-0.357931150305537,-0.00552447127957389,,
0.0167994813901274,-0.406814056228942,-0.00651606856222386,,
0.0168983018688929,-0.440302491696071,-0.00727683328097717,,
0.0169971223476584,-0.45667371143602,-0.00775615855370937,,
0.0170959428264238,-0.455475070349626,-0.00790690957986318,,
0.0171947633051893,-0.436603633325852,-0.00779633854057504,,
0.0172935837839547,-0.40141761922998,-0.00738931685599242,,
0.0173924042627202,-0.350647711388097,-0.00668814504641713,,
0.0174912247414856,-0.286318583885097,-0.00571247034641464,,
0.0175900452202511,-0.210991704649392,-0.00455095103509295,,
0.0176888656990165,-0.127842040542539,-0.00318050887703825,,
0.017787686177782,-0.0393988745477625,-0.00167618769655453,,
0.0178865066565474,0.0499108391947979,-0.000130104160742661,,
0.0179853271353129,0.138434999242165,0.00139992442121351,,
0.0180841476140784,0.221123617553811,0.00289228046171308,,
0.0181829680928438,0.295190427828663,0.0043088288808244,,
0.0182817885716093,0.357566836575766,0.00552198513527946,,
0.0183806090503747,0.4061422841131,0.00651972626778408,,
0.0184794295291402,0.439164888578414,0.00729326100432592,,
0.0185782500079056,0.45561352232749,0.0077536206781379,,
0.0186770704866711,0.454529159064096,0.00793145454911981,,
0.0187758909654366,0.436353597419079,0.00783141234613538,,
0.018874711444202,0.400989290069583,0.00736867911963079,,
0.0189735319229675,0.350513371143318,0.00665500355619075,,
0.0190723524017329,0.286565961343754,0.00568293330896319,,
0.0191711728804984,0.211380227980003,0.00452267076336188,,
0.0192699933592638,0.128174665570772,0.00316589631289643,,
0.0193688138380293,0.04020176132467,0.0017012073763496,,
0.0194676343167947,-0.0493429592313158,0.000162268842746283,,
0.0195664547955602,-0.138238983001103,-0.00142140203006669,,
0.0196652752743256,-0.22100285311741,-0.00294553933251862,,
0.0197640957530911,-0.295119464986962,-0.00430222553551207,,
0.0198629162318566,-0.357812335397754,-0.00553319865024449,,
0.019961736710622,-0.406849502203818,-0.00650183941813243,,
0.0200605571893875,-0.440107042590607,-0.00726593928272035,,
0.0201593776681529,-0.456607356571053,-0.00776201483852601,,
0.0202581981469184,-0.455434520154369,-0.00792388961066504,,
0.0203570186256838,-0.436663466131442,-0.007803824360606,,
0.0204558391044493,-0.401683393149597,-0.00737758298524449,,
0.0205546595832148,-0.350609996870829,-0.00666644225435986,,
0.0206534800619802,-0.286301924276906,-0.00571290701924987,,
0.0207523005407457,-0.211084714887465,-0.0045176345714304,,
0.0208511210195111,-0.127777599760215,-0.00316727784228421,,
0.0209499414982766,-0.0395182565911436,-0.00171777964297082,,
0.021048761977042,0.0498781934519375,-0.000138443546838118,,
0.0211475824558075,0.138427307465617,0.00141189260421459,,
0.0212464029345729,0.221193977813939,0.00291927810208525,,
0.0213452234133384,0.295355464287684,0.00429244528121187,,
0.0214440438921038,0.357581014965716,0.00550903101500611,,
0.0215428643708693,0.406111091655209,0.00650857665616034,,
0.0216416848496348,0.43951651264918,0.00729836109959914,,
0.0217405053284002,0.455885747414535,0.00776161772490314,,
0.0218393258071657,0.45448804173324,0.00792921488914278,,
0.0219381462859311,0.436012465356876,0.00782257542687947,,
0.0220369667646966,0.401441864276795,0.00739711306368385,,
0.022135787243462,0.350537757974033,0.00667271695391447,,
0.0222346077222275,0.286624943445947,0.00569711376479454,,
0.0223334282009929,0.211541294489838,0.00451180110923577,,
0.0224322486797584,0.128329777156827,0.00314471691963814,,
0.0225310691585239,0.040147316307261,0.00167874991625627,,
0.0226298896372893,-0.0493200611315461,0.000130317171882055,,
0.0227287101160548,-0.138189571312126,-0.00143742046772655,,
0.0228275305948202,-0.220946635801257,-0.00290126953178227,,
0.0229263510735857,-0.294971442595882,-0.00429942596054111,,
0.0230251715523511,-0.358054502298104,-0.00550192861502508,,
0.0231239920311166,-0.406448820903824,-0.00649322159604759,,
0.023222812509882,-0.439971213614884,-0.00728762077366429,,
0.0233216329886475,-0.456407370380805,-0.0077566332642478,,
0.023420453467413,-0.455130181014087,-0.00790365963848361,,
0.0235192739461784,-0.436806313410191,-0.0077981034900132,,
0.0236180944249439,-0.401445763334031,-0.00738043124847598,,
0.0237169149037093,-0.350525493666726,-0.00669867388272127,,
0.0238157353824748,-0.28603281843565,-0.00572604067748328,,
0.0239145558612402,-0.210961362894898,-0.00451740482370155,,
0.0240133763400057,-0.127709827056253,-0.00315167325483712,,
0.0241121968187711,-0.0394743035822978,-0.00166850712348188,,
0.0242110172975366,0.0498356582820867,-0.000141119879650375,,
0.0243098377763021,0.138329228453136,0.00141107403283725,,
0.0244086582550675,0.221266004034886,0.00289509525176523,,
0.024507478733833,0.294928127614584,0.00429820266800007,,
0.0246062992125984,0.357507854473573,0.00554367575527204,,
0.0247051196913639,0.406270173190451,0.00653854428041489,,
0.0248039401701293,0.439803483261773,0.00726905076685958,,
0.0249027606488948,0.455715606735132,0.00776078089542809,,
0.0250015811276602,0.455082683407753,0.00795506835539639,,
0.0251004016064257,0.436082223035432,0.00781723189030448,,
0.0251992220851912,0.40125811234304,0.00737514248619409,,
0.0252980425639566,0.350379810709987,0.00667550435682029,,
0.0253968630427221,0.286687647375502,0.00571209757692159,,
0.0254956835214875,0.211544697303426,0.00452885112941193,,
0.025594504000253,0.12823222983397,0.0031531643328111,,
0.0256933244790184,0.0401643303752013,0.00169349028708154,,
0.0257921449577839,-0.0493060954174451,0.000127029192799277,,
0.0258909654365493,-0.138227569397193,-0.00142494410100813,,
0.0259897859153148,-0.221011927286978,-0.00292932614181751,,
0.0260886063940803,-0.29518553628413,-0.00429723498882506,,
0.0261874268728457,-0.357738891337812,-0.00551251831165445,,
0.0262862473516112,-0.406812921957746,-0.0065229214348701,,
0.0263850678303766,-0.440004674615167,-0.00725723777768827,,
0.0264838883091421,-0.456558866477423,-0.0077113303594869,,
0.0265827087879075,-0.455477622459817,-0.00792684742248229,,
0.026681529266673,-0.436904498760596,-0.0077890718177156,,
0.0267803497454384,-0.401347577983626,-0.00738648228633432,,
0.0268791702242039,-0.350677769574791,-0.00667273521201173,,
0.0269779907029694,-0.286276119607196,-0.00571837227647576,,
0.0270768111817348,-0.211119310158944,-0.0045318150272613,,
0.0271756316605003,-0.127799505372688,-0.00317453087157027,,
0.0272744521392657,-0.0394479317769904,-0.00169179228400118,,
0.0273732726180312,0.0498855662147116,-0.000130091988677528,,
0.0274720930967966,0.138406039880692,0.0013926211821591,,
0.0275709135755621,0.221087888011136,0.00289026294192407,,
0.0276697340543275,0.295249693498655,0.00429355293913503,,
0.027768554533093,0.357507854473573,0.00549567825960118,,
0.0278673750118585,0.406281232334612,0.00650840624724935,,
0.0279661954906239,0.439545720132477,0.00728668808917687,,
0.0280650159693894,0.455937923889552,0.00774495721080948,,
0.0281638364481548,0.454508458614768,0.00792510073114183,,
0.0282626569269203,0.436298868833871,0.00780820021800688,,
0.0283614774056857,0.400992409315372,0.00737861152474517,,
0.0284602978844512,0.350604112839,0.00666240721478228,,
0.0285591183632166,0.286573085984704,0.00570390577711555,,
0.0286579388419821,0.211400963875306,0.0045154283846327,,
0.0287567593207476,0.128182321901345,0.00315645079038607,,
0.028855579799513,0.0401211926237777,0.00167986974624457,,
0.0289544002782785,-0.0492715001459665,0.000164739771959965,,
0.0290532207570439,-0.138183970848096,-0.00142647778120963,,
0.0291520412358094,-0.220985201021922,-0.00292639267413053,,
0.0292508617145748,-0.295011212979692,-0.00432863891676005,,
0.0293496821933403,-0.357800425550196,-0.00551739930975614,,
0.0294485026721057,-0.406844965119034,-0.00653058983587762,,
0.0295473231508712,-0.440201825127425,-0.00727570280043155,,
0.0296461436296367,-0.456483082983139,-0.00774637373488396,,
0.0297449641084021,-0.455259558822383,-0.00794050295800641,,
0.0298437845871676,-0.437072938033205,-0.00782666067622539,,
0.029942605065933,-0.401202674838334,-0.00738388811496193,,
0.0300414255446985,-0.350530597887108,-0.00664712518706034,,
0.0301402460234639,-0.286310998446474,-0.00569508863746471,,
0.0302390665022294,-0.210929319733611,-0.00451890198770766,,
0.0303378869809948,-0.127782420412798,-0.00317176933430297,,
0.0304367074597603,-0.0394748707178958,-0.00169146211673565,,
0.0305355279385258,0.0498988939012648,-0.000141717832347954,,
0.0306343484172912,0.13850192124273,0.0014133532520253,,
0.0307331688960567,0.221260332678906,0.00289947719519823,,
0.0308319893748221,0.295177950845507,0.00430182994339701,,
0.0309308098535876,0.357490273270034,0.00551839133306142,,
0.031029630332353,0.406233592944379,0.00652281797231735,,
0.0311284508111185,0.439549973649462,0.00729736299026174,,
0.0312272712898839,0.455852569982052,0.00772803804033284,,
0.0313260917686494,0.454832009473433,0.00793049599899387,,
0.0314249122474149,0.43630794300344,0.00781134061080024,,
0.0315237327261803,0.401122566935116,0.00737967049440824,,
0.0316225532049458,0.350586815203261,0.00668429258781611,,
0.0317213736837112,0.286525446594471,0.00567795493434131,,
0.0318201941624767,0.211476392909841,0.00452401881957076,,
0.0319190146412421,0.128292913342957,0.00316706483114526,,
0.0320178351200076,0.0401277501291297,0.00168223112687249,,
0.032116655598773,-0.0493265831909232,0.000132240358166502,,
0.0322154760775385,-0.138124705178104,-0.00140412986970206,,
0.032314296556304,-0.220928487462121,-0.00292033250722312,,
0.0324131170350694,-0.295168309540341,-0.00432639925678346,,
0.0325119375138349,-0.357822260270719,-0.00551072749657822,,
0.0326107579926003,-0.406904159897076,-0.00652958107598334,,
