Time domain (s),Current (AC) (A),Potential (AC) (V),Frequency (Hz),Column 5
0,0.164156104936938,0.00228163626643152,1258.9,0.3
2.48232584001906E-05,0.204648961166632,0.00294724372197841,,
4.96465168003813E-05,0.236855991641723,0.00344238271859743,,
7.44697752005719E-05,0.259847999259393,0.00384606138851717,,
9.92930336007626E-05,0.272960443658774,0.00409098392742724,,
0.000124116292000953,0.275776072226802,0.00416036845247447,,
0.000148939550401144,0.268056303754612,0.00407837948604861,,
0.000173762808801334,0.249597603607813,0.00383322189928048,,
0.000198586067201525,0.221865006766854,0.00346612255224343,,
0.000223409325601716,0.185685127468138,0.00297211872993808,,
0.000248232584001906,0.142335777042069,0.00231496765527783,,
0.000273055842402097,0.0935925383859179,0.00160353655143775,,
0.000297879100802288,0.0414196287267293,0.000844382719452419,,
0.000322702359202478,-0.0115595946059134,3.81458634355347E-05,,
0.000347525617602669,-0.0654658549380403,-0.000755065868957239,,
0.00037234887600286,-0.117338929029585,-0.00155795997049513,,
0.00039717213440305,-0.16435097711613,-0.0022827086722832,,
0.000421995392803241,-0.204823642992228,-0.00292583566992288,,
0.000446818651203432,-0.23719834597802,-0.00345009656193396,,
0.000471641909603622,-0.260538571069604,-0.00383486723428605,,
0.000496465168003813,-0.273404322851689,-0.00406976017426031,,
0.000521288426404003,-0.27620240609061,-0.00416639021833376,,
0.000546111684804194,-0.268386931815677,-0.00409872848724513,,
0.000570934943204385,-0.249809558236827,-0.00383595299512951,,
0.000595758201604575,-0.222083882543279,-0.00347159809893327,,
0.000620581460004766,-0.18546585493804,-0.00298532548145314,,
0.000645404718404957,-0.141925577827641,-0.00233594434109463,,
0.000670227976805147,-0.0929759611357735,-0.00161496308252884,,
0.000695051235205338,-0.0406197733214013,-0.000815923231660243,,
0.000719874493605529,0.0122272208286862,-4.17463692587994E-05,,
0.000744697752005719,0.0657427890019882,0.000762058542728816,,
0.00076952101040591,0.117346048553833,0.00155666052978054,,
0.000794344268806101,0.164190490255289,0.00227215956416149,,
0.000819167527206291,0.204527532500738,0.00293100672279589,,
0.000843990785606482,0.236844000864041,0.00345324834002758,,
0.000868814044006672,0.25972959032979,0.0038401691660801,,
0.000893637302406863,0.272972081766524,0.00405161608223059,,
0.000918460560807054,0.275568459846324,0.00415725673935619,,
0.000943283819207244,0.267662724110721,0.00406389199080825,,
0.000968107077607435,0.249848396013066,0.00387347651594094,,
0.000992930336007626,0.221628541577581,0.00348323563889608,,
0.00101775359440782,0.185805167496176,0.00297244459174095,,
0.00104257685280801,0.142227595540489,0.00233154120025691,,
0.0010674001112082,0.0936355420757271,0.00160646930766406,,
0.00109222336960839,0.0413687340471961,0.00080995488576896,,
0.00111704662800858,-0.0115463253997293,5.64555573645542E-05,,
0.00114186988640877,-0.0655631036717348,-0.000783047248038571,,
0.00116669314480896,-0.117365599693177,-0.00156196513257356,,
0.00119151640320915,-0.164371784642106,-0.00227129015418726,,
0.00121633966160934,-0.20477559171402,-0.00292762790983936,,
0.00124116292000953,-0.237220872769914,-0.00341967389032849,,
0.00126598617840972,-0.260202168038406,-0.00384526409549979,,
0.00129080943680991,-0.273637569927835,-0.00409813151910576,,
0.0013156326952101,-0.276109962484736,-0.00415233408933302,,
0.00134045595361029,-0.268110394505402,-0.00408880839924297,,
0.00136527921201049,-0.249882957666383,-0.00385193892046365,,
0.00139010247041068,-0.2218795103178,-0.00349509487172606,,
0.00141492572881087,-0.185449191283763,-0.00297445986002254,,
0.00143974898721106,-0.141983283445233,-0.00233534737295571,,
0.00146457224561125,-0.0929682905647568,-0.0016186423828044,,
0.00148939550401144,-0.0407020335829943,-0.000847157886774585,,
0.00151421876241163,0.0122653973488038,-5.22754448923912E-05,,
0.00153904202081182,0.0657160962965249,0.000748718241295077,,
0.00156386527921201,0.117281774458762,0.00154536220661194,,
0.0015886885376122,0.164265190155219,0.00229209856710533,,
0.00161351179601239,0.204423803457047,0.00293761477280041,,
0.00163833505441258,0.23682034993674,0.00342999997008464,,
0.00166315831281277,0.260000440837415,0.0038577496774499,,
0.00168798157121296,0.273118968793119,0.00410530849176594,,
0.00171280482961315,0.275640470638024,0.0041866350505928,,
0.00173762808801334,0.267804960302591,0.00410973700708839,,
0.00176245134641354,0.249891553995971,0.0038744647853437,,
0.00178727460481373,0.221969264815443,0.00348782708512019,,
0.00181209786321392,0.185765932966263,0.00295902015385785,,
0.00183692112161411,0.142386319051671,0.00233583883665833,,
0.0018617443800143,0.0935552876243713,0.00159666941458969,,
0.00188656763841449,0.041422846839857,0.000854302807454133,,
0.00191139089681468,-0.0115409912670108,3.93397997133782E-05,,
0.00193621415521487,-0.0654705278146367,-0.000788767191080009,,
0.00196103741361506,-0.117428330857297,-0.00156090073971704,,
0.00198586067201525,-0.164313902689549,-0.00230554303747654,,
0.00201068393041544,-0.204779735585719,-0.00291053218467585,,
0.00203550718881563,-0.237292905603484,-0.00346568317300955,,
0.00206033044721582,-0.260442556680671,-0.00383419414269293,,
0.00208515370561601,-0.273583831846977,-0.00407985387715737,,
0.0021099769640162,-0.276145978901521,-0.00416452319046279,,
0.0021348002224164,-0.268063842074405,-0.00408023449442707,,
0.00215962348081659,-0.249774555746095,-0.00382607564310167,,
0.00218444673921678,-0.22185530834373,-0.00343883029074599,,
0.00220926999761697,-0.185580869419549,-0.00295581495579622,,
0.00223409325601716,-0.141929324945667,-0.00231874044049674,,
0.00225891651441735,-0.0929904646867189,-0.00161340989696779,,
0.00228373977281754,-0.0406851935937507,-0.000850144062968905,,
0.00230856303121773,0.012293522775865,-2.77035952493954E-05,,
0.00233338628961792,0.0657218271829167,0.000781289731100809,,
0.00235820954801811,0.117359339801888,0.00155057065346265,,
0.0023830328064183,0.164244404671113,0.00228855148125007,,
0.00240785606481849,0.204431518111805,0.00294326126338618,,
0.00243267932321868,0.236774833473667,0.00346463213514481,,
0.00245750258161887,0.259937401087105,0.00383782135849975,,
0.00248232584001906,0.272870160156233,0.00408785618831864,,
0.00250714909841925,0.275598194329949,0.00415685341859984,,
0.00253197235681945,0.267844922214238,0.00408200670185543,,
0.00255679561521964,0.249678585440904,0.00386089878454587,,
0.00258161887361983,0.222001842700394,0.0034798835359231,,
0.00260644213202002,0.185725971054615,0.00295727064991569,,
0.00263126539042021,0.142266279023633,0.00232500793820689,,
0.0026560886488204,0.0936769146671016,0.00161802671767619,,
0.00268091190722059,0.0413853977014737,0.000854791600158666,,
0.00270573516562078,-0.0115543927244193,6.60951905362417E-05,,
0.00273055842402097,-0.06552082736366,-0.000755425118240005,,
0.00275538168242116,-0.117444994511574,-0.00154659620786601,,
0.00278020494082135,-0.164411548176917,-0.00228679930630982,,
0.00280502819922154,-0.20456853038031,-0.00291938921532076,,
0.00282985145762173,-0.237147826010289,-0.00346490190598203,,
0.00285467471602192,-0.260428053129725,-0.00383872014945652,,
0.00287949797442211,-0.27384000246869,-0.00407906192613616,,
0.0029043212328223,-0.276144171468121,-0.00413798682150768,,
0.0029291444912225,-0.268146543173412,-0.00409665579249818,,
0.00295396774962269,-0.249811497921452,-0.0038550332720928,,
0.00297879100802288,-0.221821496114018,-0.00344524469336749,,
0.00300361426642307,-0.185413395285685,-0.00295061585743994,,
0.00302843752482326,-0.141849797876045,-0.00232561291934141,,
0.00305326078322345,-0.0930818502827972,-0.00160598719245586,,
0.00307808404162364,-0.0406773026040266,-0.000838302191628948,,
0.00310290730002383,0.0122444355297323,-5.69857505441362E-05,,
0.00312773055842402,0.0657241636212149,0.000759398228337371,,
0.00315255381682421,0.117282832468557,0.00156596361715566,,
0.0031773770752244,0.164259811938759,0.00226687632935585,,
0.00320220033362459,0.204499208696841,0.00292295366266515,,
0.00322702359202478,0.236872302626068,0.00344528342284356,,
0.00325184685042497,0.26004721368712,0.00384022258604766,,
0.00327667010882516,0.272931612891849,0.0040783367500743,,
0.00330149336722536,0.275747219418006,0.00415379245445058,,
0.00332631662562555,0.267657698564193,0.00408622955030191,,
0.00335113988402574,0.249813106978015,0.00387494289405455,,
0.00337596314242593,0.221747832182013,0.00348600279322309,,
0.00340078640082612,0.185672431350594,0.00296481622035349,,
0.00342560965922631,0.142496109609815,0.00233277787250907,,
0.0034504329176265,0.0935130333581672,0.00159555026626634,,
0.00347525617602669,0.0413662433158027,0.000826778169096709,,
0.00350007943442688,-0.0115904532249461,9.10463219496727E-05,,
0.00352490269282707,-0.0655400037912018,-0.000774743114059451,,
0.00354972595122726,-0.117319576267077,-0.00157998101668033,,
0.00357454920962745,-0.164231510176732,-0.00229163915538333,,
0.00359937246802764,-0.204808390017678,-0.00291429962789813,,
0.00362419572642783,-0.23743710352185,-0.0034467751754419,,
0.00364901898482802,-0.260475883989226,-0.00381387719347748,,
0.00367384224322822,-0.273591326083027,-0.00408176364100266,,
0.00369866550162841,-0.276341093541291,-0.00416473019283758,,
0.0037234887600286,-0.268185601368359,-0.00408343568599179,,
0.00374831201842879,-0.249966804942669,-0.00384193336051375,,
0.00377313527682898,-0.221921037202269,-0.00347631908857871,,
0.00379795853522917,-0.185614902067968,-0.00296732962983404,,
0.00382278179362936,-0.141939023368791,-0.00232519891459182,,
0.00384760505202955,-0.0930146666607888,-0.00161834857298171,,
0.00387242831042974,-0.040628369650989,-0.000851543666122723,,
0.00389725156882993,0.0122455155813984,-5.37939074742866E-05,,
0.00392207482723012,0.0657576452228654,0.000777133657613671,,
0.00394689808563031,0.117283383515326,0.00154835639580186,,
0.0039717213440305,0.164279693706164,0.00230142302246739,,
0.00399654460243069,0.204534321396926,0.00291365057529003,,
0.00402136786083088,0.236798308066002,0.00342103342850608,,
0.00404619111923107,0.260097909989817,0.0038536683919177,,
0.00407101437763127,0.273264974144886,0.00406035558894668,,
0.00409583763603146,0.275578312562544,0.00416267085308242,,
0.00412066089443165,0.26783901499288,0.00410550614564675,,
0.00414548415283184,0.249511816646903,0.00387896808862065,,
0.00417030741123203,0.221883962775689,0.00347759449030693,,
0.00419513066963222,0.185728660162845,0.00296166711325752,,
0.00421995392803241,0.142483942497168,0.00234157079919228,,
0.0042447771864326,0.0935823329997664,0.00163494749244508,,
0.00426960044483279,0.0414223178349593,0.000830641768260421,,
0.00429442370323298,-0.0115427546166698,4.18799191774788E-05,,
0.00431924696163317,-0.0654880731437439,-0.000768980435043698,,
0.00434407022003336,-0.117362381580049,-0.00158982631672755,,
0.00436889347843355,-0.164372357730745,-0.00230684648468849,,
0.00439371673683374,-0.204788331915306,-0.00292738885548394,,
0.00441853999523393,-0.237298283819944,-0.00344024191339232,,
0.00444336325363412,-0.26044612746373,-0.00381866228708416,,
0.00446818651203432,-0.273572546409159,-0.00405739745823519,,
0.00449300977043451,-0.275961091689774,-0.00416656383322911,,
0.0045178330288347,-0.268297221401775,-0.00407838883454303,,
0.00454265628723489,-0.249712794424288,-0.00386342287802011,,
0.00456747954563508,-0.221813076119396,-0.00346880824112006,,
0.00459230280403527,-0.185419126172076,-0.00296098066667261,,
0.00461712606243546,-0.141921830709616,-0.0023296594818949,,
0.00464194932083565,-0.0928404036307369,-0.00162238712254004,,
0.00466677257923584,-0.0406468848224086,-0.000836727638080959,,
0.00469159583763603,0.0122256117721223,-6.62006949725402E-05,,
0.00471641909603622,0.0657261253477105,0.000787487782853091,,
0.00474124235443641,0.117314176008746,0.00154767262021505,,
0.0047660656128366,0.164130117571339,0.00227364998126012,,
0.00479088887123679,0.20460974867859,0.00293836532334657,,
0.00481571212963698,0.236881780630486,0.00345755666042269,,
0.00484053538803718,0.259819344827434,0.00383309102035989,,
0.00486535864643737,0.273084759809735,0.00408807253918786,,
0.00489018190483756,0.275657839632165,0.00416538191644333,,
0.00491500516323775,0.267590338607218,0.0040747682962321,,
0.00493982842163794,0.249568243835991,0.00386415473157742,,
0.00496465168003813,0.22192105924414,0.00348243433938089,,
0.00498947493843832,0.185707522008808,0.00295075875585304,,
0.00501429819683851,0.142321273491124,0.00232041649198322,,
0.0050391214552387,0.0935592331192333,0.00161778899882004,,
0.00506394471363889,0.0413991959125555,0.000835330705925674,,
0.00508876797203908,-0.011585251343452,4.95750655247207E-05,,
0.00511359123043927,-0.0654432840624049,-0.000770140983842094,,
0.00513841448883946,-0.117313492710753,-0.00157812600830187,,
0.00516323774723965,-0.164287584695888,-0.00227649993653722,,
0.00518806100563984,-0.204643957661975,-0.00291651388555936,,
0.00521288426404003,-0.237086549609638,-0.00346296810315128,,
0.00523770752244023,-0.260411918480345,-0.00383420482668662,,
0.00526253078084042,-0.273231823171296,-0.00407673949304055,,
0.00528735403924061,-0.276136280478397,-0.0041710137165385,,
0.0053121772976408,-0.268253534413973,-0.0040517977101211,,
0.00533700055604099,-0.249649754673979,-0.00383900193978581,,
0.00536182381444118,-0.221737604753991,-0.00348161567837613,,
0.00538664707284137,-0.18540907507902,-0.00295647602789639,,
0.00541147033124156,-0.141954761264498,-0.00235590337652658,,
0.00543629358964175,-0.0930942378141518,-0.00160928721096054,,
0.00546111684804194,-0.0406991681397984,-0.000841992175898199,,
0.00548594010644213,0.012237822968511,-3.52678626756031E-05,,
0.00551076336484232,0.065732385239,0.000769654862135649,,
0.00553558662324251,0.117407876001252,0.00156685305961801,,
0.0055604098816427,0.164335768225321,0.00230437447568299,,
0.00558523314004289,0.204578405138401,0.00292546974314378,,
0.00561005639844309,0.23683020265296,0.00345624520021559,,
0.00563487965684328,0.259819873832332,0.00387750438150558,,
0.00565970291524347,0.273265503149783,0.00410086127945508,,
0.00568452617364366,0.275525456156515,0.00412954513111163,,
0.00570934943204385,0.267877500099188,0.00407457064235128,,
0.00573417269044404,0.249398058552025,0.00386338281304388,,
0.00575899594884423,0.22200201903536,0.0034698966729616,,
0.00578381920724442,0.185795292738085,0.00297101293660651,,
0.00580864246564461,0.142291186337567,0.00236497141604364,,
0.0058334657240448,0.0935341494703339,0.0016217394054312,,
0.00585828898244499,0.0414124651187396,0.000843112659720369,,
0.00588311224084518,-0.0115574345025811,5.75092662273846E-05,,
0.00590793549924537,-0.0655507602241217,-0.000761860888848442,,
0.00593275875764556,-0.117321736370409,-0.00157301371739305,,
0.00595758201604575,-0.164162695456289,-0.00227286337223598,,
0.00598240527444594,-0.204825097755697,-0.00291708948571134,,
0.00600722853284614,-0.237024215199192,-0.00345709724870069,,
0.00603205179124633,-0.260300166195705,-0.00384122821694,,
0.00605687504964652,-0.273782120516132,-0.00407860652091152,,
0.00608169830804671,-0.27629445294281,-0.0041717295441055,,
0.0061065215664469,-0.268101798175815,-0.00408714703824753,,
0.00613134482484709,-0.249736070639787,-0.00383802568987646,,
0.00615616808324728,-0.221829343020001,-0.00346149371204252,,
0.00618099134164747,-0.185392455508484,-0.00296236958583318,,
0.00620581460004766,-0.141967325130819,-0.00234775416045396,,
0.00623063785844785,-0.0930963538337426,-0.00162256073743494,,
0.00625546111684804,-0.0406400077587385,-0.000853920854685608,,
0.00628028437524823,0.0122748973950917,-5.92000082053623E-05,,
0.00630510763364842,0.0657103654101331,0.000788162209945487,,
0.00632993089204861,0.117379221569293,0.00157010900664911,,
0.0063547541504488,0.1642302537901,0.00229669268432753,,
0.00637957740884899,0.204446374332682,0.00293592403082288,,
0.00640440066724919,0.236837895265847,0.00342935893047214,,
0.00642922392564938,0.259973241168925,0.00382228148989539,,
0.00645404718404957,0.273175924987106,0.00408896198164976,,
0.00647887044244976,0.275461336354539,0.00416330922169639,,
0.00650369370084995,0.267875913084495,0.00408640316519726,,
0.00652851695925014,0.249735365299924,0.00386059429072994,,
0.00655334021765033,0.221890972090583,0.00345384397266768,,
0.00657816347605052,0.185851543592208,0.00297274908555689,,
0.00660298673445071,0.142306064600315,0.00235283707038025,,
0.0066278099928509,0.0935481240163815,0.00161824573954394,,
0.00665263325125109,0.0413943467009932,0.000840746155151173,,
0.00667745650965128,-0.0115777130236597,6.50521656666569E-05,,
0.00670227976805147,-0.0655066764826464,-0.000766354843631412,,
0.00672710302645166,-0.117314903390481,-0.00156400443984062,,
0.00675192628485185,-0.164418910161743,-0.00231169701775569,,
0.00677674954325205,-0.204919833716127,-0.00291590489792748,,
0.00680157280165224,-0.237295594711714,-0.00343960087377981,,
0.00682639606005243,-0.260639611005065,-0.00384905290670856,,
0.00685121931845262,-0.273810774948091,-0.004074199373576,,
0.00687604257685281,-0.276031890178583,-0.00417647323723713,,
0.006900865835253,-0.268287743397358,-0.00406074154821345,,
0.00692568909365319,-0.249715307197552,-0.00383302157440202,,
0.00695051235205338,-0.222022121221472,-0.00345826981699204,,
0.00697533561045357,-0.185426620408127,-0.00295341506374713,,
0.00700015886885376,-0.141875586864808,-0.00232430947212947,,
0.00702498212725395,-0.0929360212659969,-0.00163944812472439,,
0.00704980538565414,-0.0406624463831494,-0.000834036607208155,,
0.00707462864405433,0.012232444752051,-5.65730812938092E-05,,
0.00709945190245452,0.0657210998011823,0.000769536002707572,,
0.00712427516085471,0.117318848885343,0.0015808758011393,,
0.0071490984192549,0.164072257660652,0.00230162868934292,,
0.0071739216776551,0.204452457889006,0.00289510049150632,,
0.00719874493605529,0.236773951798837,0.00344536889479219,,
0.00722356819445548,0.259999382827619,0.00384098114958897,,
0.00724839145285567,0.272896830819825,0.00409138457718505,,
0.00727321471125586,0.275789870437884,0.00416880346537463,,
0.00729803796965605,0.267656287884465,0.00410403976753315,,
0.00732286122805624,0.249734836295026,0.00387507377297514,,
0.00734768448645643,0.221949912052936,0.00348760806325243,,
0.00737250774485662,0.185604167676919,0.00294591890677953,,
0.00739733100325681,0.142372344505623,0.00232917736668625,,
0.007422154261657,0.0935839420563302,0.0016223350380713,,
0.00744697752005719,0.0413777050885863,0.000830392029911753,,
0.00747180077845738,-0.011516612957975,7.03594394577678E-05,,
0.00749662403685757,-0.0654871473851729,-0.000794758240457494,,
0.00752144729525776,-0.117322970715171,-0.00157540158994918,,
0.00754627055365796,-0.164199990301577,-0.00230380688852616,,
0.00757109381205815,-0.204680150413726,-0.00292974334056018,,
0.00759591707045834,-0.237093338505826,-0.0034759077548272,,
0.00762074032885853,-0.260183344280796,-0.00386183764047843,,
0.00764556358725872,-0.273347895662601,-0.00408716840623446,,
0.00767038684565891,-0.276254160403102,-0.0041637739754159,,
0.0076952101040591,-0.268181854250334,-0.00407775981442349,,
0.00772003336245929,-0.249731397763191,-0.00385556480077165,,
0.00774485662085948,-0.2219255337439,-0.0034737789691146,,
0.00776967987925967,-0.185536124421952,-0.00297230169332785,,
0.00779450313765986,-0.141921610290909,-0.00232940974354579,,
0.00781932639606005,-0.0929154341587279,-0.00159987594815103,,
0.00784414965446024,-0.0406490008419995,-0.000854094469580513,,
0.00786897291286043,0.0122612755189758,-6.14356338535238E-05,,
0.00789379617126062,0.0657438470117836,0.000780845009869857,,
0.00791861942966081,0.117389250620479,0.00155806013293436,,
0.00794344268806101,0.164160579436698,0.00230156458538167,,
0.0079682659464612,0.20459808852897,0.00291454001775238,,
0.00799308920486139,0.236882309635383,0.00345795998117904,,
0.00801791246326158,0.260165269946791,0.00383466423840861,,
0.00804273572166177,0.272993219920561,0.00406716930582673,,
