Time domain (s),Current (AC) (A),Potential (AC) (V),Frequency (Hz),Column 5
0,0.0895185259805526,0.00249134810071983,10000,0.5
3.125E-06,0.126246723551312,0.00292803848081125,,
6.25E-06,0.157815865816852,0.00323174529750681,,
9.375E-06,0.18336124822008,0.00340657962813795,,
1.25E-05,0.20168986558461,0.00345786238136547,,
1.5625E-05,0.212295620281166,0.00338571101654095,,
1.875E-05,0.214456974045181,0.003155572907521,,
2.1875E-05,0.208595202288052,0.00282917294395535,,
2.5E-05,0.194518932191425,0.00235130131493699,,
2.8125E-05,0.172726037918403,0.00183099945254561,,
3.125E-05,0.144552655491921,0.00122073547220447,,
3.4375E-05,0.1107558045974,0.000552708897699539,,
3.75E-05,0.0727752298423349,-0.000112917590706196,,
4.0625E-05,0.0324489822539018,-0.000754795755726789,,
4.375E-05,-0.0084670154645117,-0.00135976819224526,,
4.6875E-05,-0.0495672613603286,-0.00195850549481102,,
5E-05,-0.0894122943938504,-0.00252501390875359,,
5.3125E-05,-0.125995659711268,-0.00293858437299477,,
5.625E-05,-0.157925535663117,-0.0032321368286814,,
5.9375E-05,-0.183510014976633,-0.00342468598729972,,
6.25E-05,-0.202134039095776,-0.0034877890666829,,
6.5625E-05,-0.212731676664086,-0.00338452467708228,,
6.875E-05,-0.214880624336894,-0.00315496603420096,,
7.1875E-05,-0.208994040397352,-0.00279418376055229,,
7.5E-05,-0.194902280409704,-0.0023668353142825,,
7.8125E-05,-0.173158088906161,-0.00180356682080873,,
8.125E-05,-0.144559992808721,-0.00119038593321852,,
8.4375E-05,-0.110671372285246,-0.000560964332512182,,
8.75E-05,-0.0723829846843614,0.000110676074732918,,
9.0625E-05,-0.0318017387526732,0.000771384931587793,,
9.375E-05,0.00918717133605946,0.00137827978617278,,
9.6875E-05,0.049889996961571,0.00198330507939959,,
0.0001,0.0897285788276655,0.0024735804160243,,
0.000103125,0.126128830238876,0.00290586607040355,,
0.00010625,0.157821749848681,0.00322146760417796,,
0.000109375,0.183124256432062,0.00342177495301765,,
0.0001125,0.201772986395693,0.00345792894166497,,
0.000115625,0.212435525544,0.00339600828642839,,
0.00011875,0.214734303352608,0.00316204883314608,,
0.000121875,0.208541856095864,0.00279249038822282,,
0.000125,0.194453782489603,0.00235320415644491,,
0.000128125,0.172810434784581,0.00181018565531277,,
0.00013125,0.144685755127579,0.00121270125250517,,
0.000134375,0.110769167729928,0.000529680991675274,,
0.0001375,0.0726511334842954,-0.000118042733779689,,
0.000140625,0.0323196044456058,-0.000778424662104094,,
0.00014375,-0.00861092612250668,-0.00138118690514277,,
0.000146875,-0.0494019413335088,-0.00197654725132912,,
0.00015,-0.0892187593710296,-0.00249108969014467,,
0.000153125,-0.126007073315178,-0.0029162788419872,,
0.00015625,-0.158023933689372,-0.00324635919859251,,
0.000159375,-0.183588279689159,-0.00340871738835036,,
0.0001625,-0.202116883243936,-0.00346393894519226,,
0.000165625,-0.212581881974261,-0.0033713476954067,,
0.00016875,-0.214950736475198,-0.00315901055123247,,
0.000171875,-0.208976388301864,-0.00281352735822527,,
0.000175,-0.194766026082283,-0.00234449258781355,,
0.000178125,-0.173011626137975,-0.00180707689778759,,
0.00018125,-0.144774086496969,-0.00121634445008301,,
0.000184375,-0.110532353171784,-0.00056941161760049,,
0.0001875,-0.0725436258424977,0.000116022432919749,,
0.000190625,-0.0316894459042672,0.000778700691582035,,
0.00019375,0.00902089426791798,0.00137714826107871,,
0.000196875,0.050064674725758,0.00195266776500036,,
0.0002,0.0895796702872131,0.00247877603470892,,
0.000203125,0.126173527613194,0.00291775687217077,,
0.00020625,0.157727428109537,0.00322461943013241,,
0.000209375,0.183380211816639,0.00340935558416477,,
0.0002125,0.201740092531009,0.00343380279069638,,
0.000215625,0.212213385619455,0.00335055151707664,,
0.00021875,0.214652706718444,0.00317645718036541,,
0.000221875,0.208747832655866,0.00281198864070964,,
0.000225,0.19462438396668,0.0023946829690642,,
0.000228125,0.172889833768303,0.00183545507731031,,
0.00023125,0.144618762235064,0.00121765020654996,,
0.000234375,0.110618415998782,0.000550755157139093,,
0.0002375,0.072813369711301,-0.000110296289493661,,
0.000240625,0.0324483796723289,-0.000768076493163683,,
0.00024375,-0.00844312487744554,-0.00136496185327406,,
0.000246875,-0.0495129581268192,-0.00196630088049421,,
0.00025,-0.0893809601520604,-0.00250046098880485,,
0.000253125,-0.126039116476466,-0.00294610764451164,,
0.00025625,-0.157939501377218,-0.00321733303497629,,
0.000259375,-0.18345670423042,-0.00344003792464909,,
0.0002625,-0.201910304102361,-0.00347358431567457,,
0.000265625,-0.212588404033639,-0.00339417004756459,,
0.00026875,-0.214997312486185,-0.00315470958128161,,
0.000271875,-0.208852894525398,-0.00280271522484332,,
0.000275,-0.194817210070003,-0.00239932065582549,,
0.000278125,-0.173164894533337,-0.00180534828765255,,
0.00028125,-0.144656476752332,-0.00122126012397805,,
0.000284375,-0.110663007035175,-0.000548368774630603,,
0.0002875,-0.0723863874979495,0.000128941004020167,,
0.000290625,-0.0317995411022309,0.000788396961116877,,
0.00029375,0.009167924171702,0.00138569538661626,,
0.000296875,0.0498506164834842,0.00197805856166244,,
0.0003,0.0897214541867155,0.00249589377765513,,
0.000303125,0.126029900522998,0.00292712621317515,,
0.00030625,0.157886580536729,0.00323142032663215,,
0.000309375,0.183296736545807,0.00341477046030736,,
0.0003125,0.201677140479629,0.00347866051735135,,
0.000315625,0.212350526096248,0.00337666664641167,,
0.00031875,0.214745185266895,0.00315219790879739,,
0.000321875,0.208566065696704,0.00281200430195661,,
0.000325,0.194444176630412,0.00238392369239104,,
0.000328125,0.172882992695152,0.00179438737242421,,
0.00033125,0.144818535749463,0.00120983524430818,,
0.000334375,0.110766367497913,0.000573113544855008,,
0.0003375,0.072631283738365,-0.000110862052040694,,
0.000340625,0.0322895462589113,-0.000772923649102975,,
0.00034375,-0.0085774651222241,-0.00135627377651382,,
0.000346875,-0.0493662826827839,-0.00199160749795357,,
0.00035,-0.0893143217192943,-0.00249917676655276,,
0.000353125,-0.126112631428358,-0.00292290746477031,,
0.00035625,-0.157936382131429,-0.00324200537193287,,
0.000359375,-0.183620181066547,-0.00342533592904948,,
0.0003625,-0.202012672077802,-0.00346770743274627,,
0.000365625,-0.212506452939726,-0.00337975974268945,,
0.00036875,-0.214951374502746,-0.00317378106478827,,
0.000371875,-0.20900616292076,-0.00279923842801422,,
0.000375,-0.194677056685345,-0.00235126020416354,,
0.000378125,-0.173092017608993,-0.00183214468123083,,
0.00038125,-0.144767209977843,-0.00121274432093443,,
0.000384375,-0.110605513663927,-0.000572956932385349,,
0.0003875,-0.0725386634060151,0.000113845519589706,,
0.000390625,-0.0316848379275334,0.000767015443680741,,
0.00039375,0.0089948414763844,0.001372453802297,,
0.000396875,0.0499920813692128,0.00197346590098624,,
0.0004,0.0895349729128949,0.0024733768198133,,
0.000403125,0.126123265220821,0.002921507740822,,
0.00040625,0.157758443337553,0.00321649907357457,,
0.000409375,0.183449685927395,0.00341083165669254,,
0.0004125,0.201675261842961,0.00346373926429333,,
0.000415625,0.212262407402708,0.00339105541707196,,
0.00041875,0.214643738886801,0.00316513018348896,,
0.000421875,0.208646102707973,0.00279986292023748,,
0.000425,0.194609496657232,0.002363994755612,,
0.000428125,0.172734084154699,0.00183307456777015,,
0.00043125,0.144512672432262,0.0012276577433683,,
0.000434375,0.110683211240854,0.00053638009006951,,
0.0004375,0.072824216179613,-0.000124585219704265,,
0.000440625,0.0323860302025227,-0.000775427490963487,,
0.00044375,-0.00841186152760525,-0.00137393770544803,,
0.000446875,-0.0495526576186799,-0.0019747657844853,,
0.00045,-0.0893840793978495,-0.00250118140616573,,
0.000453125,-0.125976093533137,-0.00292304450068137,,
0.00045625,-0.157793747528529,-0.00321459231675503,,
0.000459375,-0.183540782082825,-0.00339653293820197,,
0.0004625,-0.202206561560372,-0.00344719902982948,,
0.000465625,-0.212812280810953,-0.00338625328721731,,
0.00046875,-0.214880907904693,-0.0031643921472253,,
0.000471875,-0.209055787285586,-0.00280521710904802,,
0.000475,-0.194983522584119,-0.00236292979081787,,
0.000478125,-0.173145399247156,-0.00182662800698274,,
0.00048125,-0.144598770705235,-0.00121420081690315,,
0.000484375,-0.110676334721729,-0.000548916918274855,,
0.0004875,-0.0724496940090773,0.000124093848080431,,
0.000490625,-0.031805779593809,0.000795354470086274,,
0.00049375,0.00918249246737588,0.00135672599502001,,
0.000496875,0.0498639441700375,0.00197716978589657,,
0.0005,0.0897537100238523,0.00248855648344604,,
0.000503125,0.126015332227324,0.00292061504974406,,
0.00050625,0.157873252850175,0.00321680838320226,,
0.000509375,0.183255477431052,0.00343496955359601,,
0.0005125,0.201859226452565,0.00344543909720052,,
0.000515625,0.212124061762768,0.00338437589523588,,
0.00051875,0.214741782453307,0.00314959031117601,,
0.000521875,0.208647662330868,0.00283947021384323,,
0.000525,0.19453750588226,0.00235741703188186,,
0.000528125,0.172954983470124,0.00184195057949443,,
0.00053125,0.144650096476854,0.00123391049622423,,
0.000534375,0.110768246134581,0.000565216361066767,,
0.0005375,0.0726033523101631,-0.000142182588339423,,
0.000540625,0.0322681368900864,-0.000757657848612148,,
0.00054375,-0.00854889566647436,-0.00136950165724192,,
0.000546875,-0.0494459652343043,-0.00198552701881471,,
0.00055,-0.0892047936569286,-0.00246818120112868,,
0.000553125,-0.126097106091362,-0.00293024084366778,,
0.00055625,-0.158050943522227,-0.00324652951465376,,
0.000559375,-0.183493568044291,-0.0034060784682346,,
0.0005625,-0.202005511990877,-0.00346578892999183,,
0.000565625,-0.212472353911896,-0.00338949320768567,,
0.00056875,-0.215014681013874,-0.00317436248858227,,
0.000571875,-0.208981350738347,-0.00281253482669808,,
0.000575,-0.194793319482937,-0.00236531030035847,,
0.000578125,-0.173072096971113,-0.00180841397674847,,
0.00058125,-0.144736230195802,-0.00121334532128703,,
0.000584375,-0.110706676476222,-0.000560979993759148,,
0.0005875,-0.0725855229848006,0.000132265103690798,,
0.000590625,-0.0317006468323279,0.000769946054521409,,
0.00059375,0.00901965365879733,0.00137480298934367,,
0.000596875,0.0500013682146302,0.00197747518021263,,
0.0006,0.0895805918825598,0.00250788246221623,,
0.000603125,0.126214184146377,0.00292361417854048,,
0.00060625,0.157843159217506,0.00323313523317603,,
0.000609375,0.183323108351114,0.00339701843685836,,
0.0006125,0.201645770791864,0.00346637426909746,,
0.000615625,0.21235424792361,0.00337798610646933,,
0.00061875,0.214478985995579,0.00316317644292852,,
0.000621875,0.208555821809965,0.00281776372553244,,
0.000625,0.194570435192919,0.00236578013776745,,
0.000628125,0.172683857208301,0.00182926888475432,,
0.00063125,0.144611956607888,0.00121929463748272,,
0.000634375,0.110668961958954,0.000535745809567167,,
0.0006375,0.072788876542662,-0.000111392576781721,,
0.000640625,0.0323915952205782,-0.000756510662271115,,
0.00064375,-0.00845893378224006,-0.00134996816694954,,
0.000646875,-0.0495725073646102,-0.00198526665058374,,
0.00065,-0.0894231408621624,-0.00248510905145505,,
0.000653125,-0.126005230124485,-0.00293634089936523,,
0.00065625,-0.15793609856363,-0.00323539241039672,,
0.000659375,-0.183670159891121,-0.00343693504009179,,
0.0006625,-0.202111920807454,-0.00345045461154481,,
0.000665625,-0.212809232457114,-0.0033754254925884,,
0.00066875,-0.214919473125358,-0.00318813655529882,,
0.000671875,-0.208927969100184,-0.00281597834337699,,
0.000675,-0.194778786633238,-0.0023508490964308,,
0.000678125,-0.173171416592715,-0.00181758167919766,,
0.00068125,-0.144588207804722,-0.00122257958403615,,
0.000684375,-0.110651806107115,-0.000576161615047699,,
0.0006875,-0.0724496940090773,0.000111533528004859,,
0.000690625,-0.0318358377805035,0.000760539518055658,,
0.00069375,0.00916856219924976,0.00136323324313903,,
0.000696875,0.0498710688109875,0.00195323548520321,,
0.0007,0.0897785222062652,0.00249781228040957,,
0.000703125,0.126095333792619,0.00293127644362379,,
0.00070625,0.157801262075203,0.00323503807468395,,
0.000709375,0.183353485551583,0.00342076480258768,,
0.0007125,0.201653214446588,0.00346892705235469,,
0.000715625,0.212200979528248,0.00339189329378531,,
0.00071875,0.214493873305027,0.00315978578295795,,
0.000721875,0.208697286695694,0.00282410261524646,,
0.000725,0.194531940864204,0.00235298098367531,,
0.000728125,0.172806677511245,0.0018194336216526,,
0.00073125,0.144766111152622,0.00122479173517176,,
0.000734375,0.110677327209025,0.000545819906685452,,
0.0007375,0.0726619799526073,-0.0001092528589135,,
0.000740625,0.0322715397036745,-0.0008026682724247,,
0.00074375,-0.00855761537629376,-0.00137719524481961,,
0.000746875,-0.0494385215795804,-0.00197073888635613,,
0.00075,-0.0893356601961694,-0.00248367017438911,,
0.000753125,-0.126114474619051,-0.00293899548072796,,
0.00075625,-0.158006281593884,-0.00322584883801991,,
0.000759375,-0.183521499472493,-0.00343530822806226,,
0.0007625,-0.20204740913318,-0.00348105473048266,,
0.000765625,-0.212685171545049,-0.00337952090867288,,
0.00076875,-0.215087203478469,-0.00314586880736289,,
0.000771875,-0.209001767619875,-0.00282877749746913,,
0.000775,-0.194682940717174,-0.00237187432049746,,
0.000778125,-0.173006947269292,-0.00181927700918294,,
0.00078125,-0.144730913299571,-0.00120056378609767,,
0.000784375,-0.110686826730292,-0.000538055843496199,,
0.0007875,-0.0725324958063867,0.000116194706636374,,
0.000790625,-0.0316348591029588,0.000761156179655664,,
0.00079375,0.00904754964102443,0.00136589173981339,,
0.000796875,0.0500224585696812,0.00198704028680385,,
0.0008,0.0896274160153705,0.0024992844376257,,
0.000803125,0.126255088801383,0.0029310689321016,,
0.00080625,0.157796902220293,0.00322136580607291,,
0.000809375,0.183265402304017,0.00340676756310199,,
0.0008125,0.201583740335832,0.0034744476419144,,
0.000815625,0.212334681745479,0.00337214054603496,,
0.00081875,0.214650225500203,0.00315259335528362,,
0.000821875,0.208572552310106,0.00282852300220604,,
0.000825,0.194536903300687,0.00239736887292086,,
0.000828125,0.172765099382715,0.00182128947941962,,
0.00083125,0.144712410500686,0.00120966297059155,,
0.000834375,0.110680730022613,0.000555756967892229,,
0.0008375,0.072750417659922,-0.000106236111214741,,
0.000840625,0.0324282109126247,-0.000782296905418978,,
0.00084375,-0.00841923429037938,-0.00136383032817999,,
0.000846875,-0.0495352890909908,-0.00196724447062469,,
0.00085,-0.0893874822114375,-0.00249771831292778,,
0.000853125,-0.125932991227688,-0.00293894458167543,,
0.00085625,-0.157882716925467,-0.00322173776068846,,
0.000859375,-0.183518734686453,-0.00340379779914368,,
0.0008625,-0.202116883243936,-0.00348410475833161,,
0.000865625,-0.212779103378469,-0.00337493020565294,,
0.00086875,-0.214939606439087,-0.00312549744035717,,
0.000871875,-0.208928607127732,-0.00282721724573909,,
0.000875,-0.194799841542314,-0.00236890847185123,,
0.000878125,-0.173210194489228,-0.00182177889338764,,
0.00088125,-0.144548508312861,-0.00120907958914174,,
0.000884375,-0.110707952531318,-0.000570010660297715,,
0.0008875,-0.0724418958946047,0.000124213265088713,,
0.000890625,-0.0318159880345732,0.000753343175069698,,
0.00089375,0.00917753003089329,0.0013723520041915,,
0.000896875,0.0498208418645887,0.00196598374024282,,
0.0009,0.0897006473994635,0.00250320757999356,,
0.000903125,0.12599792825366,0.00295348017652586,,
0.00090625,0.157735828805583,0.00324248891293344,,
0.000909375,0.183316905305511,0.00341343533900229,,
0.0009125,0.20159710346836,0.00345717720181016,,
0.000915625,0.212371616451299,0.00335601729227175,,
0.00091875,0.214698928269682,0.00317897472581707,,
0.000921875,0.208690764636317,0.00279722008481009,,
0.000925,0.194419967029572,0.00235640688145189,,
0.000928125,0.172935452737968,0.00180617637608638,,
0.00093125,0.144657823699377,0.00121086888660882,,
0.000934375,0.110829035981493,0.000566518202221644,,
0.0009375,0.0726272428972292,-0.000142867767894739,,
0.000940625,0.0322473655488093,-0.000796705252638308,,
0.00094375,-0.00860135570929026,-0.00135008758395738,,
0.000946875,-0.0494078253653381,-0.00195734068956721,,
0.00095,-0.0892826330177555,-0.002488159079304,,
0.000953125,-0.126122201841574,-0.00292289180352334,,
0.00095625,-0.158088445363645,-0.00323499892156631,,
0.000959375,-0.18345386855243,-0.00340667751093182,,
0.0009625,-0.201938873558111,-0.00345720460899202,,
0.000965625,-0.212470794289001,-0.00337960704553142,,
0.00096875,-0.215162278053256,-0.00315075315876401,,
0.000971875,-0.208993118802005,-0.00282242098885233,,
0.000975,-0.194774391332353,-0.0023551167862319,,
0.000978125,-0.173046079625554,-0.00182498357605043,,
0.00098125,-0.14476536678715,-0.00119283691837024,,
0.000984375,-0.110565176144519,-0.000545029013713005,,
0.0009875,-0.0725697140800061,0.000120595517036914,,
0.000990625,-0.0316510224675021,0.000763673725107328,,
0.00099375,0.00902025624037021,0.00136594263886636,,
0.000996875,0.0499455408042011,0.00198188382123643,,
0.001,0.0895576583368153,0.00253492160512225,,
0.001003125,0.126298581012555,0.00292339100577088,,
0.00100625,0.157796902220293,0.00322893801898649,,
0.001009375,0.18332154872822,0.0034061137060406,,
0.0010125,0.20178227324111,0.0034605365392868,,
0.001015625,0.212226429738209,0.00336136560811484,,
0.00101875,0.214524923979018,0.00317195065654774,,
0.001021875,0.208726104273267,0.00279884493918381,,
0.001025,0.194610772712327,0.00235416340782235,,
0.001028125,0.172761696569127,0.00181054586399299,,
0.00103125,0.144525078523468,0.00119193052370159,,
0.001034375,0.110746482306007,0.000566894072149271,,
0.0010375,0.0727907197333555,-0.000107761125139216,,
0.001040625,0.0323897520298846,-0.00076624216961152,,
0.00104375,-0.00841583147679132,-0.00136559417612103,,
0.001046875,-0.049576548205746,-0.00196465644956145,,
0.00105,-0.0894384535233086,-0.0024883822520736,,
0.001053125,-0.125940080422663,-0.00292863165054058,,
0.00105625,-0.15789051503994,-0.00325146280745159,,
0.001059375,-0.183441816920973,-0.00342458223153841,,
0.0010625,-0.202132763040681,-0.00343827407670849,,
0.001065625,-0.212910678837208,-0.00338856723645842,,
0.00106875,-0.214979022363149,-0.003177394897528,,
0.001071875,-0.208977309897211,-0.00280723936756377,,
0.001075,-0.194835500193039,-0.00234790282434316,,
0.001078125,-0.173235928266988,-0.00179876860626615,,
0.00108125,-0.144701138680675,-0.0012033397421245,,
0.001084375,-0.110717877404283,-0.000570163357455744,,
0.0010875,-0.0724028344302917,0.000128478997234005,,
0.001090625,-0.0318619260180119,0.00076725623535312,,
0.00109375,0.0091034124974284,0.00135411839739819,,
0.001096875,0.0498394510013984,0.00198042340995608,,
0.0011,0.0896683561163518,0.00250558808953416,,
0.001103125,0.126107137302252,0.00292402528627367,,
0.00110625,0.157807146107032,0.00322712131433711,,
0.001109375,0.183309461650787,0.00340705729617108,,
0.0011125,0.201627161655055,0.00346188732183839,,
0.001115625,0.212286617003548,0.00339950465981609,,
0.00111875,0.214546297901868,0.00316465251545628,,
0.001121875,0.208513322086089,0.00282954881388298,,
0.001125,0.194563629565743,0.00234192805862099,,
0.001128125,0.17293481471042,0.00181165781252846,,
0.00113125,0.144794964176171,0.00122861699474575,,
0.001134375,0.11075144474249,0.000552861594857568,,
0.0011375,0.0727507366736958,-0.000153542865365619,,
0.001140625,0.0322609768031616,-0.00075803371853933,,
0.00114375,-0.00853932525325795,-0.00137591102256707,,
0.001146875,-0.0494242722976804,-0.0019771462940259,,
0.00115,-0.0892807898270619,-0.0025327231575778,,
0.001153125,-0.126138648773917,-0.00292338709045925,,
0.00115625,-0.158073203594449,-0.00325113783657649,,
0.001159375,-0.183543617760815,-0.00343183143123316,,
0.0011625,-0.201985662244947,-0.00346116494682169,,
0.001165625,-0.212755850818951,-0.00335836256400679,,
0.00116875,-0.215047858446358,-0.00313675396162205,,
0.001171875,-0.208967668592045,-0.00283182556766226,,
0.001175,-0.194729162268412,-0.00235914172670526,,
0.001178125,-0.172962923368496,-0.00181705115445618,,
0.00118125,-0.144788335778869,-0.00120601194239001,,
0.001184375,-0.110600267659645,-0.000564834618171695,,
0.0011875,-0.0725690760524583,0.000131681722240984,,
