Time domain (s),Current (AC) (A),Potential (AC) (V),Frequency (Hz),Column 5
0,-0.043911374046138,-0.00804907519651232,0.0063096,0.3
0.386935186065678,-0.0395047632482664,-0.00788131866419306,,
0.773870372131355,-0.0352124175082988,-0.00772658408771409,,
1.16080555819703,-0.0308796910611397,-0.00755176301255034,,
1.54774074426271,-0.0265817026022633,-0.00739116591991973,,
1.93467593032839,-0.0221893749366296,-0.00724111160307528,,
2.32161111639407,-0.0178699176956547,-0.00705614842769009,,
2.70854630245974,-0.013496413787631,-0.00691635351411035,,
3.09548148852542,-0.00906952446868071,-0.00673223386622901,,
3.4824166745911,-0.00469531522079342,-0.00658060979742015,,
3.86935186065678,-0.000285221807345233,-0.00638663010382645,,
4.25628704672245,0.00403641757883275,-0.00620634718807578,,
4.64322223278813,0.00844776737891298,-0.00600423799816419,,
5.03015741885381,0.0128503224725689,-0.00586930522983664,,
5.41709260491949,0.0171996244065226,-0.00567317585911997,,
5.80402779098517,0.0215641131894146,-0.00549054951852312,,
6.19096297705084,0.0258333149651077,-0.00532996428799803,,
6.57789816311652,0.030250880572736,-0.00512682177689427,,
6.9648333491822,0.0345717925771796,-0.00492997408978724,,
7.35176853524788,0.0388828298235328,-0.00475469961859076,,
7.73870372131355,0.043199157118863,-0.00456198521625284,,
8.12563890737923,0.047560449830498,-0.00436657152590225,,
8.51257409344491,0.0518381597682959,-0.00417910808227573,,
8.89950927951059,0.0561488443447172,-0.00396747757566507,,
9.28644446557626,0.0603995529908614,-0.00378693105756911,,
9.67337965164194,0.0647578700499469,-0.00358351440002691,,
10.0603148377076,0.0689211385948748,-0.00338545414213343,,
10.4472500237733,0.0731230244973351,-0.00322276931893084,,
10.834185209839,0.0773092165878302,-0.003041515028539,,
11.2211203959047,0.0815890425452189,-0.00280676132423041,,
11.6080555819703,0.0857443760166813,-0.00262105083619746,,
11.994990768036,0.0898870354124695,-0.00243495548874062,,
12.3819259541017,0.0941054747598538,-0.00222046885072258,,
12.7688611401674,0.0981636476651046,-0.00204938038476321,,
13.155796326233,0.102245647832623,-0.00182796627712012,,
13.5427315122987,0.106361107559921,-0.00165905912056541,,
13.9296666983644,0.110342751089971,-0.00142092076214739,,
14.3166018844301,0.11434381350814,-0.00122612917333109,,
14.7035370704958,0.118341106766413,-0.00100764368774042,,
15.0904722565614,0.122345497507064,-0.000811178224033871,,
15.4774074426271,0.126330866113269,-0.000610680962461529,,
15.8643426286928,0.130121538875247,-0.000405610200204354,,
16.2512778147585,0.134027512663055,-0.000204965321318973,,
16.6382130008241,0.137822439506086,-2.22256317137237E-05,,
17.0251481868898,0.141612737556262,0.000188761685175454,,
17.4120833729555,0.145376982115226,0.00040646558981372,,
17.7990185590212,0.149209622599089,0.000607963222285068,,
18.1859537450869,0.152850917603079,0.000812371024644598,,
18.5728889311525,0.156549741889694,0.00101094794313417,,
18.9598241172182,0.160188766580997,0.00120995716946926,,
19.3467593032839,0.163743657451695,0.00143186816753271,,
19.7336944893496,0.167188383052446,0.00162106084254221,,
20.1206296754152,0.170882798964914,0.00182990770839053,,
20.5075648614809,0.174183591149748,0.00204321472591529,,
20.8945000475466,0.177637640461821,0.00223179584348454,,
21.2814352336123,0.180891373252631,0.00242836674812885,,
21.6683704196779,0.184439409101529,0.00261581437561498,,
22.0553056057436,0.187603211059729,0.00284597876309833,,
22.4422407918093,0.190901027592014,0.00304260238821197,,
22.829175977875,0.194161108441596,0.0032397057695932,,
23.2161111639407,0.197548503136558,0.00344026761373994,,
23.6030463500063,0.200315904091412,0.00363966433552232,,
23.989981536072,0.20357616127596,0.0038403685249353,,
24.3769167221377,0.20666766589814,0.00402630571098506,,
24.7638519082034,0.209633620024599,0.0042519704064401,,
25.150787094269,0.212401726319316,0.00442807786104726,,
25.5377222803347,0.215315661630834,0.00460713502589361,,
25.9246574664004,0.218092055668949,0.00480045307760157,,
26.3115926524661,0.220936338668936,0.00500762343253625,,
26.6985278385318,0.223610282091862,0.00519299914559079,,
27.0854630245974,0.226121997346159,0.00537400960381351,,
27.4723982106631,0.229016359476461,0.00557675143935299,,
27.8593333967288,0.231270625680543,0.00577453755080759,,
28.2462685827945,0.233955678206321,0.00594391787357162,,
28.6332037688601,0.236339374275373,0.00613034799600642,,
29.0201389549258,0.238766272411072,0.00631174858569938,,
29.4070741409915,0.241190525522282,0.0064891740520312,,
29.7940093270572,0.243182405297102,0.00665992247096536,,
30.1809445131229,0.245478462888102,0.0068303703832262,,
30.5678796991885,0.247700988798321,0.00700598226542448,,
30.9548148852542,0.249986818961299,0.00719323482717549,,
31.3417500713199,0.25198469412496,0.00739094712997357,,
31.7286852573856,0.253890346101454,0.00751995411758655,,
32.1156204434512,0.255835144440379,0.00772004938558313,,
32.5025556295169,0.25743291556641,0.00787000748757194,,
32.8894908155826,0.259532007000498,0.00805704916744698,,
33.2764260016483,0.26129324063992,0.00823319879842899,,
33.663361187714,0.262880255333031,0.00839734925066926,,
34.0502963737796,0.264538685687332,0.0085342300403255,,
34.4372315598453,0.266322313867423,0.00871422035747349,,
34.824166745911,0.267667573322283,0.00887343617381653,,
35.2111019319767,0.268914966871068,0.00904653856169091,,
35.5980371180423,0.270677963860149,0.00917772817672047,,
35.984972304108,0.271688715884695,0.00934019948202369,,
36.3719074901737,0.273141892338687,0.00948269763765053,,
36.7588426762394,0.27398882917991,0.00963504661290804,,
37.1457778623051,0.275621867299121,0.00978003844671838,,
37.5327130483707,0.276435653166756,0.00989201672284823,,
37.9196482344364,0.277483082864209,0.0100518335525379,,
38.3065834205021,0.278484841805494,0.0101811252306838,,
38.6935186065678,0.279203935796439,0.0103356410172166,,
39.0804537926334,0.279968700543553,0.010459288969157,,
39.4673889786991,0.280775785682482,0.0105750103985853,,
39.8543241647648,0.28139154738341,0.0107422687224723,,
40.2412593508305,0.281852839654207,0.0108482105049035,,
40.6281945368962,0.282582161073175,0.0109807708521266,,
41.0151297229618,0.283046451038393,0.0110988304343542,,
41.4020649090275,0.28320744486226,0.011212390324554,,
41.7890000950932,0.283846835448618,0.0113273631233226,,
42.1759352811589,0.284200210720284,0.0114456757638015,,
42.5628704672245,0.2840967020953,0.011584944790703,,
42.9498056532902,0.284297547621462,0.0116829943189267,,
43.3367408393559,0.284418866078002,0.0117840594579763,,
43.7236760254216,0.284026873448803,0.011885989212717,,
44.1106112114873,0.284196331351034,0.0119808649687077,,
44.4975463975529,0.284385186099515,0.0120894243224239,,
44.8844815836186,0.283819503528904,0.0121797661180811,,
45.2714167696843,0.283641581548309,0.0122645643564248,,
45.65835195575,0.283340754096482,0.0123428015324025,,
46.0452871418156,0.283166887820103,0.0124776842162846,,
46.4322223278813,0.282454670892828,0.0125237487260628,,
46.819157513947,0.282189639439078,0.0126230319132605,,
47.2060927000127,0.281428225056317,0.0126883710265004,,
47.5930278860784,0.280822690783412,0.0127740444246292,,
47.979963072144,0.2798655445885,0.0128520153622387,,
48.3668982582097,0.279192121353724,0.0129076090967861,,
48.7538334442754,0.278363876018885,0.0129708921117357,,
49.1407686303411,0.277343954576113,0.0130153565552797,,
49.5277038164067,0.276314687380147,0.013089083495136,,
49.9146390024724,0.275135182793234,0.0131243403087717,,
50.3015741885381,0.274518363082512,0.0132257428588227,,
50.6885093746038,0.273014931163238,0.0132657471506907,,
51.0754445606695,0.271776530697713,0.0133020188333544,,
51.4623797467351,0.270861528559652,0.0133586089847655,,
51.8493149328008,0.268993259595928,0.0133855913207936,,
52.2362501188665,0.26780881762997,0.013430108484807,,
52.6231853049322,0.2662583042748,0.0134846399019044,,
53.0101204909978,0.264822584982433,0.0134979702724882,,
53.3970556770635,0.263074047460556,0.013542044584562,,
53.7839908631292,0.261144237593733,0.0135798135285445,,
54.1709260491949,0.259583496810541,0.0136370389616074,,
54.5578612352606,0.25783689897329,0.0136399781277534,,
54.9447964213262,0.255943061439511,0.0136290439024855,,
55.3317316073919,0.254163841633567,0.0136466841714089,,
55.7186667934576,0.25217055117902,0.0136488272584732,,
56.1056019795233,0.250035311076922,0.0136614880791006,,
56.4925371655889,0.247918057141346,0.0136646934836149,,
56.8794723516546,0.245460653056546,0.0136871629474977,,
57.2664075377203,0.243409701068149,0.0136839601790069,,
57.653342723786,0.240988798321291,0.0136734477174905,,
58.0402779098517,0.238829576663831,0.0136513341167737,,
58.4272130959173,0.236363884835634,0.0136822283116005,,
58.814148281983,0.233951446167139,0.013646497013744,,
59.2010834680487,0.231583796579983,0.0136488483466608,,
59.5880186541144,0.228852544293139,0.0135955980369595,,
59.97495384018,0.226263241653846,0.0135794313051445,,
60.3618890262457,0.223595117284794,0.0135586620763868,,
60.7488242123114,0.221147587958085,0.013552704663391,,
61.1357593983771,0.218187805555433,0.0135039909500465,,
61.5226945844428,0.215391662001137,0.013444361463598,,
61.9096297705084,0.212566599512434,0.0134348296028048,,
62.2965649565741,0.209640320753303,0.0133813947714621,,
62.6835001426398,0.206668900242901,0.0133205553502505,,
63.0704353287055,0.203643344897968,0.0132861394280952,,
63.4573705147711,0.200683562495316,0.0132221262346501,,
63.8443057008368,0.197430358709404,0.0131756795014719,,
64.2312408869025,0.194318046561248,0.0131197852602511,,
64.6181760729682,0.191051264982962,0.0130818265225798,,
65.0051112590339,0.187963110725133,0.0129861309632964,,
65.3920464450995,0.184671113246723,0.0129540031094955,,
65.7789816311652,0.18133448098007,0.0128867159749264,,
66.1659168172309,0.17771469884192,0.0128005074640374,,
66.5528520032966,0.1745018757632,0.0127112938864165,,
66.9397871893622,0.171063542304963,0.0126571315126016,,
67.3267223754279,0.167505256986171,0.0125298643004652,,
67.7136575614936,0.164021054394929,0.0124751193654684,,
68.1005927475593,0.1602265022637,0.0123937743178435,,
68.4875279336249,0.156781446034888,0.0123160511664384,,
68.8744631196906,0.152962383343399,0.0122180253624258,,
69.2613983057563,0.149373283489316,0.0121016238389475,,
69.648333491822,0.145587702399478,0.0120076364228598,,
70.0352686778877,0.141769345047853,0.0119120647566784,,
70.4222038639533,0.138020662049629,0.0118017313591809,,
70.809139050019,0.134176714086078,0.0116824275738852,,
71.1960742360847,0.130360296419078,0.0116102400717235,,
71.5830094221504,0.126546876446498,0.0114827408895235,,
71.9699446082161,0.12253243461279,0.011385144757333,,
72.3568797942817,0.118611626645977,0.0112427467705971,,
72.7438149803474,0.114605825225599,0.0111136554302336,,
73.1307501664131,0.110638817497719,0.0109962785780793,,
73.5176853524788,0.106512909923691,0.010881347955686,,
73.9046205385444,0.102396215851632,0.0107695673813142,,
74.2915557246101,0.0983204094497908,0.0106257696661269,,
74.6784909106758,0.0942794953293276,0.0105165012221025,,
75.0654260967415,0.0901146618115773,0.0103630424809729,,
75.4523612828071,0.0859663817387509,0.0101937702351704,,
75.8392964688728,0.0817341662221556,0.0100950854252955,,
76.2262316549385,0.0775017743705944,0.00992643264500348,,
76.6131668410042,0.0733132899255426,0.0098242181997299,,
77.0001020270699,0.0692612887440983,0.00965433176046382,,
77.3870372131355,0.0648774251568279,0.00951017291006373,,
77.7739723992012,0.0606529463368615,0.00938769271651108,,
78.1609075852669,0.0563431654771404,0.0092075257857922,,
78.5478427713326,0.0521202957137378,0.00907208690096262,,
78.9347779573982,0.0477794578581473,0.00892627262783607,,
79.3217131434639,0.0434070340017898,0.00876016361017307,,
79.7086483295296,0.0391120652792044,0.00858784939330981,,
80.0955835155953,0.0347952089789765,0.00840962257584943,,
80.482518701661,0.0305032159089406,0.00826138579717295,,
80.8694538877266,0.0260987431725305,0.00809125684374967,,
81.2563890737923,0.0217822175003637,0.00792019473802474,,
81.643324259858,0.0174151057348539,0.00775310511963845,,
82.0302594459237,0.0130509916637645,0.00757591162337024,,
82.4171946319893,0.00865952363108962,0.00741106789696255,,
82.804129818055,0.00429933301299148,0.007247579086608,,
83.1910650041207,-5.88077111280585E-05,0.00703845807432124,,
83.5780001901864,-0.00448917964565489,0.00690227319485537,,
83.9649353762521,-0.00886413831714725,0.00670173243889627,,
84.3518705623177,-0.0132664289083543,0.00651995226182622,,
84.7388057483834,-0.01762564968414,0.00636349899805788,,
85.1257409344491,-0.0219978751636609,0.00616043029561064,,
85.5126761205148,-0.026280522480504,0.00595404811168754,,
85.8996113065804,-0.0306649591564135,0.00577509638777896,,
86.2865464926461,-0.0350006392142514,0.00560423989188319,,
86.6734816787118,-0.0393490594733756,0.00541641794906766,,
87.0604168647775,-0.0436831966002619,0.00524080606686894,,
87.4473520508432,-0.0479974078760013,0.00504497061276687,,
87.8342872369088,-0.052323433594456,0.0048332583894295,,
88.2212224229745,-0.0566515753325016,0.00466737606978285,,
88.6081576090402,-0.0608878465533127,0.00442451132132016,,
88.9950927951059,-0.0651946958442257,0.00423674737101987,,
89.3820279811715,-0.0693540409361623,0.00406865079167584,,
89.7689631672372,-0.0736659157736035,0.00386355762321955,,
90.1558983533029,-0.0778315207568297,0.0036481945074045,,
90.5428335393686,-0.0819789191548265,0.00345720933644911,,
90.9297687254343,-0.0862361742365798,0.00326325336706645,,
91.3167039114999,-0.0904140785836775,0.00306387246142492,,
91.7036390975656,-0.0944592027014517,0.0028385161807134,,
92.0905742836313,-0.0986055871733946,0.00266290429851512,,
92.477509469697,-0.102680820486596,0.0024791602839751,,
92.8644446557626,-0.106689222847722,0.00224923577462555,,
93.2513798418283,-0.11075749092977,0.00205152610785087,,
93.638315027894,-0.114716563584185,0.00186019034577711,,
94.0252502139597,-0.118836585978725,0.00164437119790506,,
94.4121854000254,-0.122778465973964,0.00144530134303089,,
94.799120586091,-0.126663257523993,0.00127040645921062,,
95.1860557721567,-0.130477338752695,0.00104810532967647,,
95.5729909582224,-0.134419042412968,0.000828556208623876,,
95.9599261442881,-0.138306478987485,0.000604378230394165,,
96.3468613303537,-0.142074580873828,0.000419814412561337,,
96.7337965164194,-0.145892100634365,0.000173493837356542,,
97.1207317024851,-0.149546422383961,-2.47654403073838E-06,,
97.5076668885508,-0.153301784069018,-0.000207928211676034,,
97.8946020746165,-0.156889892038917,-0.000352276855764888,,
98.2815372606821,-0.160467552162087,-0.000623502580519464,,
98.6684724467478,-0.164108296119308,-0.000816385688358068,,
99.0554076328135,-0.167712847324778,-0.00101468846040875,,
99.4423428188792,-0.171208467605063,-0.00122405198685316,,
99.8292780049448,-0.174710303692895,-0.00141685074194164,,
100.216213191011,-0.177994145679132,-0.00163054789093664,,
100.603148377076,-0.18149584951574,-0.00183548421599777,,
100.990083563142,-0.18476933182273,-0.002069887329188,,
101.377018749208,-0.188109645081797,-0.00226597715955279,,
101.763953935273,-0.191326391613509,-0.00244408799198093,,
102.150889121339,-0.194464095996755,-0.00266898296858908,,
102.537824307405,-0.197617097438294,-0.00285196517235198,,
102.92475949347,-0.200924039305064,-0.00304560613693239,,
103.311694679536,-0.203943158423742,-0.00325147034224793,,
103.698629865602,-0.207000762648728,-0.00344271911554772,,
104.085565051667,-0.20992858433881,-0.00367448884131205,,
104.472500237733,-0.212832865310945,-0.00385560474047297,,
104.859435423799,-0.21571594200343,-0.00404127568815404,,
105.246370609864,-0.218578916509802,-0.00423345234170824,,
105.63330579593,-0.22122182497873,-0.00441279551509943,,
106.020240981996,-0.224076511741705,-0.00462138009661439,,
106.407176168061,-0.226695835408943,-0.00479665456781131,,
106.794111354127,-0.229322124307334,-0.00498846217808246,,
107.181046540193,-0.231803686282462,-0.00519541110704713,,
107.567981726258,-0.234497202886603,-0.00536867165632859,,
107.954916912324,-0.236901177476735,-0.00557494444527862,,
108.34185209839,-0.239121763702329,-0.00573571156142183,,
108.728787284455,-0.2414014221415,-0.00591607882992262,,
109.115722470521,-0.244117156951345,-0.00611637443570112,,
109.502657656587,-0.246199981484829,-0.00629737566784172,,
109.889592842652,-0.2484987722678,-0.00644481241340156,,
110.276528028718,-0.250438985897611,-0.0066205837750184,,
110.663463214784,-0.252425928293386,-0.00680003238934734,,
111.050398400849,-0.254457615686759,-0.00700279531307446,,
111.437333586915,-0.256291146662199,-0.00715037044986522,,
111.824268772981,-0.258388254327921,-0.00733182507803898,,
112.211203959047,-0.260151119065777,-0.00750893290354471,,
112.598139145112,-0.261876027702223,-0.00765254346106747,,
112.985074331178,-0.263472917153425,-0.00785596011861012,,
113.372009517244,-0.265135403211941,-0.00801133920282249,,
113.758944703309,-0.266836859297922,-0.00815430525261185,,
114.145879889375,-0.268100828333502,-0.00830787866076177,,
114.532815075441,-0.269747091575156,-0.00846743320611809,,
114.919750261506,-0.271101476364502,-0.0086384992658779,,
115.306685447572,-0.272601469751941,-0.0087727690743078,,
115.693620633638,-0.273566683271543,-0.00892313839595493,,
116.080555819703,-0.274448358101049,-0.009080487907696,,
116.467491005769,-0.27562063295436,-0.00921244724157244,,
116.854426191835,-0.276936973474813,-0.00937732523628476,,
117.2413613779,-0.277784968325832,-0.00950613188611582,,
117.628296563966,-0.278726244373812,-0.00967505749483477,,
118.015231750032,-0.279523278419686,-0.0097941965286652,,
118.402166936097,-0.280291217196186,-0.00991962906848087,,
118.789102122163,-0.28128398305421,-0.0100762418116678,,
119.176037308229,-0.282118929117752,-0.0101765570020458,,
119.562972494294,-0.28253243461279,-0.0103080194455023,,
119.94990768036,-0.282761493733496,-0.0104473715071425,,
120.336842866426,-0.283253336037136,-0.0105559756732574,,
120.723778052491,-0.28375813896077,-0.0106706848696811,,
121.110713238557,-0.284070119599191,-0.0108133161444921,,
121.497648424623,-0.284325055876142,-0.0109065878802137,,
121.884583610688,-0.284594672039005,-0.0110171637918688,,
122.271518796754,-0.284833473666577,-0.0111234060809728,,
122.65845398282,-0.284725027662548,-0.0112305762503313,,
123.045389168886,-0.28491754136157,-0.0113254836386032,,
123.432324354951,-0.284523785382713,-0.0114477529502794,,
123.819259541017,-0.284787979245375,-0.0115125885830407,,
124.206194727083,-0.284313814522066,-0.0116312518146384,,
124.593129913148,-0.284192628316751,-0.0117290166523296,,
124.980065099214,-0.283716700243783,-0.0118338882092401,,
125.36700028528,-0.283523657539863,-0.0118909950212478,,
125.753935471345,-0.282735396158543,-0.0119661638659303,,
126.140870657411,-0.282281862626245,-0.0120716891566564,,
126.527805843477,-0.28176537751112,-0.0121149410294139,,
126.914741029542,-0.280766263594324,-0.0122138129969538,,
127.301676215608,-0.280315198751548,-0.0122945069467866,,
127.688611401674,-0.279267724970354,-0.0123491358967516,,
128.075546587739,-0.278446753452859,-0.0124347012179187,,
128.462481773805,-0.27756260993383,-0.0124935794376841,,
128.849416959871,-0.27648449795231,-0.0125529637739521,,
129.236352145936,-0.275589950670293,-0.0125985775237205,,
129.623287332002,-0.274401982005017,-0.0126584152560216,,
130.010222518068,-0.273562803902293,-0.0127088687448431,,
130.397157704133,-0.271894146119969,-0.012737611944535,,
130.784092890199,-0.270693260918441,-0.0127846702351535,,
131.171028076265,-0.269366560718741,-0.012813350170283,,
131.55796326233,-0.267620095132714,-0.0128743793851833,,
131.944898448396,-0.26623379371454,-0.0128865999898946,,
132.331833634462,-0.264418072570655,-0.01294214627602,,
132.718768820527,-0.263007789597119,-0.0129614630558574,,
133.105704006593,-0.261161033499235,-0.0129928633671863,,
133.492639192659,-0.25932498975053,-0.0130083210086935,,
133.879574378724,-0.257582976622392,-0.013056887104725,,
