Time domain (s),Current (AC) (A),Potential (AC) (V),Frequency (Hz),Column 5
0,0.159276493748425,0.00331985738383889,5.0119,0.3
0.00048712189987829,0.163058631635569,0.00339801012212071,,
0.000974243799756579,0.166536182072605,0.00349385268708513,,
0.00146136569963487,0.170169406247616,0.00357787678111787,,
0.00194848759951316,0.173601374796113,0.00365586766971049,,
0.00243560949939145,0.176985830020116,0.00374048406473415,,
0.00292273139926974,0.180387668167714,0.00384662991204854,,
0.00340985329914803,0.183624561684753,0.00390766446297652,,
0.00389697519902632,0.186913603972577,0.00397949817615384,,
0.00438409709890461,0.190244751564222,0.00408825083654918,,
0.0048712189987829,0.193102697346883,0.00416742288351291,,
0.00535834089866119,0.196551083100998,0.00423210766147664,,
0.00584546279853948,0.199725422236043,0.00433516803386258,,
0.00633258469841777,0.202783440640696,0.00439230441780492,,
0.00681970659829606,0.20573061876448,0.00444866943301525,,
0.00730682849817434,0.208790592748037,0.00454075157541034,,
0.00779395039805263,0.211673647198114,0.00459901746356772,,
0.00828107229793092,0.214493736836057,0.00470232233229284,,
0.00876819419780921,0.217386448465909,0.00474498177806648,,
0.0092553160976875,0.220279160095761,0.00483016981241846,,
0.00974243799756579,0.223074141066288,0.00490741343755197,,
0.0102295598974441,0.22554290250401,0.00498617569487658,,
0.0107166817973224,0.228017651393193,0.00501597325576464,,
0.0112038036972007,0.230788875701473,0.00508093007895072,,
0.011690925597079,0.233056574656277,0.00514740553432835,,
0.0121780474969572,0.235799793143209,0.00522260021126675,,
0.0126651693968355,0.237946584207228,0.00529597666190851,,
0.0131522912967138,0.240326499591018,0.00534344338781612,,
0.0136394131965921,0.242689225194809,0.00539939516977705,,
0.0141265350964704,0.244764166841301,0.00544355602969038,,
0.0146136569963487,0.247213420775877,0.00553670913492299,,
0.015100778896227,0.249239110805515,0.00556458860481213,,
0.0155879007961053,0.251214197213131,0.00563671158126411,,
0.0160750226959836,0.253431485689508,0.00564812026255623,,
0.0165621445958618,0.255037281542522,0.00575345341781341,,
0.0170492664957401,0.257198172089012,0.00579001422954928,,
0.0175363883956184,0.258924875832811,0.00582300401728819,,
0.0180235102954967,0.260557132358409,0.00587538477525307,,
0.018510632195375,0.262355685519735,0.00593686010831318,,
0.0189977540952533,0.264065006339939,0.00599793942617666,,
0.0194848759951316,0.265573071533628,0.00600658633191919,,
0.0199719978950099,0.266915033235184,0.00605468668214249,,
0.0204591197948882,0.26866163076932,0.00611519780428793,,
0.0209462416947665,0.269768343571553,0.00615894543095141,,
0.0214333635946447,0.271195674742322,0.00618991037576899,,
0.021920485494523,0.272459992718486,0.00621645372481838,,
0.0224076073944013,0.273617309142742,0.00624250119396841,,
0.0228947292942796,0.274655649112167,0.00628336996232859,,
0.0233818511941579,0.275861637722489,0.00630564323446814,,
0.0238689730940362,0.276720547291692,0.00636063080551397,,
0.0243560949939145,0.277789403949207,0.00639424044312698,,
0.0248432168937928,0.278620693984253,0.00641426503766818,,
0.0253303387936711,0.279241843787391,0.00642397946263795,,
0.0258174606935494,0.279871298765136,0.00647513773890651,,
0.0263045825934276,0.280675548696812,0.00648035825228988,,
0.0267917044933059,0.28155357948197,0.00650474934483247,,
0.0272788263931842,0.281826491382416,0.0065183722676192,,
0.0277659482930625,0.282241750112748,0.00652596198496536,,
0.0282530701929408,0.282829099786673,0.00653348627371386,,
0.0287401920928191,0.283216352695657,0.00655435455280573,,
0.0292273139926974,0.28311012371813,0.00657197206366922,,
0.0297144358925757,0.283502398360597,0.00657202716143557,,
0.030201557792454,0.283889071838795,0.00659362548593467,,
0.0306886796923322,0.283846000816997,0.00662256558783048,,
0.0311758015922105,0.284062321643961,0.00663664306719136,,
0.0316629234920888,0.283675841309359,0.00662975584636882,,
0.0321500453919671,0.283735715823965,0.00663131235827485,,
0.0326371672918454,0.283365073264194,0.00662631223595778,,
0.0331242891917237,0.283109351143748,0.00663529317191003,,
0.033611411091602,0.283001770161053,0.00663765204504152,,
0.0340985329914803,0.282559085040159,0.00663564097656177,,
0.0345856548913586,0.281880764732752,0.00663580626986127,,
0.0350727767912369,0.281620600309609,0.00664578929644355,,
0.0355598986911151,0.281016640286471,0.00662161859496724,,
0.0360470205909934,0.280078734986707,0.00662163236940883,,
0.0365341424908717,0.279751936023115,0.00660509615221461,,
0.03702126439075,0.278970090748518,0.00660087084223981,,
0.0375083862906283,0.277876511710779,0.00660089839112299,,
0.0379955081905066,0.27712479683708,0.00656030511159589,,
0.0384826300903849,0.27614980796698,0.00653840374938097,,
0.0389697519902632,0.275002535009691,0.00650119553888828,,
0.0394568738901415,0.273857193488357,0.00648986261702467,,
0.0399439957900198,0.272882397761852,0.00650212187008892,,
0.040431117689898,0.271448306565241,0.0064601752516702,,
0.0409182395897763,0.27030064732076,0.0064300402169617,,
0.0414053614896546,0.268887801919654,0.00641644139944786,,
0.0418924833895329,0.267460470748885,0.00640375513869307,,
0.0423796052894112,0.265901415645983,0.00636174653528698,,
0.0428667271892895,0.264538015005326,0.00633495180267785,,
0.0433538490891678,0.262934536875458,0.0063019379096656,,
0.0438409709890461,0.261108364179975,0.00625002203910663,,
0.0443280928889244,0.25924703935011,0.00624098600538758,,
0.0448152147888026,0.257383589940695,0.00619178369983242,,
0.0453023366886809,0.255664418797121,0.00616789881802049,,
0.0457894585885592,0.253793823074672,0.00610518378521219,,
0.0462765804884375,0.251744762669978,0.00607238683965594,,
0.0467637023883158,0.249726798384161,0.00604128415042204,,
0.0472508242881941,0.247637757255198,0.00599137934834326,,
0.0477379461880724,0.245294539154553,0.00595640604100733,,
0.0482250680879507,0.24317111846559,0.00592365386238658,,
0.048712189987829,0.24095827229191,0.00585869359558977,,
0.0491993118877073,0.238716647722499,0.00582825207955517,,
0.0496864337875855,0.23612060465534,0.00576397709123011,,
0.0501735556874638,0.233873572065256,0.00569228112246911,,
0.0506606775873421,0.231306500537422,0.00564908102986106,,
0.0511477994872204,0.228643050355433,0.00560814683290323,,
0.0516349213870987,0.226413400688943,0.00555814560973289,,
0.052122043286977,0.223854827479312,0.00549175280100522,,
0.0526091651868553,0.220827494763394,0.0054256217066686,,
0.0530962870867336,0.218086980286799,0.00535130859399535,,
0.0535834089866119,0.215419087802113,0.00533917331090628,,
0.0540705308864902,0.212469591955183,0.00526317971635226,,
0.0545576527863684,0.209566257427578,0.00516878346776073,,
0.0550447746862467,0.206656935448513,0.00512108257634525,,
0.055531896586125,0.203648530804955,0.00506568177205002,,
0.0560190184860033,0.200507629654881,0.00500563898092032,,
0.0565061403858816,0.197437032773571,0.00492191792460384,,
0.0569932622857599,0.194290144172037,0.00485285287419712,,
0.0574803841856382,0.191069861004212,0.00478256189848381,,
0.0579675060855165,0.187807496675516,0.00471921324135982,,
0.0584546279853948,0.18453484745036,0.00463667678702429,,
0.058941749885273,0.181236727413547,0.00459022936979814,,
0.0594288717851513,0.177955410869542,0.00450211426659708,,
0.0599159936850296,0.174478633006888,0.00443719532312503,,
0.0604031155849079,0.171078726295245,0.00436905316030867,,
0.0608902374847862,0.167372300697538,0.00428080375630113,,
0.0613773593846645,0.163942456728592,0.00418415883011125,,
0.0618644812845428,0.160361381324366,0.004109628769982,,
0.0623516031844211,0.15674940294486,0.00402246065964373,,
0.0628387250842994,0.153148626893894,0.00395021371321702,,
0.0633258469841776,0.149429646962479,0.00386738799560726,,
0.0638129688840559,0.145678025763424,0.00378917327233808,,
0.0643000907839342,0.141911532507516,0.00370483580975733,,
0.0647872126838125,0.138042093715204,0.00365213479602478,,
0.0652743345836908,0.134286609644239,0.00351972108849363,,
0.0657614564835691,0.130414684128135,0.00344527023140406,,
0.0662485783834474,0.126615332318042,0.00337007555446522,,
0.0667357002833257,0.122633266666602,0.00328063810486601,,
0.067222822183204,0.11877930350488,0.00317812871014578,,
0.0677099440830823,0.11466109576156,0.00311208026245913,,
0.0681970659829605,0.110724853428154,0.00301019071761299,,
0.0686841878828388,0.106732768452698,0.00290572190856908,,
0.0691713097827171,0.102675376799012,0.00279952440709863,,
0.0696584316825954,0.0985759039844558,0.00271450855326716,,
0.0701455535824737,0.0944163635116982,0.00263522286716,,
0.070632675482352,0.0902967796202604,0.00255039985551164,,
0.0711197973822303,0.0862460031347206,0.00246008084164684,,
0.0716069192821086,0.0820329618860086,0.00237799894388591,,
0.0720940411819869,0.0777501716563705,0.00225673220325628,,
0.0725811630818652,0.0735972222088095,0.00215173996542939,,
0.0730682849817434,0.069412766212232,0.00205208188012973,,
0.0735554068816217,0.0652066781329581,0.00196948688441756,,
0.0740425287815,0.0608789095885172,0.0018760961700659,,
0.0745296506813783,0.0567075873564339,0.00179069807547894,,
0.0750167725812566,0.052371875781628,0.00168731744732487,,
0.0755038944811349,0.0480688537603609,0.00158187754014483,,
0.0759910163810132,0.0437304623181674,0.00147135142038746,,
0.0764781382808915,0.039431665313052,0.00137496132136805,,
0.0769652601807698,0.0351170305331053,0.00127747615423779,,
0.0774523820806481,0.0307697544855186,0.00115839266260842,,
0.0779395039805263,0.0264385093563586,0.00107995066105193,,
0.0784266258804046,0.0220885292984349,0.00099100564774135,,
0.0789137477802829,0.0177400943892751,0.000893059036815913,,
0.0794008696801612,0.0134395590918002,0.00076831769328134,,
0.0798879915800395,0.00908784074151689,0.000679100634748409,,
0.0803751134799178,0.00467605473303209,0.000591977291345192,,
0.0808622353797961,0.000317576356906188,0.000480294118489599,,
0.0813493572796744,-0.00404220573848937,0.000364092928774706,,
0.0818364791795527,-0.00846833265894028,0.000282975241928884,,
0.0823236010794309,-0.0128100075422574,0.000180021621465354,,
0.0828107229793092,-0.0171207311643951,7.0959036132745E-05,,
0.0832978448791875,-0.021492826164004,-1.80789546586624E-05,,
0.0837849667790658,-0.0258694117522084,-0.000150754376580853,,
0.0842720886789441,-0.0302036988929975,-0.000259627563341081,,
0.0847592105788224,-0.0345761318938985,-0.000355110271017089,,
0.0852463324787007,-0.038875653187497,-0.000446670706435004,,
0.085733454378579,-0.0431557152638486,-0.000538656427738538,,
0.0862205762784573,-0.0475113447719409,-0.00065235066907432,,
0.0867076981783356,-0.051821923536382,-0.000766954023558419,,
0.0871948200782138,-0.0561014061819471,-0.000854299479832843,,
0.0876819419780921,-0.0604616228504325,-0.000959536213998913,,
0.0881690638779704,-0.0646723463759984,-0.00104382030061778,,
0.0886561857778487,-0.0688786275988678,-0.00113599714229906,,
0.089143307677727,-0.073077955652299,-0.00122908654073983,,
0.0896304295776053,-0.0773215135891005,-0.00134281005276371,,
0.0901175514774836,-0.0814634779946673,-0.00142869197461382,,
0.0906046733773619,-0.085695302458042,-0.00154979686555423,,
0.0910917952772402,-0.0898835730406307,-0.00163607996801707,,
0.0915789171771185,-0.0940035190763101,-0.00172212890497159,,
0.0920660390769967,-0.0980337016259794,-0.00184629344376264,,
0.092553160976875,-0.102200533269467,-0.00193338751647687,,
0.0930402828767533,-0.106149112650036,-0.00205220585010446,,
0.0935274047766316,-0.110260801797008,-0.00211439745413067,,
0.0940145266765099,-0.114233379269318,-0.00223509083362705,,
0.0945016485763882,-0.118182200079382,-0.00232138598872611,,
0.0949887704762665,-0.122186501387254,-0.00240675997804018,,
0.0954758923761448,-0.125973033291196,-0.00251859466975413,,
0.0959630142760231,-0.129897711151821,-0.00259443674544979,,
0.0964501361759014,-0.133838806218065,-0.00269179622079996,,
0.0969372580757796,-0.137732001672624,-0.00277955146671349,,
0.0974243799756579,-0.1414440284346,-0.00285923661162846,,
0.0979115018755362,-0.145180005002419,-0.00295983135896005,,
0.0983986237754145,-0.148865184804621,-0.00306167958048142,,
0.0988857456752928,-0.152696188021427,-0.00313041404428871,,
0.0993728675751711,-0.156222024357339,-0.00324468681217338,,
0.0998599894750494,-0.159872245168754,-0.0033535737733752,,
0.100347111374928,-0.163427246187587,-0.00342229446274045,,
0.100834233274806,-0.167031691966868,-0.00348587728537275,,
0.101321355174684,-0.17050339981014,-0.00357122372580365,,
0.101808477074563,-0.174044542775995,-0.0036576032493576,,
0.102295598974441,-0.177594135774153,-0.00375588389049319,,
0.102782720874319,-0.180740251801305,-0.00386438344552342,,
0.103269842774197,-0.184076421126433,-0.00393978646089188,,
0.103756964674076,-0.187398297825493,-0.00400591927703342,,
0.104244086573954,-0.190942289659382,-0.00409761401325737,,
0.104731208473832,-0.194017328843389,-0.00418315329587138,,
0.105218330373711,-0.197155912270316,-0.00424264510933492,,
0.105705452273589,-0.200179575257919,-0.00432367842772585,,
0.106192574173467,-0.203354469680801,-0.0044153077353517,,
0.106679696073345,-0.206273207410147,-0.00447969119740455,,
0.107166817973224,-0.209304885856964,-0.00454595831435212,,
0.107653939873102,-0.212245448812601,-0.00462087750245788,,
0.10814106177298,-0.215168483986947,-0.00469370297543348,,
0.108628183672859,-0.217940818870902,-0.00476088092733518,,
0.109115305572737,-0.220664722998284,-0.00487811520017356,,
0.109602427472615,-0.223394324861733,-0.00492054048043933,,
0.110089549372493,-0.226179407222991,-0.00498627211596814,,
0.110576671272372,-0.228760771376892,-0.00505489638424228,,
0.11106379317225,-0.231316206003096,-0.00512251511827611,,
0.111550915072128,-0.233658120384472,-0.0051484386174514,,
0.112038036972007,-0.236292599027136,-0.00525528696128985,,
0.112525158871885,-0.238613798757894,-0.00530880066707962,,
0.113012280771763,-0.240879566276742,-0.00536519323117313,,
0.113499402671641,-0.243132538032388,-0.00543122790441819,,
0.11398652457152,-0.245611729224268,-0.00547303505661523,,
0.114473646471398,-0.247667791084298,-0.00551293789225493,,
0.114960768371276,-0.249718782924947,-0.005576562038212,,
0.115447890271155,-0.251817674377281,-0.00562922172861979,,
0.115935012171033,-0.253738680578156,-0.00568190896791076,,
0.116422134070911,-0.255781367244198,-0.00576286136145709,,
0.11690925597079,-0.257618500838726,-0.00577990034577169,,
0.117396377870668,-0.259531201864995,-0.00584854011029234,,
0.117883499770546,-0.261267031643681,-0.00590159925950795,,
0.118370621670424,-0.262848491403661,-0.00595630961991578,,
0.118857743570303,-0.26454429217218,-0.00597972617071196,,
0.119344865470181,-0.265969691906994,-0.00603687632909589,,
0.119831987370059,-0.267549220231019,-0.00607162924536553,,
0.120319109269938,-0.268857381803362,-0.00608147797114178,,
0.120806231169816,-0.270633144020419,-0.0061191786179231,,
0.121293353069694,-0.271711802715406,-0.0061787668524782,,
0.121780474969572,-0.27309422800022,-0.00621343712209832,,
0.122267596869451,-0.274054924244253,-0.00627273781518412,,
0.122754718769329,-0.275252366250474,-0.00628337168413395,,
0.123241840669207,-0.276297852532933,-0.00630837057391398,,
0.123728962569086,-0.277433343730897,-0.00634620896511207,,
0.124216084468964,-0.278178684865944,-0.00636923983154203,,
0.124703206368842,-0.27921528654301,-0.0063991441443525,,
0.12519032826872,-0.279957344236933,-0.0064183870393304,,
0.125677450168599,-0.28057038200906,-0.00644308461319953,,
0.126164572068477,-0.281393753156691,-0.00647936649249159,,
0.126651693968355,-0.282088683813311,-0.00650028986934981,,
0.127138815868234,-0.282516448591452,-0.00652692963949075,,
0.127625937768112,-0.282902590924762,-0.00652516651096047,,
0.12811305966799,-0.283371350431048,-0.00655924447958967,,
0.128600181567868,-0.283640978890371,-0.00657457543313988,,
0.129087303467747,-0.284006165143568,-0.00659662831421315,,
0.129574425367625,-0.284152374845364,-0.00657863889342547,,
0.130061547267503,-0.283980863332558,-0.00660917683055162,,
0.130548669167382,-0.284100226074579,-0.00659172461298763,,
0.13103579106726,-0.284507227916203,-0.00659383038075445,,
0.131522912967138,-0.284039047840703,-0.00661917707518578,,
0.132010034867016,-0.28408598173441,-0.00662401190420292,,
0.132497156766895,-0.283696797389471,-0.00662045809825873,,
0.132984278666773,-0.283730549232785,-0.00660985177819207,,
0.133471400566651,-0.283100563110153,-0.00661851418018156,,
0.13395852246653,-0.282852759877122,-0.00661000329705042,,
0.134445644366408,-0.282170914699097,-0.00661139279385115,,
0.134932766266286,-0.281853241770393,-0.00661802002208756,,
0.135419888166165,-0.281047060402762,-0.00660680762658883,,
0.135907010066043,-0.280569609434678,-0.0065670683624437,,
0.136394131965921,-0.279626296114241,-0.00659887354820121,,
0.136881253865799,-0.279212582532673,-0.00657801904355138,,
0.137368375765678,-0.278198385512685,-0.00655485043270465,,
0.137855497665556,-0.277356472579887,-0.00654520660174818,,
0.138342619565434,-0.276355843897483,-0.00655476778605513,,
0.138829741465313,-0.275222622136767,-0.00650942232416041,,
0.139316863365191,-0.273978632524029,-0.00649691513114714,,
0.139803985265069,-0.272834981009156,-0.00647665292748778,,
0.140291107164947,-0.271738070244394,-0.00642904845716341,,
0.140778229064826,-0.270081477625763,-0.00640618288403294,,
0.141265350964704,-0.269112331349427,-0.00637339971291873,,
0.141752472864582,-0.267648496039108,-0.00639687136148126,,
0.142239594764461,-0.266010831492836,-0.00636081159506041,,
0.142726716664339,-0.264374132664541,-0.00634732469488508,,
0.143213838564217,-0.262691465660517,-0.00629246109381398,,
0.143700960464095,-0.260747475371777,-0.00624230662998038,,
0.144188082363974,-0.259160173018033,-0.00619109325594502,,
0.144675204263852,-0.257666641879905,-0.00616594284730709,,
0.14516232616373,-0.255442931378978,-0.00614623162131345,,
0.145649448063609,-0.25354824099299,-0.00612325585265028,,
0.146136569963487,-0.251559103388801,-0.00608275899421473,,
0.146623691863365,-0.249443939588546,-0.00601142116093634,,
0.147110813763243,-0.247498838724132,-0.00598366566102237,,
0.147597935663122,-0.245370541159383,-0.00591626731805439,,
0.148085057563,-0.24299371607312,-0.00588037284493348,,
0.148572179462878,-0.240658803147082,-0.00582705025952146,,
0.149059301362757,-0.238252233947111,-0.0057854772728323,,
0.149546423262635,-0.235881830885399,-0.00573688104270964,,
0.150033545162513,-0.233490423457676,-0.00572335626281983,,
0.150520667062392,-0.230810024925181,-0.00566836869177401,,
0.15100778896227,-0.228622866849702,-0.00559855982151847,,
0.151494910862148,-0.225972985005297,-0.0055467954698174,,
0.151982032762026,-0.223174527450051,-0.00548756537074535,,
0.152469154661905,-0.220205862101267,-0.00542344534488892,,
0.152956276561783,-0.217559601699277,-0.00538367853186061,,
0.153443398461661,-0.214724495146784,-0.00531399190977444,,
0.15393052036154,-0.211859547908786,-0.00524535558886408,,
0.154417642261418,-0.208977024603597,-0.00518629078309152,,
0.154904764161296,-0.206020044442341,-0.00510902993990614,,
0.155391886061174,-0.20294133553002,-0.00506011689762564,,
0.155879007961053,-0.199688459380453,-0.00499109317054369,,
0.156366129860931,-0.196585752376391,-0.00494832352923691,,
0.156853251760809,-0.193499124576653,-0.00484796294741319,,
0.157340373660688,-0.19043123170568,-0.00476961392333797,,
0.157827495560566,-0.187080431753193,-0.00469375807320027,,
0.158314617460444,-0.183749429019246,-0.00463443155303622,,
0.158801739360322,-0.180302008983109,-0.00454287283942367,,
0.159288861260201,-0.177190465659552,-0.00448197775471737,,
0.159775983160079,-0.173594325054877,-0.00441664385619145,,
0.160263105059957,-0.170003930472169,-0.00433951903561702,,
0.160750226959836,-0.166701609562153,-0.00426242520753695,,
0.161237348859714,-0.163219809966016,-0.00418156923508217,,
0.161724470759592,-0.159458531587186,-0.00411707729930155,,
0.16221159265947,-0.155737958221109,-0.00401364501699097,,
