Time domain (s),Current (AC) (A),Potential (AC) (V),Frequency (Hz),Column 5
0,-0.437232608391575,-0.00957042022552379,12.589,0.5
0.000232718047501787,-0.43973958869748,-0.00961168018210046,,
0.000465436095003575,-0.442326295289709,-0.00966357758382141,,
0.000698154142505362,-0.444595160699537,-0.00975679078645397,,
0.000930872190007149,-0.446689323401878,-0.00982639624672998,,
0.00116359023750894,-0.448754830036893,-0.00989774729283921,,
0.00139630828501072,-0.450570376322258,-0.00997304707387769,,
0.00162902633251251,-0.45249260262064,-0.0100446701359425,,
0.0018617443800143,-0.453787516395668,-0.0100742424135865,,
0.00209446242751609,-0.455272170220445,-0.0100898500045652,,
0.00232718047501787,-0.456197817939776,-0.0101705991118632,,
0.00255989852251966,-0.457184820852765,-0.0102156925118377,,
0.00279261657002145,-0.458085146255177,-0.0102649526197922,,
0.00302533461752323,-0.458859924035886,-0.0102905599496359,,
0.00325805266502502,-0.459533270687198,-0.0103004173755172,,
0.00349077071252681,-0.460033120455637,-0.0103509438888798,,
0.0037234887600286,-0.460445157819744,-0.0103722007648668,,
0.00395620680753038,-0.459994817791389,-0.0103989772228896,,
0.00418892485503217,-0.460293294849086,-0.0104107639804814,,
0.00442164290253396,-0.460339328977044,-0.0104233181473248,,
0.00465436095003575,-0.45995169182868,-0.0104240243079508,,
0.00488707899753753,-0.459549939439232,-0.010437109896694,,
0.00511979704503932,-0.458659118772022,-0.0104384627707503,,
0.00535251509254111,-0.458005703692292,-0.0104565653425124,,
0.0055852331400429,-0.457094667730062,-0.0104515483594936,,
0.00581795118754468,-0.455907852585245,-0.0104696509312556,,
0.00605066923504647,-0.454553002233755,-0.0104102181471406,,
0.00628338728254826,-0.453016285157945,-0.0103883127562927,,
0.00651610533005004,-0.451482476247383,-0.0104263589614493,,
0.00674882337755183,-0.449813898703355,-0.010385704285409,,
0.00698154142505362,-0.448018851436449,-0.0103570831628939,,
0.00721425947255541,-0.445587625288724,-0.0103454819526094,,
0.00744697752005719,-0.443409480448476,-0.0103048416880109,,
0.00767969556755898,-0.441497751917332,-0.010288902633881,,
0.00791241361506077,-0.438665908273915,-0.0102357100038688,,
0.00814513166256256,-0.43630015130971,-0.0101888872309326,,
0.00837784971006434,-0.433673510643459,-0.0101620531271442,,
0.00861056775756613,-0.430676823682055,-0.0100746189124918,,
0.00884328580506792,-0.427455144033622,-0.0100510688159003,,
0.0090760038525697,-0.424340711845085,-0.0100067968680824,,
0.00930872190007149,-0.420848927482843,-0.0099219711243137,,
0.00954143994757328,-0.417443962492896,-0.00986261219883522,,
0.00977415799507507,-0.413710729484171,-0.00978745653221047,,
0.0100068760425769,-0.409774066769772,-0.0097218844740814,,
0.0102395940900786,-0.405705472656295,-0.00966360640670416,,
0.0104723121375804,-0.401970891961235,-0.00959547992059617,,
0.0107050301850822,-0.397552324985906,-0.00951611611309788,,
0.010937748232584,-0.393268384782323,-0.00942649316079081,,
0.0111704662800858,-0.388893440285721,-0.00934083335485436,,
0.0114031843275876,-0.384019639052716,-0.00930359238898326,,
0.0116359023750894,-0.379608874471955,-0.00918311454075216,,
0.0118686204225912,-0.374996098802715,-0.00910540624757861,,
0.0121013384700929,-0.37004654341153,-0.00896956400144155,,
0.0123340565175947,-0.364657216690088,-0.00891063561777328,,
0.0125667745650965,-0.359465574274682,-0.00878639638335077,,
0.0127994926125983,-0.354118876999931,-0.00866000624130692,,
0.0130322106601001,-0.348421710347309,-0.00855816058530712,,
0.0132649287076019,-0.343022169582067,-0.00843203165063766,,
0.0134976467551037,-0.337444450497211,-0.0083361379199145,,
0.0137303648026054,-0.331345247731702,-0.0082462105259089,,
0.0139630828501072,-0.325594244556553,-0.00811005122806208,,
0.014195800897609,-0.319536961929138,-0.00797714891595946,,
0.0144285189451108,-0.313379028411781,-0.00785126677722348,,
0.0146612369926126,-0.307127749883035,-0.00774924638249752,,
0.0148939550401144,-0.300537421844832,-0.00759146992262982,,
0.0151266730876162,-0.294208970540712,-0.00746417366121133,,
0.015359391135118,-0.287568990900706,-0.00733393746575839,,
0.0155921091826197,-0.281086690561855,-0.00719175418542806,,
0.0158248272301215,-0.274174194558809,-0.00705743955207394,,
0.0160575452776233,-0.267241057675584,-0.00688996599360969,,
0.0162902633251251,-0.260417508970626,-0.0067469450482518,,
0.0165229813726269,-0.253353930236378,-0.00661810676260899,,
0.0167556994201287,-0.246022232852394,-0.0064711677066347,,
0.0169884174676305,-0.239080371473424,-0.00629807188461529,,
0.0172211355151323,-0.231724273873696,-0.00615588860428495,,
0.017453853562634,-0.224417260428893,-0.00600409289257664,,
0.0176865716101358,-0.216978953962751,-0.00583308672955285,,
0.0179192896576376,-0.209480356265848,-0.00568031103983246,,
0.0181520077051394,-0.20184649341946,-0.00550989574590366,,
0.0183847257526412,-0.194208658444929,-0.00533785195910275,,
0.018617443800143,-0.186478826145342,-0.00520113061504324,,
0.0188501618476448,-0.178674232719611,-0.00502277461693224,,
0.0190828798951466,-0.170886591769353,-0.00482774458118262,,
0.0193155979426483,-0.163164490933476,-0.00468675745048452,,
0.0195483159901501,-0.155041205155028,-0.00446600479336068,,
0.0197810340376519,-0.147006441089509,-0.0043198115294758,,
0.0200137520851537,-0.138965435108336,-0.00412090661743392,,
0.0202464701326555,-0.130886126462914,-0.00395980111461514,,
0.0204791881801573,-0.122681412057508,-0.00377967250921873,,
0.0207119062276591,-0.114500459490109,-0.00359488900826666,,
0.0209446242751609,-0.106313974315652,-0.00343445904176098,,
0.0211773423226626,-0.0980335057520671,-0.00326679813455977,,
0.0214100603701644,-0.0896676364333807,-0.00306763201514348,,
0.0216427784176662,-0.0812308362549754,-0.00284934191305997,,
0.021875496465168,-0.0729324931147415,-0.00267868342605837,,
0.0221082145126698,-0.0645609493272775,-0.00252705704878586,,
0.0223409325601716,-0.056081306909602,-0.00232097523895325,,
0.0225736506076734,-0.0477174236549878,-0.00213610526935293,,
0.0228063686551752,-0.039192669210531,-0.00192381032686972,,
0.0230390867026769,-0.0307572876493201,-0.00173085553867391,,
0.0232718047501787,-0.0222660125706507,-0.00156484834436732,,
0.0235045227976805,-0.0138419799469948,-0.00137160712877504,,
0.0237372408451823,-0.0053305605041652,-0.00117196543179432,,
0.0239699588926841,0.00319107298246391,-0.000997125825371814,,
0.0242026769401859,0.0116721340173338,-0.000820484788781162,,
0.0244353949876877,0.0202017117602514,-0.000609312137292761,,
0.0246681130351895,0.0287088753514979,-0.000417367951421443,,
0.0249008310826912,0.0371439731892699,-0.000198213162856842,,
0.025133549130193,0.0455943920927413,-3.68194312114767E-05,,
0.0253662671776948,0.0540873695120439,0.000140758349067127,,
0.0255989852251966,0.0623757823319173,0.000341625018561942,,
0.0258317032726984,0.0707810892086074,0.000526469768139748,,
0.0260644213202002,0.0793030064186754,0.000765350217048155,,
0.026297139367702,0.0876450429684962,0.000963190483860288,,
0.0265298574152038,0.0959334203229397,0.0011471525326554,,
0.0267625754627055,0.10415944945169,0.00130730327748463,,
0.0269952935102073,0.112490385321965,0.00150774480946003,,
0.0272280115577091,0.120656265081674,0.00169683372851459,,
0.0274607296052109,0.128848814844637,0.00187628499616777,,
0.0276934476527127,0.136996465373398,0.00207217971839846,,
0.0279261657002145,0.145010553093309,0.00225416739972895,,
0.0281588837477163,0.15301180232761,0.00244983153889766,,
0.0283916017952181,0.161091394696471,0.00263395211354744,,
0.0286243198427198,0.168900031181206,0.00282974595568852,,
0.0288570378902216,0.176777896185026,0.00301584089780294,,
0.0290897559377234,0.1845817093713,0.00319613883763559,,
0.0293224739852252,0.192256180134876,0.0033891873002001,,
0.029555192032727,0.200010341719347,0.00355835960731277,,
0.0297879100802288,0.207602178031351,0.00373081051733193,,
0.0300206281277306,0.215035732129892,0.00394733882071074,,
0.0302533461752323,0.22267186476379,0.00408423310206629,,
0.0304860642227341,0.229917345687787,0.00429625062430361,,
0.0307187822702359,0.237286494565703,0.00446808184234504,,
0.0309515003177377,0.244522789943366,0.00462937469390123,,
0.0311842183652395,0.251598887974354,0.00478510472909743,,
0.0314169364127413,0.258644343873943,0.00495814290535135,,
0.0316496544602431,0.265568578934272,0.00514854686842847,,
0.0318823725077449,0.272471570202116,0.00530038941732158,,
0.0321150905552466,0.279311858589968,0.00547964973337711,,
0.0323478086027484,0.285918678053056,0.00562181860226563,,
0.0325805266502502,0.292459567282034,0.00575444709698258,,
0.032813244697752,0.298972474286854,0.00594362608754517,,
0.0330459627452538,0.305528471788953,0.00612235318027077,,
0.0332786807927556,0.311570929866687,0.00630330684068481,,
0.0335113988402574,0.317709002743322,0.00641411641320211,,
0.0337441168877592,0.32391204828746,0.00655929727333238,,
0.0339768349352609,0.329671066649757,0.00672827142312649,,
0.0342095529827627,0.335596914394113,0.0068509416118725,,
0.0344422710302645,0.341375225950254,0.00701543380340786,,
0.0346749890777663,0.346903293433306,0.00717767781009293,,
0.0349077071252681,0.352477324113457,0.00730119827387865,,
0.0351404251727699,0.357792315293913,0.00742275878164067,,
0.0353731432202717,0.363077799236727,0.00757219101696816,,
0.0356058612677735,0.368319022323076,0.00771430224009162,,
0.0358385793152752,0.373055785135105,0.00784926538830666,,
0.036071297362777,0.377982926374619,0.00796582512592181,,
0.0363040154102788,0.382717703122575,0.00808772069969521,,
0.0365367334577806,0.38717528207075,0.00821342809970504,,
0.0367694515052824,0.391960561590826,0.00832945821685049,,
0.0370021695527842,0.396002769424487,0.00844033624371443,,
0.037234887600286,0.400546316574641,0.00856998157007238,,
0.0374676056477878,0.404605831538073,0.00864371050400381,,
0.0377003236952895,0.408453121369227,0.00874750170458549,,
0.0379330417427913,0.412064920746113,0.00888769620600938,,
0.0381657597902931,0.416181747844198,0.00898191820953675,,
0.0383984778377949,0.419490246864927,0.0090596138926986,,
0.0386311958852967,0.422907979409623,0.00918935649628594,,
0.0388639139327985,0.425900126796005,0.00927475869770866,,
0.0390966319803003,0.429527247238591,0.00933971106385956,,
0.0393293500278021,0.432026850735085,0.00944151348553524,,
0.0395620680753038,0.434782656496884,0.00953214704016681,,
0.0397947861228056,0.437848855700813,0.00959270391670719,,
0.0400275041703074,0.439863575840268,0.00969093230092843,,
0.0402602222178092,0.442432691579287,0.00974516255471736,,
0.040492940265311,0.444779651865666,0.00979737520671797,,
0.0407256583128128,0.446678329118622,0.00986623307347401,,
0.0409583763603146,0.448859878640136,0.0099612008690908,,
0.0411910944078163,0.450585484595378,0.0100233754299222,,
0.0414238124553181,0.451888058903256,0.0100484693521676,,
0.0416565305028199,0.453509822079869,0.0101363178957592,,
0.0418892485503217,0.454721604887307,0.0101564939136449,,
0.0421219665978235,0.455952964612027,0.0102006505699324,,
0.0423546846453253,0.456786827798882,0.0102449369291917,,
0.0425874026928271,0.457543801933802,0.0102745668526012,,
0.0428201207403289,0.458728347291108,0.0103155674032336,,
0.0430528387878307,0.459301184914198,0.010353282145239,,
0.0432855568353324,0.459508870471455,0.0103855061280909,,
0.0435182748828342,0.459611578356328,0.0104060136091277,,
0.043750992930336,0.459708328048984,0.0103888639939247,,
0.0439837109778378,0.459618103995422,0.0104538740058415,,
0.0442164290253396,0.459309980340803,0.0104354705952412,,
0.0444491470728414,0.459104564571057,0.0104641061291977,,
0.0446818651203432,0.458792185064855,0.0104600421027379,,
0.0449145831678449,0.457681691525096,0.0104708795066308,,
0.0451473012153467,0.456858893552356,0.0104801748862995,,
0.0453800192628485,0.456056807390655,0.0104569436428483,,
0.0456127373103503,0.455075691739023,0.0104753182305659,,
0.0458454553578521,0.453795815306255,0.0104612670752524,,
0.0460781734053539,0.452168093937426,0.0104417683951099,,
0.0463108914528557,0.450342901055139,0.010441696337903,,
0.0465436095003575,0.448672053723601,0.0103943115187541,,
0.0467763275478592,0.447025890331244,0.0103500395709357,,
0.047009045595361,0.444797810165754,0.0103321837951067,,
0.0472417636428628,0.44246475232788,0.010300291275406,,
0.0474744816903646,0.439901878504516,0.0102708054664098,,
0.0477071997378664,0.437352055959341,0.0102458448499965,,
0.0479399177853682,0.434822945225204,0.0102295779355761,,
0.04817263583287,0.43220474533126,0.0101542889631188,,
0.0484053538803718,0.429103648144349,0.0100939338467576,,
0.0486380719278735,0.425957722654097,0.0100750116242687,,
0.0488707899753753,0.422757038540141,0.010000464841041,,
0.0491035080228771,0.41933051056884,0.00992276915787871,,
0.0493362260703789,0.415751055663985,0.00986692121979837,,
0.0495689441178807,0.412342402269334,0.00978924355093769,,
0.0498016621653825,0.408247705599481,0.00975444352294508,,
0.0500343802128843,0.404383676085434,0.00967017982538865,,
0.0502670982603861,0.400389984959821,0.00957213878990482,,
0.0504998163078878,0.396306069780645,0.00950421766683629,,
0.0507325343553896,0.391346016622221,0.0094367721213322,,
0.0509652524028914,0.387205073031832,0.00933463823650538,,
0.0511979704503932,0.382679967905205,0.00922548597974293,,
0.051430688497895,0.377666574740272,0.00916776815714826,,
0.0516634065453968,0.373030817472484,0.00905812951424023,,
0.0518961245928986,0.3680608339937,0.00891629931422289,,
0.0521288426404004,0.363009705611397,0.00884717123294143,,
0.0523615606879021,0.357550015477114,0.00876253283791062,,
0.0525942787354039,0.352186507588609,0.00862542238493447,,
0.0528269967829057,0.346727668624642,0.00851144229532075,,
0.0530597148304075,0.341254076041854,0.00842756770668096,,
0.0532924328779093,0.335205376048465,0.00830727900861739,,
0.0535251509254111,0.329496009287971,0.00816935791206586,,
0.0537578689729129,0.323607896760985,0.00805501393355801,,
0.0539905870204146,0.317563452619179,0.00795009864055185,,
0.0542233050679164,0.311357853564091,0.00782613142208444,,
0.0544560231154182,0.305171831426286,0.00770365218493607,,
0.05468874116292,0.298762518942086,0.00756054657236005,,
0.0549214592104218,0.292125943983347,0.00744767976659011,,
0.0551541772579236,0.285827602829177,0.00730179274583387,,
0.0553868953054254,0.279161201443925,0.00714372445427935,,
0.0556196133529272,0.272280908051192,0.00698259012857783,,
0.0558523314004289,0.265375398737828,0.00685930024785408,,
0.0560850494479307,0.258537912118935,0.0067338774738106,,
0.0563177674954325,0.251392053587413,0.0065421620695707,,
0.0565504855429343,0.244147175575725,0.00640209727111873,,
0.0567832035904361,0.236993089064476,0.00627125579512899,,
0.0570159216379379,0.22968437327904,0.00609942817994824,,
0.0572486396854397,0.222434388245451,0.00593271662644534,,
0.0574813577329415,0.214825209338246,0.00578997129990277,,
0.0577140757804432,0.207383143536539,0.00562059362975109,,
0.057946793827945,0.199849115875206,0.00547097404568619,,
0.0581795118754468,0.192200854064296,0.00530982891140352,,
0.0584122299229486,0.184308483699663,0.00511473402416796,,
0.0586449479704504,0.176460409656924,0.00493299494020061,,
0.0588776660179522,0.168666243067572,0.00477168767720348,,
0.059110384065454,0.160725391460322,0.00458997381325821,,
0.0593431021129558,0.152786206728274,0.00442792075817122,,
0.0595758201604575,0.144730801782578,0.00423585587647857,,
0.0598085382079593,0.136671070054438,0.00410145477447621,,
0.0600412562554611,0.1285327114683,0.00391802594901103,,
0.0602739743029629,0.120362611322438,0.00370861689765745,,
0.0605066923504647,0.112210669476664,0.00353533372690018,,
0.0607394103979665,0.103854446754899,0.00335815946697959,,
0.0609721284454683,0.0956636347979988,0.00318759645577726,,
0.0612048464929701,0.0872946445214848,0.00297579150229943,,
0.0614375645404718,0.078971014529761,0.00279655640626642,,
0.0616702825879736,0.0705121193885533,0.00260900951143617,,
0.0619030006354754,0.0621584501777386,0.00243060667614081,,
0.0621357186829772,0.0537880412840301,0.00224939721264317,,
0.062368436730479,0.0453447154665307,0.00205769621984464,,
0.0626011547779808,0.0368304587893124,0.00184093373054361,,
0.0628338728254826,0.0284529213442022,0.00164652338677174,,
0.0630665908729844,0.020001970459283,0.00149661917674004,,
0.0632993089204861,0.0115385002776234,0.00130975682537393,,
0.0635320269679879,0.00305999275370337,0.00112400775785204,,
0.0637647450154897,-0.00548455140061494,0.000917491803348991,,
0.0639974630629915,-0.0140264001822639,0.000721683549766539,,
0.0642301811104933,-0.0225383870719713,0.000517642760314629,,
0.0644628991579951,-0.0310441320460233,0.000343613797467945,,
0.0646956172054969,-0.0394703635263305,0.000166425126105985,,
0.0649283352529987,-0.0480527847597387,-7.57303228482442E-05,,
0.0651610533005004,-0.0564385147191464,-0.00023829318267321,,
0.0653937713480022,-0.0647694860548511,-0.00043144792961769,,
0.065626489395504,-0.0732287003849276,-0.000646855743431818,,
0.0658592074430058,-0.0815168294813621,-0.000825370267397929,,
0.0660919254905076,-0.0899443377171442,-0.00101600301210647,,
0.0663246435380094,-0.098241475032763,-0.00121324160124248,,
0.0665573615855112,-0.106685155504561,-0.00141001361996462,,
0.066790079633013,-0.114844119505447,-0.00156975003585558,,
0.0670227976805147,-0.12289051623196,-0.00177057347102672,,
0.0672555157280165,-0.131109984256186,-0.00197903316868153,,
0.0674882337755183,-0.139240859636624,-0.00213640971105145,,
0.0677209518230201,-0.147329885809828,-0.002335473148948,,
0.0679536698705219,-0.155357202135076,-0.00254838778340938,,
0.0681863879180237,-0.163331036592096,-0.00271407612457653,,
0.0684191059655255,-0.171227556412022,-0.00294777205746,,
0.0686518240130272,-0.178967602755409,-0.00310596644912664,,
0.068884542060529,-0.186780778815165,-0.00326632255699533,,
0.0691172601080308,-0.194525861249592,-0.00345602035944648,,
0.0693499781555326,-0.202112058558248,-0.00364093356337047,,
0.0695826962030344,-0.209789614814222,-0.00380457547986612,,
0.0698154142505362,-0.217289276474021,-0.00396618538313209,,
0.070048132298038,-0.224582954917197,-0.00418273170081296,,
0.0702808503455398,-0.232066940856998,-0.00432887812751304,,
0.0705135683930415,-0.239222233192862,-0.0045434356662879,,
0.0707462864405433,-0.246594503028606,-0.00470088066300445,,
0.0709790044880451,-0.253595946329739,-0.00487368825619683,,
0.0712117225355469,-0.260598808248067,-0.0050336120208252,,
0.0714444405830487,-0.267476477198991,-0.0052036382058378,,
0.0716771586305505,-0.274232854379796,-0.00534545939870368,,
0.0719098766780523,-0.281180390227543,-0.0055474087277303,,
0.0721425947255541,-0.287837393273882,-0.00568802116095313,,
0.0723753127730558,-0.294460916954433,-0.00585470209014316,,
0.0726080308205576,-0.300666232286082,-0.00600693194652191,,
0.0728407488680594,-0.307340258738753,-0.00618972666856799,,
0.0730734669155612,-0.313521741301536,-0.00629824302048121,,
0.073306184963063,-0.319746349827028,-0.00645958090779164,,
0.0735389030105648,-0.325696597787127,-0.00660524995549716,,
0.0737716210580666,-0.331594427841895,-0.00677792784571762,,
0.0740043391055684,-0.337581772641627,-0.00688447523445657,,
0.0742370571530701,-0.343055648947854,-0.00707187981630364,,
0.0744697752005719,-0.348667202052796,-0.00721146723576105,,
0.0747024932480737,-0.354282869147601,-0.00734323284542704,,
0.0749352112955755,-0.359649497993933,-0.00749071953617264,,
0.0751679293430773,-0.365013573329316,-0.00759213104750156,,
0.0754006473905791,-0.369949013479417,-0.00776874506264003,,
0.0756333654380809,-0.374733087174878,-0.00784627861708698,,
0.0758660834855827,-0.379808899496362,-0.00797324341535477,,
0.0760988015330844,-0.38451558762387,-0.00811899893170853,,
0.0763315195805862,-0.389060837114657,-0.00824155563035411,,
0.076564237628088,-0.393592964396397,-0.00835021969954086,,
0.0767969556755898,-0.397673262101727,-0.00845885134298463,,
0.0770296737230916,-0.401860807266952,-0.00859306329481946,,
0.0772623917705934,-0.405879962571204,-0.00867927433838789,,
