Time domain (s),Current (AC) (A),Potential (AC) (V),Frequency (Hz),Column 5
0,0.0818615710879489,0.00172806258201907,630.96,0.3
4.95277038164067E-05,0.0280697035921812,0.000872113936001728,,
9.90554076328135E-05,-0.0263514498806855,2.81477353065718E-05,,
0.00014858311144922,-0.0815089633114083,-0.000874454522046264,,
0.000198110815265627,-0.132731417413247,-0.00169940240236199,,
0.000247638519082034,-0.17886820750189,-0.00248291428655323,,
0.00029716622289844,-0.217793402021634,-0.00317403372476743,,
0.000346693926714847,-0.248266584516257,-0.00370962841996603,,
0.000396221630531254,-0.269277179408189,-0.00413019135773185,,
0.000445749334347661,-0.280336967973895,-0.00439054979208597,,
0.000495277038164067,-0.28016449074311,-0.00448471673544448,,
0.000544804741980474,-0.269332225332907,-0.00438523194671259,,
0.000594332445796881,-0.247803281316544,-0.00411685227598735,,
0.000643860149613288,-0.21733912828501,-0.00371941003679455,,
0.000693387853429694,-0.178267965492965,-0.00316647834689698,,
0.000742915557246101,-0.132457539794824,-0.00247398109687369,,
0.000792443261062508,-0.0814867035120266,-0.0017153926424851,,
0.000841970964878915,-0.0275614462206144,-0.000890717218807957,,
0.000891498668695321,0.0267642460301748,-1.31287396065716E-07,,
0.000941026372511728,0.0814515030917461,0.000867619107313367,,
0.000990554076328135,0.132765700401449,0.00172310471821469,,
0.00104008178014454,0.178749907049645,0.00251149541143469,,
0.00108960948396095,0.217776308813432,0.00316406999961583,,
0.00113913718777736,0.248356154858672,0.00374814927122769,,
0.00118866489159376,0.26910190159527,0.00415756266220324,,
0.00123819259541017,0.279958309954911,0.00439972155778534,,
0.00128772029922658,0.279555991845477,0.00450173327596204,,
0.00133724800304298,0.268900259681564,0.00439083354226355,,
0.00138677570685939,0.247877738172611,0.00413734722664527,,
0.0014363034106758,0.217289393809168,0.0037287017963501,,
0.0014858311144922,0.178626102004927,0.00317820951096692,,
0.00153535881830861,0.132725550676534,0.00247426061197409,,
0.00158488652212502,0.0818399148623031,0.00170443649755692,,
0.00163441422594142,0.0281384627121803,0.000877116973963865,,
0.00168394192975783,-0.0263991563487748,1.85835191119921E-05,,
0.00173346963357424,-0.0814801849156784,-0.000890852741281201,,
0.00178299733739064,-0.132703411591899,-0.00171889505139688,,
0.00183252504120705,-0.178870332081441,-0.00249386760809633,,
0.00188205274502346,-0.217763271620736,-0.00317220417138175,,
0.00193158044883986,-0.248334812491369,-0.0037112885702606,,
0.00198110815265627,-0.269514166599871,-0.00416592270475791,,
0.00203063585647268,-0.280126489740695,-0.00439968767716747,,
0.00208016356028908,-0.280043775995921,-0.00447640469043309,,
0.00212969126410549,-0.269145841763246,-0.00440008295104732,,
0.0021792189679219,-0.248029452466878,-0.00414076211062708,,
0.0022287466717383,-0.21745467644102,-0.0037481633881522,,
0.00227827437555471,-0.178264826909538,-0.00316794650702157,,
0.00232780207937112,-0.132326202149881,-0.00246910228784536,,
0.00237732978318752,-0.0814483162224203,-0.00170251941924127,,
0.00242685748700393,-0.0275120014601656,-0.00087394772446503,,
0.00247638519082034,0.0266889200279286,-2.17471218415533E-05,,
0.00252591289463674,0.0814163509573645,0.000863361442952737,,
0.00257544059845315,0.132797375951111,0.00170780197230336,,
0.00262496830226956,0.178615092819983,0.00247290256385924,,
0.00267449600608596,0.217716048011635,0.00315799407540895,,
0.00272402370990237,0.248202991987438,0.00375432683728949,,
0.00277355141371878,0.269030438464933,0.00412440483047272,,
0.00282307911753518,0.279847638674687,0.00441228844377273,,
0.00287260682135159,0.279544982660534,0.00447496758754173,,
0.002922134525168,0.268820298233026,0.00439620644364158,,
0.0029716622289844,0.247862479828566,0.00415385838127413,,
0.00302118993280081,0.217385772463324,0.00371326352796597,,
0.00307071763661722,0.178509443273243,0.00317123010360687,,
0.00312024534043362,0.132732286559427,0.00248887162859601,,
0.00316977304425003,0.0818468921746906,0.00172111705527733,,
0.00321930074806644,0.0281566182101576,0.000875074255021424,,
0.00326882845188285,-0.0264721646278751,2.47893190197246E-06,,
0.00331835615569925,-0.081341894101298,-0.000886201214733262,,
0.00336788385951566,-0.132633300466732,-0.00169216324359489,,
0.00341741156333207,-0.178838125386891,-0.00249284130770189,,
0.00346693926714847,-0.21784941366433,-0.00316310299030365,,
0.00351646697096488,-0.248310669541931,-0.00373758275341007,,
0.00356599467478129,-0.26946781213695,-0.00414260154585966,,
0.00361552237859769,-0.280142472373223,-0.00438376378658845,,
0.0036650500824141,-0.280098821920639,-0.00447221478730908,,
0.00371457778623051,-0.269270998813133,-0.00438491572760924,,
0.00376410549004691,-0.248122354536315,-0.00412319924513982,,
0.00381363319386332,-0.217410398271751,-0.00373235384465964,,
0.00386316089767973,-0.178184092886618,-0.00313224762892172,,
0.00391268860149613,-0.132448848333026,-0.00247831781601038,,
0.00396221630531254,-0.0813789776716347,-0.00172923993350382,,
0.00401174400912895,-0.0275546861947718,-0.00087211675938681,,
0.00406127171294535,0.0266497118780414,-1.25414755238751E-05,,
0.00411079941676176,0.0813157231441073,0.000887269865900375,,
0.00416032712057817,0.132873498670689,0.00170030306213009,,
0.00420985482439457,0.17867535362178,0.0024790603662268,,
0.00425938252821098,0.217602093290288,0.00317950826799995,,
0.00430891023202739,0.248174793022494,0.00373885468828705,,
0.00435843793584379,0.268911075722912,0.00414499295283122,,
0.0044079656396602,0.279785639580531,0.00440866321761968,,
0.00445749334347661,0.2798084305248,0.00447694395693965,,
0.00450702104729301,0.269092630702685,0.00441939208006659,,
0.00455654875110942,0.247886815921599,0.00413353001032224,,
0.00460607645492583,0.217283213214112,0.00372795642274859,,
0.00465560415874223,0.178470814554142,0.00318513245063023,,
0.00470513186255864,0.132632431320552,0.00249699450682206,,
0.00475465956637505,0.0819162065825269,0.00168998076710203,,
0.00480418727019145,0.0281094911728548,0.000890285240924715,,
0.00485371497400786,-0.0264020535027074,1.35677759178776E-05,,
0.00490324267782427,-0.0813561867273653,-0.000890028312903635,,
0.00495277038164067,-0.132810171714314,-0.00171520206400722,,
0.00500229808545708,-0.178633731176949,-0.00246624502237269,,
0.00505182578927349,-0.217907356742981,-0.00316685103369796,,
0.00510135349308989,-0.248701205892039,-0.0037342045734321,,
0.0051508811969063,-0.269383987816502,-0.00412749079011876,,
0.00520040890072271,-0.28018168052311,-0.00438839272605751,,
0.00524993660453911,-0.280038947406033,-0.00448480849545208,,
0.00529946430835552,-0.269286836587964,-0.00439711133848775,,
0.00534899201217193,-0.247902943411824,-0.00414113338573552,,
0.00539851971598833,-0.217427974338942,-0.00372166874467794,,
0.00544804741980474,-0.178168061968191,-0.00316731406881399,,
0.00549757512362115,-0.132448268902239,-0.00249384502101746,,
0.00554710282743756,-0.0814087217853421,-0.00172163938147563,,
0.00559663053125396,-0.0275610599334234,-0.000861218493848792,,
0.00564615823507037,0.0267292870393887,-1.43046793654733E-05,,
0.00569568593888678,0.0813719037874493,0.000885259615884149,,
0.00574521364270318,0.132709302471562,0.00172112834881677,,
0.00579474134651959,0.178810578281582,0.00248090121315192,,
0.005844269050336,0.21772956806332,0.00317003298842833,,
0.0058937967541524,0.248093479568788,0.00373403234695546,,
0.00594332445796881,0.269106537041562,0.00413392246081701,,
0.00599285216178522,0.279805340227272,0.00440227107430902,,
0.00604237986560162,0.279724219917161,0.00447762439268962,,
0.00609190756941803,0.268926140923362,0.00440323102515938,,
0.00614143527323444,0.247855526659128,0.00413851893135986,,
0.00619096297705084,0.217446612695908,0.00375380733447628,,
0.00624049068086725,0.178588825290995,0.00315914601642975,,
0.00629001838468366,0.132796603376729,0.00249656535232434,,
0.00633954608850006,0.0818121263275001,0.00169612445254552,,
0.00638907379231647,0.0281283951022647,0.000868646819400354,,
0.00643860149613288,-0.0263752065429324,1.11862507932159E-05,,
0.00648812919994928,-0.0813789776716347,-0.000868401184918266,,
0.00653765690376569,-0.132662803150945,-0.00171890634493632,,
0.0065871846075821,-0.178889887870486,-0.0024904019031875,,
0.0066367123113985,-0.2175672308713,-0.00316471655474793,,
0.00668624001521491,-0.248594976914512,-0.00372122688494825,,
0.00673576771903132,-0.2693926792783,-0.00413683054721714,,
0.00678529542284772,-0.280139768362886,-0.00439678523753706,,
0.00683482312666413,-0.280236533304233,-0.00447784038163146,,
0.00688435083048054,-0.269316001270885,-0.00438655329082449,,
0.00693387853429694,-0.247965859938059,-0.00415284478611166,,
0.00698340623811335,-0.217271141739393,-0.00370958324580872,,
0.00703293394192976,-0.178378009056503,-0.00317995153942263,,
0.00708246164574616,-0.132358650273926,-0.00250263280637686,,
0.00713198934956257,-0.0814819232080379,-0.00171381295865913,,
0.00718151705337898,-0.0275577764922998,-0.00090367232021249,,
0.00723104475719538,0.0267142218389395,-1.24412453614831E-05,,
0.00728057246101179,0.0814835407856502,0.000866252589043714,,
0.0073301001648282,0.132849742008442,0.00171831343411677,,
0.0073796278686446,0.178870235509643,0.00249786410935737,,
0.00742915557246101,0.217865927441745,0.00318795583548459,,
0.00747868327627742,0.248217477757101,0.00370715654652587,,
0.00752821098009382,0.269333287622682,0.00411837125703851,,
0.00757773868391023,0.279742761702329,0.00438171683256838,,
0.00762726638772664,0.279810941391542,0.00446427260571314,,
0.00767679409154304,0.269055160845158,0.00440285833835885,,
0.00772632179535945,0.247841427176656,0.00412648284172557,,
0.00777584949917586,0.217272204029169,0.00373026312817482,,
0.00782537720299227,0.178536483376614,0.00314746849667147,,
0.00787490490680867,0.132710847620326,0.00248287758254984,,
0.00792443261062508,0.0819556078760095,0.00168669434713165,,
0.00797396031444149,0.0280529000993724,0.000872949657918731,,
0.00802348801825789,-0.0263744339685504,6.14086205885656E-07,,
0.0080730157220743,-0.081307321397703,-0.000868480239694325,,
0.00812254342589071,-0.132747641475269,-0.00172715062871154,,
0.00817207112970711,-0.178923832857395,-0.00249271707876808,,
0.00822159883352352,-0.217661098658714,-0.00315534291703123,,
0.00827112653733993,-0.248454754664176,-0.00371857431487754,,
0.00832065424115633,-0.269427831412681,-0.00414559433380557,,
0.00837018194497274,-0.280050777451258,-0.00438024020228989,,
0.00841970964878915,-0.280264732269176,-0.0044946437565927,,
0.00846923735260555,-0.269117835941899,-0.0043652988496401,,
0.00851876505642196,-0.248079669801709,-0.00413599482530058,,
0.00856829276023837,-0.217265926862315,-0.00371663182609794,,
0.00861782046405477,-0.178166323675832,-0.00317207994244839,,
0.00866734816787118,-0.132399210428982,-0.0024888546882873,,
0.00871687587168759,-0.0814427150581507,-0.00171043619037325,,
0.00876640357550399,-0.0276278876174675,-0.000871201982693748,,
0.0088159312793204,0.0267321841933213,-2.19038197011301E-05,,
0.00886545898313681,0.0814599772669988,0.000884706232452626,,
0.00891498668695321,0.132841219547291,0.00171137073075966,,
0.00896451439076962,0.178718424643578,0.00251135988896189,,
0.00901404209458603,0.217632030547591,0.0031749117974571,,
0.00906356979840243,0.248200287977101,0.00372304655648659,,
0.00911309750221884,0.269388333547401,0.00415324853014587,,
0.00916262520603525,0.279738512543228,0.00439040156438075,,
0.00921215290985165,0.279896310860754,0.00449206600622043,,
0.00926168061366806,0.269008806382237,0.00440282445774054,,
0.00931120831748447,0.248005599232834,0.00414240673230459,,
0.00936073602130087,0.217577177766468,0.00373454055622924,,
0.00941026372511728,0.178568352069872,0.00317767871461427,,
0.00945979142893369,0.132763793108443,0.00248120613871627,,
0.00950931913275009,0.0818868728989598,0.00171264690071382,,
0.0095588468365665,0.028031268016676,0.000861983631143648,,
0.00960837454038291,-0.0263742408249549,3.78150050481807E-05,,
0.00965790224419931,-0.0813250906084892,-0.000878340911298459,,
0.00970742994801572,-0.132772556999089,-0.00171416305838079,,
0.00975695765183213,-0.178833634798295,-0.00247699647189847,,
0.00980648535564854,-0.21778026825714,-0.00316829660674323,,
0.00985601305946494,-0.248383677821031,-0.00372078784860364,,
0.00990554076328135,-0.269251105022796,-0.0041422415642911,,
0.00995506846709776,-0.280530304712993,-0.00440617016879363,,
0.0100045961709142,-0.280007464999966,-0.00446366416627741,,
0.0100541238747306,-0.269306150947514,-0.00439405078930566,,
0.010103651578547,-0.248087588689125,-0.00412772936613903,,
0.0101531792823634,-0.217200451183439,-0.00370891692698283,,
0.0102027069861798,-0.178272021508471,-0.00318406097607804,,
0.0102522346899962,-0.13233701819123,-0.00248397587925853,,
0.0103017623938126,-0.0814368724643867,-0.00172393196997733,,
0.010351290097629,-0.0276271150430855,-0.000858395108993992,,
0.0104008178014454,0.0267418655160459,-6.2848546860117E-06,,
0.0104503455052618,0.0813628501814101,0.00085864074347608,,
0.0104998732090782,0.132759519806393,0.00171285018442324,,
0.0105494009128946,0.178706449740656,0.00252574785818016,,
0.010598928616711,0.217683986174781,0.00317628960926575,,
0.0106484563205274,0.248212456023618,0.00373092662361563,,
0.0106979840243439,0.269080655799764,0.00414210180674024,,
0.0107475117281603,0.279668980848847,0.00438617778063843,,
0.0107970394319767,0.279618184083229,0.00448364102581467,,
0.0108465671357931,0.269050911686057,0.00438975783263418,,
0.0108960948396095,0.247919070902048,0.00414029484043343,,
0.0109456225434259,0.217315275050966,0.0037402325000957,,
0.0109951502472423,0.178588825290995,0.0031656398015949,,
0.0110446779510587,0.132800104104398,0.00247293644447755,,
0.0110942056548751,0.0818161582000562,0.00171860988952632,,
0.0111437333586915,0.0281040590092313,0.000898947385658211,,
0.0111932610625079,-0.0264147526941117,2.75943518750488E-05,,
0.0112427887663243,-0.0814091080725332,-0.000868502826773199,,
0.0112923164701407,-0.132812296293864,-0.00169861185460274,,
0.0113418441739571,-0.178626198576725,-0.00249212981471825,,
0.0113913718777736,-0.21775404901405,-0.00318706646925593,,
0.01144089958159,-0.248357989722829,-0.00373715218721982,,
0.0114904272854064,-0.269536764400545,-0.00414602489999583,,
0.0115399549892228,-0.280114080264684,-0.00438892493410226,,
0.0115894826930392,-0.280272071725806,-0.00446226376738945,,
0.0116390103968556,-0.269102625883753,-0.00439880678109317,,
0.011688538100672,-0.248085464109574,-0.00413924736465265,,
0.0117380658044884,-0.217210349792709,-0.00372829805231634,,
0.0117875935083048,-0.178262895473583,-0.00316220938899692,,
0.0118371212121212,-0.132411378475498,-0.00248314015734197,,
0.0118866489159376,-0.0814838546439929,-0.00171706549801121,,
0.011936176619754,-0.0275452221585921,-0.000871947356295699,,
0.0119857043235704,0.0267424449468324,-7.85606835762565E-06,,
0.0120352320273868,0.0813786879562414,0.000864919951392373,,
0.0120847597312032,0.132692692122349,0.00169754743851236,,
0.0121342874350197,0.178719004074364,0.00249605431966593,,
0.0121838151388361,0.217827105579049,0.00317378244351518,,
0.0122333428426525,0.248296473487662,0.00374628866060878,,
0.0122828705464689,0.269337536781784,0.00416141093575995,,
0.0123323982502853,0.279839526643676,0.00439775365854178,,
0.0123819259541017,0.2796624139666,0.00450409362570037,,
0.0124314536579181,0.268879593316845,0.00439323624277499,,
0.0124809813617345,0.247949201302947,0.00413503205106469,,
0.0125305090655509,0.217231450730517,0.0037168096993434,,
0.0125800367693673,0.178404180013694,0.00317224652215442,,
0.0126295644731837,0.132763599964848,0.00249217216549091,,
0.0126790921770001,0.0818745117088476,0.00171514277292495,,
0.0127286198808165,0.0280868933721809,0.000853468302422833,,
0.0127781475846329,-0.0263908028882693,-4.46800653230994E-06,,
0.0128276752884493,-0.0814050520570276,-0.000863240037404456,,
0.0128772029922658,-0.132713599916562,-0.00171925644465842,,
0.0129267306960822,-0.178740201583971,-0.00248156894367035,,
0.0129762583998986,-0.217753855870455,-0.00317542283011596,,
0.013025786103715,-0.248286864593785,-0.00372843216309704,,
0.0130753138075314,-0.269693403856498,-0.00415162649554723,,
0.0131248415113478,-0.280349956880692,-0.00441194116743615,,
0.0131743692151642,-0.280020791908056,-0.00447211314545415,,
0.0132238969189806,-0.269011413820776,-0.00437638910534854,,
0.013273424622797,-0.248268709095808,-0.00414534728763094,,
0.0133229523266134,-0.217438210949504,-0.00374590468026881,,
0.0133724800304298,-0.178399254852009,-0.00316633153088475,,
0.0134220077342462,-0.13242934082988,-0.00249597949996749,,
0.0134715354380626,-0.0814362930336002,-0.00169771966498855,,
0.013521063141879,-0.0276526099976919,-0.000877819996792706,,
0.0135705908456954,0.0267379785011864,-1.90578477679004E-05,,
0.0136201185495119,0.0814310057276733,0.000874429111582309,,
0.0136696462533283,0.132741750595607,0.00169708440339589,,
0.0137191739571447,0.178825233051891,0.00248936007417599,,
0.0137687016609611,0.217614261336805,0.00316571885637096,,
0.0138182293647775,0.248174020448112,0.00373423563066488,,
0.0138677570685939,0.269158299525157,0.00414296858589047,,
0.0139172847724103,0.279818860278957,0.00438766852784189,,
0.0139668124762267,0.279617025221656,0.00447819753981538,,
0.0140163401800431,0.269025996162237,0.00438742006997472,,
0.0140658678838595,0.247893962234633,0.00412889965916063,,
0.0141153955876759,0.217317399630516,0.00373920478800871,,
0.0141649232914923,0.178457873933244,0.00316182258527187,,
0.0142144509953087,0.132703339163051,0.00250984655467956,,
0.0142639786991251,0.081866375534887,0.00170367983041597,,
0.0143135064029415,0.0281064008753268,0.000860233132534027,,
0.014363034106758,-0.026340392409843,-2.75138854100021E-06,,
0.0144125618105744,-0.0813428598192755,-0.000906189367810395,,
0.0144620895143908,-0.132920118706054,-0.00171511171569216,,
0.0145116172182072,-0.178772794565712,-0.00249333822343623,,
0.0145611449220236,-0.217786641995791,-0.00318559830913134,,
0.01461067262584,-0.248658859158724,-0.00372807218152804,,
0.0146602003296564,-0.269436716018074,-0.00414434075093029,,
0.0147097280334728,-0.280456523859511,-0.00442103246666736,,
0.0147592557372892,-0.280044548570303,-0.0044344816604216,,
0.0148087834411056,-0.269329907609761,-0.00436415820215919,,
0.014858311144922,-0.24811612565536,-0.00415375956280473,,
0.0149078388487384,-0.217189635142091,-0.00373378812416592,,
0.0149573665525548,-0.17850529068594,-0.00316255948871902,,
0.0150068942563712,-0.132303990636398,-0.00246760024710291,,
0.0150564219601876,-0.0814556556790494,-0.00170980375216567,,
0.0151059496640041,-0.0275641985168503,-0.000880146465912723,,
0.0151554773678205,0.0267679399014388,-1.11297830964752E-05,,
0.0152050050716369,0.0813116429856523,0.000853163376858479,,
0.0152545327754533,0.132825599059004,0.00170089879633428,,
0.0153040604792697,0.178732524126049,0.00250801700129388,,
0.0153535881830861,0.217727829770961,0.00317317259238648,,
0.0154031158869025,0.248243938429685,0.0037321463258726,,
0.0154526435907189,0.269117932513696,0.00415827415518644,,
0.0155021712945353,0.279919488092215,0.00439493027368743,,
0.0155516989983517,0.279926248118057,0.00448434122525843,,
0.0156012267021681,0.268731259035499,0.0043791221418874,,
0.0156507544059845,0.247995169478676,0.00415506678999211,,
0.0157002821098009,0.217478867676357,0.00373137836519222,,
0.0157498098136173,0.178386797090099,0.00316477019905959,,
0.0157993375174338,0.132778641022348,0.00249404689303434,,
0.0158488652212502,0.0818428120162356,0.00170270858602617,,
0.0158983929250666,0.02811914835263,0.000861498008948747,,
0.015947920628883,-0.0263859742983817,5.60583062814146E-06,,
0.0159974483326994,-0.0813801365332077,-0.00086143307109765,,
0.0160469760365158,-0.132806743415493,-0.00172905923687328,,
0.0160965037403322,-0.178779940878745,-0.00249149737651111,,
0.0161460314441486,-0.217952021199441,-0.003175693875062,,
