Time domain (s),Current (AC) (A),Potential (AC) (V),Frequency (Hz),Column 5
0,0.371106199711472,0.00733635297880753,63.096,0.4
0.000236030463500063,0.368224381306939,0.00739455374171216,,
0.000472060927000127,0.362159596901346,0.00736425848177236,,
0.00070809139050019,0.352985342224314,0.00725638720955768,,
0.000944121854000254,0.340742756394937,0.00710570392338505,,
0.00118015231750032,0.325087010392481,0.00684699933541166,,
0.00141618278100038,0.307298501519143,0.00657725685648058,,
0.00165221324450044,0.286487885222782,0.00624953865902356,,
0.00188824370800051,0.263204992763675,0.00584599122232587,,
0.00212427417150057,0.237777781501356,0.00539652401596458,,
0.00236030463500063,0.209904410483357,0.00491319298880022,,
0.0025963350985007,0.180564591652642,0.00437938772240143,,
0.00283236556200076,0.149295394360058,0.00378749957348701,,
0.00306839602550082,0.116821375562716,0.00319014338198897,,
0.00330442648900089,0.0832416851600104,0.00255506814515227,,
0.00354045695250095,0.0489570828851558,0.00189576580930328,,
0.00377648741600101,0.0142765743686648,0.00119948653874546,,
0.00401251787950108,-0.0204859812673715,0.000534556753877702,,
0.00424854834300114,-0.05503590774853,-0.000136225524387967,,
0.0044845788065012,-0.0893919256851859,-0.000858252283064687,,
0.00472060927000127,-0.122917072087293,-0.00151022728110561,,
0.00495663973350133,-0.15519117325532,-0.00218247770603242,,
0.0051926701970014,-0.186214864765546,-0.00284053024184949,,
0.00542870066050146,-0.215588484698328,-0.00346578791766339,,
0.00566473112400152,-0.24278814486147,-0.00404998169210424,,
0.00590076158750159,-0.26792362661211,-0.00463516137525177,,
0.00613679205100165,-0.291145619307837,-0.00511246978618463,,
0.00637282251450171,-0.311369829818096,-0.00558662757581541,,
0.00660885297800178,-0.32901406287629,-0.00604005984980249,,
0.00684488344150184,-0.343734991732886,-0.00637637259924828,,
0.0070809139050019,-0.35551395355717,-0.00670383494267934,,
0.00731694436850197,-0.364372037925645,-0.0069493355875494,,
0.00755297483200203,-0.369775129646005,-0.00715167325639499,,
0.00778900529550209,-0.371691334345017,-0.00726831991983135,,
0.00802503575900216,-0.370933900760427,-0.00730572015229969,,
0.00826106622250222,-0.366388779235931,-0.00735090986728304,,
0.00849709668600228,-0.359032734951749,-0.0072746854608301,,
0.00873312714950235,-0.348631702498531,-0.00715860676654012,,
0.00896915761300241,-0.335005409331924,-0.00699052942525968,,
0.00920518807650247,-0.318207532757601,-0.00673172838969549,,
0.00944121854000254,-0.298897223155685,-0.00641722485174068,,
0.0096772490035026,-0.276918128761745,-0.00605617731388053,,
0.00991327946700266,-0.252460633560924,-0.00564992934463815,,
0.0101493099305027,-0.225775039047495,-0.00520221962771084,,
0.0103853403940028,-0.197107544359757,-0.00466668902107514,,
0.0106213708575029,-0.166981055435656,-0.00411366925129064,,
0.0108574013210029,-0.135204783832419,-0.00352498530567402,,
0.011093431784503,-0.102172035706906,-0.00291442918972207,,
0.011329462248003,-0.0682424316732389,-0.00229208503488332,,
0.0115654927115031,-0.0338157492103831,-0.00159880903514198,,
0.0118015231750032,0.00104711191828014,-0.000908865835485884,,
0.0120375536385032,0.0357320116890567,-0.000235543770660041,,
0.0122735841020033,0.0703792391204364,0.00044267568850298,,
0.0125096145655034,0.104191666000275,0.00111697294563617,,
0.0127456450290034,0.137132573353592,0.00180310914455184,,
0.0129816754925035,0.168730421361649,0.00247591950132575,,
0.0132177059560036,0.199073497347451,0.00311896773900955,,
0.0134537364195036,0.227477054540765,0.00371993267786674,,
0.0136897668830037,0.253820420118231,0.00429870395441956,,
0.0139257973465037,0.278162529334734,0.00484558322758399,,
0.0141618278100038,0.299871966047746,0.00534481471174697,,
0.0143978582735039,0.318979469037266,0.00581015558410947,,
0.0146338887370039,0.335084509688725,0.00620017088798486,,
0.014869919200504,0.348980749434568,0.0065420427694054,,
0.0151059496640041,0.359217918767343,0.00682775000372926,,
0.0153419801275041,0.366466723999499,0.0070416091410368,,
0.0155780105910042,0.370569773332699,0.00721779745680129,,
0.0158140410545042,0.37097215089644,0.00733838909461504,,
0.0160500715180043,0.369154633859529,0.00738646286047606,,
0.0162861019815044,0.363528050407901,0.00735215966731495,,
0.0165221324450044,0.354546086444845,0.00725840189256743,,
0.0167581629085045,0.342739852620261,0.00711061203412156,,
0.0169941933720046,0.327936703305135,0.00689307181376142,,
0.0172302238355046,0.310286865619761,0.00661954376688767,,
0.0174662542990047,0.289578172646554,0.00629416174441033,,
0.0177022847625048,0.26675405070096,0.00588945425752252,,
0.0179383152260048,0.241675597476369,0.00545783253457577,,
0.0181743456895049,0.214255912361658,0.00499980292542235,,
0.0184103761530049,0.184866403021923,0.00446220405378206,,
0.018646406616505,0.153978551496239,0.0038646656835013,,
0.0188824370800051,0.121659873319247,0.00325555896051277,,
0.0191184675435051,0.0882017224348257,0.00261752599755516,,
0.0193544980070052,0.0540983171789103,0.00197208800289683,,
0.0195905284705053,0.019382880856951,0.00132444243004715,,
0.0198265589340053,-0.0153567651432404,0.000653499405796953,,
0.0200625893975054,-0.0499355814552247,-6.21537745817413E-05,,
0.0202986198610055,-0.0844707163430004,-0.000691483682010663,,
0.0205346503245055,-0.117951025727666,-0.0014083036103294,,
0.0207706807880056,-0.150688057544845,-0.00207313694760636,,
0.0210067112515056,-0.181690312800599,-0.00276719524447389,,
0.0212427417150057,-0.211228200311456,-0.00338552208924181,,
0.0214787721785058,-0.238908067242584,-0.00397773173012572,,
0.0217148026420058,-0.264482558862452,-0.00452260703667928,,
0.0219508331055059,-0.287813524000054,-0.0050566909294516,,
0.022186863569006,-0.308345411208607,-0.00554444782939756,,
0.022422894032506,-0.326723734868084,-0.00596253607997221,,
0.0226589244960061,-0.34182912959331,-0.0063229834994889,,
0.0228949549595062,-0.353971005472427,-0.00666000353126783,,
0.0231309854230062,-0.363248801303139,-0.00691220326505526,,
0.0233670158865063,-0.369073915672202,-0.0071171115301083,,
0.0236030463500063,-0.371438201647321,-0.00727925064679891,,
0.0238390768135064,-0.371061304914368,-0.00732154827360532,,
0.0240751072770065,-0.367478272536033,-0.00738089435165179,,
0.0243111377405065,-0.360453247933453,-0.00729478942533213,,
0.0245471682040066,-0.350039908412303,-0.007175774437719,,
0.0247831986675067,-0.337318906984452,-0.00700943315307523,,
0.0250192291310067,-0.320999850466236,-0.00676354671784152,,
0.0252552595945068,-0.301772628017774,-0.00646519145361202,,
0.0254912900580068,-0.280239303713476,-0.00609666386925811,,
0.0257273205215069,-0.256148016008202,-0.00570204319291756,,
0.025963350985007,-0.23008817523046,-0.00524122598047772,,
0.026199381448507,-0.201549644747528,-0.00476580499531654,,
0.0264354119120071,-0.171343362110686,-0.00420723413085655,,
0.0266714423755072,-0.139781799730146,-0.00359693654803017,,
0.0269074728390072,-0.107031825268756,-0.00301575274215526,,
0.0271435033025073,-0.0733261752036502,-0.00237591942416771,,
0.0273795337660074,-0.0388758608591789,-0.00170889726239754,,
0.0276155642295074,-0.00408672657878303,-0.00105540053570019,,
0.0278515946930075,0.0306328698788153,-0.000354376579490001,,
0.0280876251565075,0.0651286857068371,0.000320078744528107,,
0.0283236556200076,0.0992265441152339,0.00102632292659521,,
0.0285596860835077,0.132371500343673,0.00172010259708921,,
0.0287957165470077,0.164236492617377,0.00240129853607129,,
0.0290317470105078,0.194748805232156,0.00301769776857119,,
0.0292677774740079,0.223494649141094,0.00361971291452967,,
0.0295038079375079,0.25019347519704,0.00423144783436991,,
0.029739838401008,0.274652068211433,0.00476219892705698,,
0.0299758688645081,0.296915034083067,0.00527707903284247,,
0.0302118993280081,0.316549025349555,0.00573326542136954,,
0.0304479297915082,0.33310451624325,0.00613873377258578,,
0.0306839602550082,0.346994978022928,0.00647426154580533,,
0.0309199907185083,0.357878123972967,0.00679091774040685,,
0.0311560211820084,0.365641168193822,0.00702854585067003,,
0.0313920516455084,0.369892133460849,0.0072181082323719,,
0.0316280821090085,0.371363665883791,0.0073226145553047,,
0.0318641125725086,0.369612942135749,0.00735055220746661,,
0.0321001430360086,0.364360077535684,0.00736495504770662,,
0.0323361734995087,0.355997280426885,0.00727773427634215,,
0.0325722039630088,0.344510683690558,0.00713827105990994,,
0.0328082344265088,0.330179940889095,0.00690907943475016,,
0.0330442648900089,0.313060982734975,0.00667587987636864,,
0.0332802953535089,0.292999421972265,0.00631064356605382,,
0.033516325817009,0.27030749989253,0.005957334607813,,
0.0337523562805091,0.245451845043268,0.00553109251715878,,
0.0339883867440091,0.218556568137706,0.005035617130841,,
0.0342244172075092,0.189243587959828,0.00450064377695281,,
0.0344604476710093,0.15873936449768,0.00397719858927603,,
0.0346964781345093,0.126532489965984,0.00335204941700207,,
0.0349325085980094,0.0932306330663297,0.0027398965576011,,
0.0351685390615094,0.0590969223778781,0.00208615335372686,,
0.0354045695250095,0.0245775324479024,0.00143032045205027,,
0.0356405999885096,-0.0102293401886206,0.000716823946968148,,
0.0358766304520096,-0.0447948093987633,7.01642828251359E-05,,
0.0361126609155097,-0.0793234729644341,-0.000626220812173006,,
0.0363486913790098,-0.113069106555403,-0.00133170145081207,,
0.0365847218425098,-0.145721491168263,-0.00197748370978745,,
0.0368207523060099,-0.17716888093738,-0.00265136302736035,,
0.03705678276951,-0.207092101011791,-0.0032693348914119,,
0.03729281323301,-0.234947675894002,-0.00388121984083822,,
0.0375288436965101,-0.260804305601715,-0.00443643647241521,,
0.0377648741600101,-0.284390887962463,-0.00497058600313149,,
0.0380009046235102,-0.30569817823038,-0.00546738620427378,,
0.0382369350870103,-0.32415323328053,-0.0059095769757227,,
0.0384729655505103,-0.339728781112614,-0.00628596905738377,,
0.0387089960140104,-0.352453018201518,-0.00660334592981737,,
0.0389450264775105,-0.362004458509812,-0.00688023624687384,,
0.0391810569410105,-0.368449201970425,-0.00709470487937391,,
0.0394170874045106,-0.371610442818705,-0.00724542969159225,,
0.0396531178680107,-0.371332407086837,-0.00736819675840072,,
0.0398891483315107,-0.368062944932285,-0.0073469247064093,,
0.0401251787950108,-0.361710475591329,-0.00732466540616095,,
0.0403612092585108,-0.351941783755225,-0.00721424497053702,,
0.0405972397220109,-0.338902300832351,-0.00701863853980589,,
0.040833270185511,-0.323672044258296,-0.00682704004229651,,
0.041069300649011,-0.305030938697628,-0.00649930041204128,,
0.0413053311125111,-0.283601155547009,-0.00620325988999326,,
0.0415413615760112,-0.259814251099316,-0.00579140724408012,,
0.0417773920395112,-0.233884992356906,-0.00530733812493533,,
0.0420134225030113,-0.205910160253047,-0.00482822667987293,,
0.0422494529665114,-0.176012363229763,-0.00428614031615604,,
0.0424854834300114,-0.144616108461207,-0.00372754667934805,,
0.0427215138935115,-0.111932869509025,-0.00310098026330818,,
0.0429575443570115,-0.0783959938356035,-0.002445318824015,,
0.0431935748205116,-0.0439650934574471,-0.00181204394220824,,
0.0434296052840117,-0.00921039585539553,-0.00113702868634258,,
0.0436656357475117,0.0255290479159801,-0.000443184717454859,,
0.0439016662110118,0.0599583015737793,0.000248848180004035,,
0.0441376966745119,0.0942600355183136,0.000944621100709586,,
0.0443737271380119,0.127581537502929,0.00162488739207944,,
0.044609757601512,0.15956676925253,0.00224461674556498,,
0.044845788065012,0.190226275555367,0.00291727439365319,,
0.0450818185285121,0.219209507204199,0.00353881481856799,,
0.0453178489920122,0.246441263969389,0.00410257242013845,,
0.0455538794555122,0.271268491225118,0.00468512390643427,,
0.0457899099190123,0.293830755744107,0.0052018606283446,,
0.0460259403825124,0.313778143895394,0.00563688480796953,,
0.0462619708460124,0.330597341164866,0.00607231085255711,,
0.0464980013095125,0.344838409931446,0.00644322685433574,,
0.0467340317730126,0.35611815547906,0.00674070337384824,,
0.0469700622365126,0.364824857134009,0.0070119890142335,,
0.0472060927000127,0.369416260167487,0.00719017058020954,,
0.0474421231635127,0.371420289952209,0.0073151773744069,,
0.0476781536270128,0.370128798954974,0.00735452531239167,,
0.0479141840905129,0.365410742903155,0.00736845931017571,,
0.0481502145540129,0.357621582275234,0.00730954054853905,,
0.048386245017513,0.346550305746858,0.00715586738704843,,
0.0486222754810131,0.332352456167193,0.00696974496942238,,
0.0488583059445131,0.315784715985229,0.00670139294325978,,
0.0490943364080132,0.296165285193476,0.0064179040035266,,
0.0493303668715133,0.27396241016996,0.00602809231123214,,
0.0495663973350133,0.249218385627009,0.00560831220916747,,
0.0498024277985134,0.222477033740087,0.00515625163425071,,
0.0500384582620134,0.193771866712952,0.00458407094307578,,
0.0502744887255135,0.163165286580188,0.0040165090198645,,
0.0505105191890136,0.131350187044321,0.00345684508270727,,
0.0507465496525136,0.0981941371208441,0.00281230994466375,,
0.0509825801160137,0.0641589118656775,0.00216940905746599,,
0.0512186105795138,0.0296764431394972,0.00150616040768936,,
0.0514546410430138,-0.00507475879302447,0.000850156043628925,,
0.0516906715065139,-0.0396826960544811,0.000156654999508454,,
0.051926701970014,-0.0743146696551849,-0.000547723189584293,,
0.052162732433514,-0.108243118095619,-0.00121834472186499,,
0.0523987628970141,-0.14102706699806,-0.00191139567722765,,
0.0526347933605141,-0.172544023479806,-0.00254512064779178,,
0.0528708238240142,-0.202631280013645,-0.00316430212537933,,
0.0531068542875143,-0.230897783849521,-0.00380321517260374,,
0.0533428847510143,-0.257344921699314,-0.00436834447324452,,
0.0535789152145144,-0.281193361486666,-0.00490336069272868,,
0.0538149456780145,-0.302876450673965,-0.00538032617889384,,
0.0540509761415145,-0.321575798133578,-0.00584570723775313,,
0.0542870066050146,-0.337560657088802,-0.00621564670767372,,
0.0545230370685146,-0.350697209843251,-0.00657806594460419,,
0.0547590675320147,-0.360734461546711,-0.00682508965768047,,
0.0549950979955148,-0.367529869773887,-0.00706668149601963,,
0.0552311284590148,-0.371411623002962,-0.00720855456267433,,
0.0554671589225149,-0.371505746071792,-0.00730949232474387,,
0.055703189386015,-0.368851810652813,-0.00737891181783912,,
0.055939219849515,-0.362928470858943,-0.00732252346591311,,
0.0561752503130151,-0.353723477401912,-0.00722666527696436,,
0.0564112807765152,-0.341180206213301,-0.00705636160379397,,
0.0566473112400152,-0.325979763944659,-0.00685455975489813,,
0.0568833417035153,-0.307663611201119,-0.00654554033412547,,
0.0571193721670153,-0.286785508259949,-0.00623588060851343,,
0.0573554026305154,-0.263545083852156,-0.00580049475042221,,
0.0575914330940155,-0.237935288859018,-0.0053810227448281,,
0.0578274635575155,-0.210011822874367,-0.00489487196518024,,
0.0580634940210156,-0.1804686774143,-0.00437124861737015,,
0.0582995244845157,-0.149276847088668,-0.0037862725458031,,
0.0585355549480157,-0.11683865168155,-0.00320210020416045,,
0.0587715854115158,-0.0833911611447029,-0.00257625178685261,,
0.0590076158750159,-0.0490677309372185,-0.00190539449379434,,
0.0592436463385159,-0.0143440032338121,-0.00121952352575372,,
0.059479676802016,0.0203702486050834,-0.000541389797782621,,
0.059715707265516,0.0549624697985709,0.000160909409907095,,
0.0599517377290161,0.0892059329543296,0.000818124727053338,,
0.0601877681925162,0.122778227560344,0.00152289942290906,,
0.0604237986560162,0.154962423574842,0.0021745314961823,,
0.0606598291195163,0.185916143914808,0.00282370951408772,,
0.0608958595830164,0.215059511895908,0.00346201038701954,,
0.0611318900465164,0.242465098773176,0.00403655940237124,,
0.0613679205100165,0.26768222318573,0.00458881830782731,,
0.0616039509735166,0.290665816997482,0.00510167301420417,,
0.0618399814370166,0.310915970575823,0.00559142584346217,,
0.0620760119005167,0.328591693549617,0.00602176159853007,,
0.0623120423640167,0.343210872422045,0.00638467245026408,,
0.0625480728275168,0.354933672415204,0.0067141910027515,,
0.0627841032910169,0.363527819289255,0.00697719286671905,,
0.0630201337545169,0.369351084709144,0.00714293269346999,,
0.063256164218017,0.371452646562734,0.00730851177423597,,
0.0634921946815171,0.37037286024579,0.00735637121211719,,
0.0637282251450171,0.366016735994557,0.00738350513435515,,
0.0639642556085172,0.358677101134284,0.00734369371211407,,
0.0642002860720172,0.348428838106473,0.00717507117403526,,
0.0644363165355173,0.334892681212042,0.00699664313088233,,
0.0646723469990174,0.318415077302254,0.00672042794696237,,
0.0649083774625174,0.299122448276803,0.00644262673599227,,
0.0651444079260175,0.277348529461387,0.00611290189282476,,
0.0653804383895176,0.253004340177065,0.00563947817652499,,
0.0656164688530176,0.226691944498244,0.00519508786418399,,
0.0658524993165177,0.197966901267501,0.00470362309018757,,
0.0660885297800178,0.167813111453269,0.00413602098047994,,
0.0663245602435178,0.136120244791626,0.00353857905778998,,
0.0665605907070179,0.103092927954309,0.00291437024952756,,
0.0667966211705179,0.0692180990398869,0.0022792521470949,,
0.067032651634018,0.0347754116107537,0.00160701243856698,,
0.0672686820975181,1.82005934202378E-05,0.000922202394026073,,
0.0675047125610181,-0.0345862987781682,0.000232804391168795,,
0.0677407430245182,-0.0692852967863877,-0.000451907866231505,,
0.0679767734880183,-0.103337624821403,-0.00112256154770884,,
0.0682128039515183,-0.136318024573459,-0.00179604435851921,,
0.0684488344150184,-0.168025191701361,-0.0024987521289197,,
0.0686848648785185,-0.198147347150839,-0.00310676577921187,,
0.0689208953420185,-0.226920520839737,-0.0037333013856049,,
0.0691569258055186,-0.253322012756825,-0.00429180795167117,,
0.0693929562690186,-0.277733977584265,-0.00479569303209448,,
0.0696289867325187,-0.29990357152267,-0.00532838379299827,,
0.0698650171960188,-0.319155350327333,-0.00578069084509192,,
0.0701010476595188,-0.335194522164509,-0.00617167866217505,,
0.0703370781230189,-0.349085157283173,-0.006515760800887,,
0.070573108586519,-0.359615385059844,-0.00681585212175273,,
0.070809139050019,-0.367242531516494,-0.0070424731507055,,
0.0710451695135191,-0.370923327082344,-0.0072108800212547,,
0.0712811999770192,-0.371904887974481,-0.00732324146464558,,
0.0715172304405192,-0.369556722524962,-0.00734888446787441,,
0.0717532609040193,-0.364042924972878,-0.00735114696761086,,
0.0719892913675193,-0.354975909347871,-0.00725583531500984,,
0.0722253218310194,-0.343187182760768,-0.00711576126383573,,
0.0724613522945195,-0.328347112241846,-0.00686866253596641,,
0.0726973827580195,-0.310451595435129,-0.00662288192517302,,
0.0729334132215196,-0.290316365603814,-0.00628110381224323,,
0.0731694436850197,-0.267065945314555,-0.00590256845078452,,
0.0734054741485197,-0.241879848580308,-0.00546770769624372,,
0.0736415046120198,-0.214283588819589,-0.00498108673459008,,
0.0738775350755198,-0.184934294124363,-0.0044530562676961,,
0.0741135655390199,-0.154023561852666,-0.00386576679349737,,
0.07434959600252,-0.121757087599976,-0.00328155158625876,,
0.07458562646602,-0.0883595186907961,-0.002680715244189,,
0.0748216569295201,-0.0542387795363852,-0.00200037393802655,,
0.0750576873930202,-0.0195009535955359,-0.00135575976654012,,
0.0752937178565202,0.0152553618370419,-0.000648489489270432,,
0.0755297483200203,0.0497997414706819,4.53022371726952E-05,,
0.0757657787835204,0.0842253550097971,0.000725513606997463,,
0.0760018092470204,0.117918958015449,0.00142674117478814,,
0.0762378397105205,0.150328032473094,0.00209855222735644,,
0.0764738701740205,0.181308793694714,0.0027085510905609,,
0.0767099006375206,0.210882966833087,0.00335265221444514,,
0.0769459311010207,0.238582305510192,0.0039553692845371,,
0.0771819615645207,0.264171299825136,0.00452838853393311,,
0.0774179920280208,0.287352268961089,0.00505897888063522,,
0.0776540224915209,0.308082918205724,0.00552813479103786,,
0.0778900529550209,0.326013796165372,0.00595761323418698,,
