Time domain (s),Current (AC) (A),Potential (AC) (V),Frequency (Hz),Column 5
0,0.446573741565966,0.0131696473375489,0.063096,0.5
0.0386935186065678,0.444972690200391,0.0131554938499239,,
0.0773870372131355,0.443036561453504,0.0131385418317906,,
0.116080555819703,0.441264708577726,0.0131129730738904,,
0.154774074426271,0.439228425456915,0.013084328344958,,
0.193467593032839,0.437022475719657,0.0130429776441803,,
0.232161111639407,0.434482299771404,0.0130260738765733,,
0.270854630245974,0.432143283741313,0.0129936294187187,,
0.309548148852542,0.430096786576704,0.0129346632550758,,
0.34824166745911,0.427434325826295,0.0129103972613773,,
0.386935186065678,0.424858684448182,0.0128700276546283,,
0.425628704672246,0.42180099694742,0.0128253436466794,,
0.464322223278813,0.419211736844241,0.0127593530106269,,
0.503015741885381,0.416240584992335,0.012693060808787,,
0.541709260491949,0.4132013395151,0.0126477696483862,,
0.580402779098517,0.410172308081664,0.0125680597794422,,
0.619096297705084,0.406734431172808,0.0125416345747058,,
0.657789816311652,0.403733204636381,0.0124381693634636,,
0.69648333491822,0.400033734716882,0.0124143014366047,,
0.735176853524788,0.39655471790939,0.0123399312925376,,
0.773870372131355,0.392944620873136,0.0122706435372089,,
0.812563890737923,0.389220183291016,0.0121988507754054,,
0.851257409344491,0.385480424643196,0.0120903956556,,
0.889950927951059,0.381826066750479,0.0120199699920329,,
0.928644446557626,0.377615610917564,0.0119446911297261,,
0.967337965164194,0.37357425425422,0.011826465278407,,
1.00603148377076,0.36920377840178,0.0117617774065559,,
1.04472500237733,0.365359609528454,0.011656205255679,,
1.0834185209839,0.361042473682523,0.0115666040289062,,
1.12211203959047,0.356434521311744,0.0114690092983269,,
1.16080555819703,0.351972970235425,0.0113808395038251,,
1.1994990768036,0.347320757008182,0.0112478329080425,,
1.23819259541017,0.342530937913084,0.0111513157725436,,
1.27688611401674,0.338236216218823,0.0110653936483782,,
1.3155796326233,0.333271907208817,0.0109520209957981,,
1.35427315122987,0.328409171189928,0.0108129629798803,,
1.39296666983644,0.323438052817388,0.0106932051743609,,
1.43166018844301,0.318195694837283,0.0105790404089792,,
1.47035370704958,0.312921843555463,0.0104303363087395,,
1.50904722565614,0.30772204409119,0.0103338835072755,,
1.54774074426271,0.302519974839405,0.0101940856499589,,
1.58643426286928,0.297408413364622,0.0100484494789974,,
1.62512778147585,0.291785263064117,0.00994812055194494,,
1.66382130008241,0.286429167450453,0.00982265310084918,,
1.70251481868898,0.281020263811728,0.00968274265897184,,
1.74120833729555,0.275297562049607,0.00955941431452878,,
1.77990185590212,0.26964181901906,0.00938089943097831,,
1.81859537450869,0.263847618950342,0.00926728954664569,,
1.85728889311525,0.25791070599187,0.00910978374628924,,
1.89598241172182,0.252048128574383,0.008970227141603,,
1.93467593032839,0.246238891163405,0.00883656112196496,,
1.97336944893496,0.24012606967283,0.00864704511848791,,
2.01206296754152,0.234102621065501,0.00851797496145101,,
2.05075648614809,0.227967704612123,0.00836175584178767,,
2.08945000475466,0.222047212147676,0.00821269388348034,,
2.12814352336123,0.215673365093335,0.00803871857025085,,
2.1668370419678,0.209436272736532,0.00788232253199217,,
2.20553056057436,0.203045402275859,0.00771006413331232,,
2.24422407918093,0.196630982769759,0.00755423503873409,,
2.2829175977875,0.19041573711775,0.00738136948760282,,
2.32161111639407,0.183816329929503,0.00720335721369825,,
2.36030463500063,0.177406733721864,0.0070415249495106,,
2.3989981536072,0.170843359410355,0.00686222599491293,,
2.43769167221377,0.164356022980464,0.00673084383350542,,
2.47638519082034,0.157588367792964,0.0065250513192594,,
2.51507870942691,0.151112628558637,0.00634300208468019,,
2.55377222803347,0.14429624387051,0.0061803173945334,,
2.59246574664004,0.137596966031779,0.00599132008421055,,
2.63115926524661,0.130741604836236,0.00578511341961629,,
2.66985278385318,0.124059350403838,0.00559368347860811,,
2.70854630245974,0.117247718083312,0.00542598475463496,,
2.74723982106631,0.110411685547043,0.00525278144982133,,
2.78593333967288,0.103404851500571,0.00504628528207141,,
2.82462685827945,0.0965322186406867,0.00487601319671205,,
2.86332037688602,0.0896244395398119,0.00466906266984202,,
2.90201389549258,0.0826306213060981,0.0045013760085002,,
2.94070741409915,0.0757094717381664,0.00431528981324592,,
2.97940093270572,0.0686680234321514,0.00411175301109035,,
3.01809445131229,0.0617088903888401,0.00392043967551992,,
3.05678796991885,0.0547190442832706,0.00375516554047817,,
3.09548148852542,0.0476602888474842,0.00353575431526965,,
3.13417500713199,0.0406143009664472,0.00333321469065107,,
3.17286852573856,0.0335407919118392,0.00315537933534182,,
3.21156204434513,0.0265234955635584,0.00295295229528403,,
3.25025556295169,0.0194045552933005,0.00273773886583717,,
3.28894908155826,0.0123151577261155,0.00256640526890584,,
3.32764260016483,0.00527714956679687,0.00236188335184462,,
3.3663361187714,-0.00176660399215902,0.00216059824090165,,
3.40502963737796,-0.00888579252042596,0.00199004871501796,,
3.44372315598453,-0.0159593015750339,0.00175849444076759,,
3.4824166745911,-0.0230177732873815,0.00156950115132171,,
3.52111019319767,-0.0301614329622514,0.00134855395103628,,
3.55980371180424,-0.0371696146950583,0.00113488855929855,,
3.5984972304108,-0.0441973733451476,0.000951584811043293,,
3.63719074901737,-0.0513160653573965,0.000742535386292431,,
3.67588426762394,-0.0583265878085741,0.000533494003295942,,
3.71457778623051,-0.065267881740666,0.000326032825026079,,
3.75327130483707,-0.0723073439826089,0.000148760392519876,,
3.79196482344364,-0.079321271115053,-7.89499231594881E-05,,
3.83065834205021,-0.0862256810000911,-0.000258699215999858,,
3.86935186065678,-0.093244431430996,-0.00046926652188084,,
3.90804537926334,-0.100062589390616,-0.000687517724026421,,
3.94673889786991,-0.107073679288671,-0.000871141132016362,,
3.98543241647648,-0.113861195116893,-0.00108103293053352,,
4.02412593508305,-0.120626580516882,-0.00129254715298721,,
4.06281945368962,-0.127500986648259,-0.00150710115857855,,
4.10151297229618,-0.134326734209869,-0.00169395936224914,,
4.14020649090275,-0.141136096742883,-0.00190085761771597,,
4.17890000950932,-0.14779849053456,-0.00208832900515388,,
4.21759352811589,-0.154398181446246,-0.00226794761948623,,
4.25628704672245,-0.161052418189056,-0.0024843673120829,,
4.29498056532902,-0.167745099457833,-0.00268348315979416,,
4.33367408393559,-0.174334860049158,-0.0028964428875895,,
4.37236760254216,-0.180806946344209,-0.00306774833838031,,
4.41106112114873,-0.187306128227673,-0.00328059749205334,,
4.44975463975529,-0.193742961885444,-0.00348237918132632,,
4.48844815836186,-0.200002468393918,-0.00368221878692765,,
4.52714167696843,-0.206321840547995,-0.00388345564734438,,
4.565835195575,-0.2126290125942,-0.00404792560695277,,
4.60452871418156,-0.218795528745582,-0.00424379057547553,,
4.64322223278813,-0.225033968788719,-0.00444270940020619,,
4.6819157513947,-0.231122886579569,-0.00463635685497144,,
4.72060927000127,-0.237259328046431,-0.00481847042358563,,
4.75930278860784,-0.243386903155827,-0.00501944994786374,,
4.7979963072144,-0.249436170596094,-0.00515476050626251,,
4.83668982582097,-0.255245691730512,-0.00538092680511015,,
4.87538334442754,-0.260932360615896,-0.00558671529847921,,
4.91407686303411,-0.266792384522432,-0.00576411840949298,,
4.95277038164067,-0.272553105225363,-0.00594241817611474,,
4.99146390024724,-0.278211401766859,-0.00612154021211708,,
5.03015741885381,-0.283894382247538,-0.00628552766646573,,
5.06885093746038,-0.289299313758118,-0.00647290054241312,,
5.10754445606695,-0.294738930459101,-0.00664108579252343,,
5.14623797467351,-0.300017817831961,-0.00681451426645818,,
5.18493149328008,-0.305404874765893,-0.00700444442028347,,
5.22362501188665,-0.31074745805078,-0.00716013278416083,,
5.26231853049322,-0.315939242327905,-0.00732601809253186,,
5.30101204909978,-0.320919723573928,-0.00749447676228909,,
5.33970556770635,-0.326216059938279,-0.00765894672189793,,
5.37839908631292,-0.330990487036818,-0.00781864188987136,,
5.41709260491949,-0.336110276491328,-0.00798973825504978,,
5.45578612352606,-0.340771001421738,-0.00814791755233202,,
5.49447964213262,-0.345344055809535,-0.00831869224733683,,
5.53317316073919,-0.350053297447993,-0.00848634674166115,,
5.57186667934576,-0.354559109380776,-0.00861205544538723,,
5.61056019795233,-0.358892984909601,-0.00877642689350511,,
5.64925371655889,-0.363546687684899,-0.00891545475284383,,
5.68794723516546,-0.367777216951114,-0.00908597211171047,,
5.72664075377203,-0.372140315994143,-0.00923352222020357,,
5.7653342723786,-0.37588319559979,-0.00935064031986377,,
5.80402779098517,-0.379826667676722,-0.00950390409480972,,
5.84272130959173,-0.384229771724633,-0.00962431931374619,,
5.8814148281983,-0.387599625939018,-0.00976847580191098,,
5.92010834680487,-0.39172744732036,-0.00991499656584915,,
5.95880186541144,-0.39526767745979,-0.010065184369763,,
5.997495384018,-0.398836634597406,-0.0101873386180742,,
6.03618890262457,-0.402469216716191,-0.0102909807479112,,
6.07488242123114,-0.405902624980884,-0.0104344154886249,,
6.11357593983771,-0.409056991243444,-0.0105435581784255,,
6.15226945844428,-0.411998635857706,-0.010664262900518,,
6.19096297705084,-0.415277272986493,-0.0107834256162169,,
6.22965649565741,-0.418342621020105,-0.0109222745465223,,
6.26835001426398,-0.421330370693185,-0.0110226195570835,,
6.30704353287055,-0.424038723709832,-0.0111385032474534,,
6.34573705147711,-0.426723598611911,-0.0112518397121386,,
6.38443057008368,-0.429301226054096,-0.0113410569451422,,
6.42312408869025,-0.4318286344476,-0.0114454690729566,,
6.46181760729682,-0.434221557931077,-0.0115896919055944,,
6.50051112590339,-0.436243867672523,-0.0116870453835438,,
6.53920464450995,-0.438617639823876,-0.0117455411045588,,
6.57789816311652,-0.440778406603493,-0.0118566781494338,,
6.61659168172309,-0.442866327390178,-0.0119575056652552,,
6.65528520032966,-0.444707692508481,-0.0120338721748352,,
6.69397871893622,-0.44649202921557,-0.0121376087952858,,
6.73267223754279,-0.448052508129386,-0.0122135229561851,,
6.77136575614936,-0.449718815885902,-0.0122653761881208,,
6.81005927475593,-0.451105372331687,-0.0123487530970405,,
6.8487527933625,-0.452249841753252,-0.0124099488370724,,
6.88744631196906,-0.453756484144541,-0.0124736415418245,,
6.92613983057563,-0.454632905847228,-0.0125463892619546,,
6.9648333491822,-0.455884126212669,-0.0126036606258721,,
7.00352686778877,-0.456824669412542,-0.0126712616232298,,
7.04222038639533,-0.457971550483337,-0.0127482031182451,,
7.0809139050019,-0.458302372013066,-0.0127902936604212,,
7.11960742360847,-0.459052465854593,-0.0128165097795452,,
7.15830094221504,-0.459460460159697,-0.0128800878892981,,
7.19699446082161,-0.459755887190426,-0.0129267119704792,,
7.23568797942817,-0.459821072650507,-0.0129853041925458,,
7.27438149803474,-0.460321560796684,-0.0130013253776151,,
7.31307501664131,-0.460310211859129,-0.0130656272452576,,
7.35176853524788,-0.460296593134063,-0.013073719260555,,
7.39046205385444,-0.460329505052973,-0.0131055646077116,,
7.42915557246101,-0.459847742653762,-0.0131392414644176,,
7.46784909106758,-0.45961849411515,-0.0131604556123466,,
7.50654260967415,-0.458864357214619,-0.0131677896922979,,
7.54523612828072,-0.45844508490282,-0.0131829886079866,,
7.58392964688728,-0.457737691438844,-0.0132071942885275,,
7.62262316549385,-0.457117472001462,-0.0132479820665017,,
7.66131668410042,-0.456048473014638,-0.013229037703733,,
7.70001020270699,-0.455051043265271,-0.0132495099998251,,
7.73870372131355,-0.453827982451138,-0.0132316412216982,,
7.77739723992012,-0.452589529640446,-0.0132231169621058,,
7.81609075852669,-0.451333202253105,-0.0132063438730068,,
7.85478427713326,-0.450160289556793,-0.0132466953858086,,
7.89347779573983,-0.448548740423979,-0.0131850472970956,,
7.93217131434639,-0.44681008319055,-0.0131924457110815,,
7.97086483295296,-0.444625696434646,-0.0131658596712581,,
8.00955835155953,-0.442880797285561,-0.0131628520551379,,
8.0482518701661,-0.441189805589862,-0.0131690281224652,,
8.08694538877266,-0.439176504067601,-0.0131109988232017,,
8.12563890737923,-0.436718536985762,-0.0130622356353682,,
8.1643324259858,-0.434539044459179,-0.0130464557029293,,
8.20302594459237,-0.432360048448614,-0.0130006659537596,,
8.24171946319894,-0.429904989532024,-0.012973726076746,,
8.2804129818055,-0.427378432308836,-0.0129353669085797,,
8.31910650041207,-0.424668022297258,-0.0129200232413131,,
8.35780001901864,-0.421687507571869,-0.0128504118053727,,
8.39649353762521,-0.418980502241557,-0.0128154804349907,,
8.43518705623177,-0.416062122949282,-0.0127645600465573,,
8.47388057483834,-0.412617720401332,-0.0127050028139708,,
8.51257409344491,-0.409752964839005,-0.0126394303491435,,
8.55126761205148,-0.406531001467134,-0.012558757480118,,
8.58996113065805,-0.402531635872743,-0.0125228088278133,,
8.62865464926461,-0.399639855652863,-0.0124492086817236,,
8.66734816787118,-0.396005429331726,-0.0123814026196305,,
8.70604168647775,-0.392277019621462,-0.0123003899864846,,
8.74473520508432,-0.388563363530019,-0.0122377608037429,,
8.78342872369088,-0.384932838406167,-0.0121121988620336,,
8.82212224229745,-0.380998658271858,-0.0120437454387168,,
8.86081576090402,-0.376896584792594,-0.0120036472411766,,
8.89950927951059,-0.372758833090892,-0.0118930268790169,,
8.93820279811716,-0.368854231125085,-0.0117962845743969,,
8.97689631672372,-0.36432373525312,-0.0116878978095034,,
9.01558983533029,-0.3597866428112,-0.0115830192599371,,
9.05428335393686,-0.355531429605803,-0.011509083370604,,
9.09297687254343,-0.350771968918665,-0.011428903059032,,
9.13167039114999,-0.346572294576428,-0.0113108521158694,,
9.17036390975656,-0.341879792620864,-0.011222183732599,,
9.20905742836313,-0.337004005323787,-0.0110940966800293,,
9.2477509469697,-0.331970184071255,-0.0109997970582878,,
9.28644446557627,-0.327206254739955,-0.0108679263603046,,
9.32513798418283,-0.322226837456828,-0.0107291598579815,,
9.3638315027894,-0.317106196832001,-0.0106153047001416,,
9.40252502139597,-0.311941295350709,-0.0105488315588289,,
9.44121854000254,-0.306564168737138,-0.0103741465607796,,
9.4799120586091,-0.301062132879603,-0.0102626717622223,,
9.51860557721567,-0.295840273917957,-0.0101197878816808,,
9.55729909582224,-0.290527339732432,-0.00997752924753881,,
9.59599261442881,-0.284972460384406,-0.00985962104551552,,
9.63468613303538,-0.279441342874385,-0.0097144191292875,,
9.67337965164194,-0.273771413671895,-0.0095581678426071,,
9.71207317024851,-0.26792841317169,-0.00944974891069617,,
9.75076668885508,-0.262171948320343,-0.00929131026683683,,
9.78946020746165,-0.256642249427517,-0.00914615660113505,,
9.82815372606821,-0.250416718800849,-0.00902565895421681,,
9.86684724467478,-0.244647486394752,-0.00883637013029936,,
9.90554076328135,-0.238533530010421,-0.00869718344631254,,
9.94423428188792,-0.232550441062272,-0.00854595222477395,,
9.98292780049449,-0.226483511837935,-0.00842365322488492,,
10.0216213191011,-0.220323379463927,-0.00824686329763891,,
10.0603148377076,-0.214126788628024,-0.00810392915613312,,
10.0990083563142,-0.207709531887535,-0.00789859100100676,,
10.1377018749208,-0.201368667682964,-0.0077512962182138,,
10.1763953935273,-0.195149378971951,-0.00757875434769417,,
10.2150889121339,-0.188798513516159,-0.00743064131639803,,
10.2537824307405,-0.182080580861322,-0.0072646776009222,,
10.292475949347,-0.175641122761741,-0.00706417857146535,,
10.3311694679536,-0.169153502608411,-0.00691125657107827,,
10.3698629865602,-0.162516360202794,-0.00674043362554722,,
10.4085565051667,-0.155893971415998,-0.00656126333901863,,
10.4472500237733,-0.149247749860337,-0.00637191219150557,,
10.4859435423799,-0.142556700001334,-0.00619819220397577,,
10.5246370609864,-0.1357118011076,-0.00600384109570618,,
10.563330579593,-0.128965212385436,-0.0058499540847996,,
10.6020240981996,-0.122217985285535,-0.00564832920973624,,
10.6407176168061,-0.115467353504368,-0.00545750038986403,,
10.6794111354127,-0.108536273616075,-0.00529711564145652,,
10.7181046540193,-0.101653639504971,-0.00507439121346343,,
10.7567981726258,-0.0947478110027382,-0.00491527706224026,,
10.7954916912324,-0.0878026868042215,-0.00472320780176272,,
10.834185209839,-0.0808329495973823,-0.00455492404016189,,
10.8728787284455,-0.0738525018307255,-0.00433747701344922,,
10.9115722470521,-0.0668542504182793,-0.00416450088819564,,
10.9502657656587,-0.0598512466382319,-0.00397466522498391,,
10.9889592842652,-0.0528756931008957,-0.00375205338155116,,
11.0276528028718,-0.0458066526904501,-0.00358975469561251,,
11.0663463214784,-0.0387366192479683,-0.0033922974597318,,
11.105039840085,-0.0316801335996929,-0.00321388309811077,,
11.1437333586915,-0.024645210932772,-0.00299696481674561,,
11.1824268772981,-0.0175720565324626,-0.00279732022368684,,
11.2211203959047,-0.0104392492791297,-0.00258334723484577,,
11.2598139145112,-0.00338666482813878,-0.00240792038495918,,
11.2985074331178,0.00370241355017748,-0.00218519796740457,,
11.3372009517244,0.0107546788122996,-0.00197147829382516,,
11.3758944703309,0.0179045094719651,-0.00177601742345779,,
11.4145879889375,0.0249423048387046,-0.00157540781987908,,
11.4532815075441,0.0320293616875189,-0.00138000927310777,,
11.4919750261506,0.0389663997680277,-0.00117317535167549,,
11.5306685447572,0.0460569676943981,-0.000965698089896883,,
11.5693620633638,0.0531477838787775,-0.000759700510915007,,
11.6080555819703,0.0601699389909489,-0.000579613464392725,,
11.6467491005769,0.0670961955807805,-0.000385274418754911,,
11.6854426191835,0.0741824721901378,-0.000179150182142429,,
11.72413613779,0.0811172404831356,4.98628977387838E-05,,
11.7628296563966,0.0880846015061742,0.000248236893613196,,
11.8015231750032,0.0950290518615237,0.000461745471141306,,
11.8402166936097,0.101893173018241,0.000657871796679643,,
11.8789102122163,0.108827373864361,0.000853829245377469,,
11.9176037308229,0.11553487968282,0.00106606320484381,,
11.9562972494294,0.122450354781974,0.00125829732128535,,
11.994990768036,0.129185381774004,0.00146708136814322,,
12.0336842866426,0.135998751900592,0.00166530659156239,,
12.0723778052491,0.142760377965016,0.001866253948823,,
12.1110713238557,0.149532891916407,0.00207657799163563,,
12.1497648424623,0.156130313040582,0.00227713934468854,,
12.1884583610688,0.162766887999321,0.00248626114522832,,
12.2271518796754,0.169277206027761,0.00264910264958429,,
12.265845398282,0.175910943752112,0.00286354407061529,,
12.3045389168886,0.182533899985785,0.00308247279056362,,
12.3432324354951,0.188827417841495,0.00327502053542394,,
12.3819259541017,0.195297766330483,0.00343071292017827,,
12.4206194727083,0.201745948925809,0.00364428583174137,,
12.4593129913148,0.207939631596464,0.00383973262903847,,
12.4980065099214,0.214319153119582,0.00403008095408941,,
12.536700028528,0.220470312739835,0.00422218238158445,,
12.5753935471345,0.226731486123512,0.00440481062247544,,
12.6140870657411,0.232876049173812,0.00461799752983039,,
12.6527805843477,0.238894993671549,0.00480451797981862,,
12.6914741029542,0.244795022582967,0.00496456497454423,,
12.7301676215608,0.250938486204941,0.0051576314125592,,
12.7688611401674,0.256771308126776,0.00536002628559995,,
12.8075546587739,0.262287140036527,0.0055502258381952,,
12.8462481773805,0.268275123213996,0.00575424916648837,,
12.8849416959871,0.274166640422249,0.00592676088042943,,
12.9236352145936,0.279718824397605,0.00609460837685738,,
12.9623287332002,0.285204936277134,0.00627004728937575,,
13.0010222518068,0.290649837327166,0.00647412690994864,,
13.0397157704133,0.296060727029963,0.00663213531995099,,
13.0784092890199,0.301378839168248,0.00680631971879331,,
13.1171028076265,0.306646164810974,0.00698902837722803,,
13.155796326233,0.312070105791959,0.00716892242164624,,
13.1944898448396,0.316966604900074,0.00729213818152896,,
13.2331833634462,0.322033905518393,0.00750273564398896,,
13.2718768820527,0.327160788058875,0.00769213504202826,,
