Time domain (s),Current (AC) (A),Potential (AC) (V),Frequency (Hz),Column 5
0,0.0203807067238423,0.00129206329039011,10000,0.4
3.125E-06,0.0532538963137038,0.00176216864118173,,
6.25E-06,0.0848262634909732,0.00217904674990654,,
9.375E-06,0.113019791614183,0.00245592492774671,,
1.25E-05,0.136959147699145,0.00270224435102762,,
1.5625E-05,0.155595313098742,0.00279307354155467,,
1.875E-05,0.167972438870274,0.00275855615429466,,
2.1875E-05,0.173927268579744,0.00264724871720023,,
2.5E-05,0.173227383538158,0.00244678598712333,,
2.8125E-05,0.165682399760376,0.00215148818671107,,
3.125E-05,0.15196238798257,0.00174221686238996,,
3.4375E-05,0.131968949440947,0.00127890497078464,,
3.75E-05,0.107049563624883,0.00077384013479298,,
4.0625E-05,0.0781978673758003,0.000239566461615937,,
4.375E-05,0.0461870970157498,-0.000307760912570121,,
4.6875E-05,0.0131669448564776,-0.000819971873661451,,
5E-05,-0.0196350313003983,-0.00129593924065086,,
5.3125E-05,-0.0529552910222886,-0.00173693699806021,,
5.625E-05,-0.0847243401678199,-0.00216626809456244,,
5.9375E-05,-0.113083233682677,-0.00244850544437902,,
6.25E-05,-0.137018574081153,-0.00267559698206021,,
6.5625E-05,-0.155825160592792,-0.00277241643093529,,
6.875E-05,-0.168456430206098,-0.00278142712940843,,
7.1875E-05,-0.174419811305492,-0.00266818256088186,,
7.5E-05,-0.173562707804553,-0.00244781192432786,,
7.8125E-05,-0.166078623790152,-0.00214339036986244,,
8.125E-05,-0.152127493365739,-0.00173714454785667,,
8.4375E-05,-0.132153295451446,-0.00127352217525489,,
8.75E-05,-0.107104194294975,-0.000771000246117204,,
9.0625E-05,-0.0779723244665435,-0.000232737567098962,,
9.375E-05,-0.0460397010988767,0.000319862921830172,,
9.6875E-05,-0.0125704276295871,0.000829637282061313,,
0.0001,0.0202828279770046,0.00126924631197145,,
0.000103125,0.0534053945865542,0.00175756204814226,,
0.00010625,0.0846917524386484,0.0021558922921443,,
0.000109375,0.11313861548837,0.00246852303164236,,
0.0001125,0.136965243453449,0.00267544174156198,,
0.000115625,0.155545738149045,0.00278954350762106,,
0.00011875,0.16795727170909,0.00279002947787577,,
0.000121875,0.174054441615039,0.00266178057773425,,
0.000125,0.173256215589323,0.00245518584798443,,
0.000128125,0.165753988761162,0.00213177601825354,,
0.00013125,0.151693625886398,0.00175276309187655,,
0.000134375,0.131967678288391,0.00130294699921985,,
0.0001375,0.107276608805343,0.000779481102020529,,
0.000140625,0.0782658740375642,0.000222510255591946,,
0.00014375,0.0463223592036761,-0.000322130783019237,,
0.000146875,0.0131254590594118,-0.000822658209236327,,
0.00015,-0.0196769793347573,-0.00130711993130328,,
0.000153125,-0.0529236855473652,-0.00176007964404512,,
0.00015625,-0.0846391729465455,-0.00217007654895474,,
0.000159375,-0.11302562736001,-0.00248188046406073,,
0.0001625,-0.137103336844796,-0.00267735524943991,,
0.000165625,-0.15574218899866,-0.00276583220894233,,
0.00016875,-0.168299385085729,-0.00278136807052309,,
0.000171875,-0.174329328355346,-0.00266930636709617,,
0.000175,-0.173684507331315,-0.00244710153030958,,
0.000178125,-0.166130972163608,-0.00211925890940057,,
0.00018125,-0.152011414025481,-0.00174628517587694,,
0.000184375,-0.132202350384189,-0.00127548630503416,,
0.0001875,-0.10709003827787,-0.000754224147948346,,
0.000190625,-0.0780102279245869,-0.000238970810574557,,
0.00019375,-0.0458843893683574,0.000342074124827008,,
0.000196875,-0.0126915915800704,0.000804279084185566,,
0.0002,0.0203634594948394,0.0012986508871764,,
0.000203125,0.0533057535600361,0.00177913710257593,,
0.00020625,0.0848682115253322,0.00214246736385748,,
0.000209375,0.112995264147812,0.00246425391794602,,
0.0002125,0.136979399470553,0.00268447943838224,,
0.000215625,0.155446877147959,0.00279564175935887,,
0.00021875,0.168085455888464,0.0027814338789951,,
0.000221875,0.173978605809121,0.00268496878343072,,
0.000225,0.17322359897032,0.00246274876007391,,
0.000228125,0.165734257006708,0.00213422611828751,,
0.00023125,0.151980848584468,0.0017637784176503,,
0.000234375,0.131905507372454,0.00127887459764331,,
0.0002375,0.107066753074225,0.000776173804453606,,
0.000240625,0.0781786267484704,0.000247127686308524,,
0.00024375,0.0462022641769333,-0.00031625358025078,,
0.000246875,0.013204357187397,-0.000809398645827741,,
0.00025,-0.0196006524017156,-0.00127245911532237,,
0.000253125,-0.0529740116326637,-0.00176390497240453,,
0.00025625,-0.0847526522020291,-0.00218875940541441,,
0.000259375,-0.113063299699407,-0.00248486378145785,,
0.0002625,-0.137108132556713,-0.00268352774663372,,
0.000265625,-0.155827182880949,-0.00279626947093847,,
0.00026875,-0.168503693969329,-0.00279194129835725,,
0.000271875,-0.174363707254029,-0.00265979451179765,,
0.000275,-0.173806942434354,-0.00243788665683375,,
0.000278125,-0.166011137145343,-0.00213172370895531,,
0.00028125,-0.152078438432997,-0.00174771777569038,,
0.000284375,-0.132157108909115,-0.00130242390623758,,
0.0002875,-0.107192423838317,-0.000770409657265603,,
0.000290625,-0.0779427412797779,-0.000248496165046852,,
0.00029375,-0.0460146247257199,0.000303809029456925,,
0.000296875,-0.0125415955784229,0.000801945414524941,,
0.0003,0.0202825679685272,0.0012984888970915,,
0.000303125,0.0534273797478126,0.00176417664327611,,
0.00030625,0.0847519010664277,0.00216141345420517,,
0.000309375,0.113098949750646,0.00250176812177649,,
0.0003125,0.13699887121653,0.00268972049258798,,
0.000315625,0.155528028682749,0.00277037130611291,,
0.00031875,0.167989397200968,0.00279229058947728,,
0.000321875,0.173851663892473,0.00264763344365226,,
0.000325,0.173400838082436,0.00244344494162174,,
0.000328125,0.165849556321534,0.00210902991049711,,
0.00033125,0.15184937096438,0.00171969349100065,,
0.000334375,0.131988421186924,0.00126738342599531,,
0.0003375,0.107165354066833,0.000759559696370093,,
0.000340625,0.0782461422831102,0.000226644377550933,,
0.00034375,0.0463617938227533,-0.00028524091597415,,
0.000346875,0.013066061567234,-0.000818819381703584,,
0.00035,-0.0197336611828375,-0.00127321169425887,,
0.000353125,-0.052858221190714,-0.0017624116263093,,
0.00035625,-0.0845349384369261,-0.00215886885995475,,
0.000359375,-0.113007657885237,-0.00249130288733301,,
0.0003625,-0.137090105302278,-0.00266233573125474,,
0.000365625,-0.15588178466121,-0.00279343464445247,,
0.00036875,-0.16833301284881,-0.00278529464268562,,
0.000371875,-0.174374800949066,-0.00267091614356474,,
0.000375,-0.17358743749974,-0.00244575667512548,,
0.000378125,-0.166109478129474,-0.00215244494065026,,
0.00038125,-0.152102474772244,-0.00173612536023926,,
0.000384375,-0.13204530526382,-0.00127061141591645,,
0.0003875,-0.107128692871515,-0.000763334402828164,,
0.000390625,-0.0779700710597391,-0.000205609290066633,,
0.00039375,-0.0458353922152769,0.000322091972894345,,
0.000396875,-0.0126668041052218,0.000829902203345778,,
0.0004,0.0203890269951202,0.0012878852961169,,
0.000403125,0.053362637636932,0.00178607905267336,,
0.00040625,0.0848075428805981,0.00216327634018176,,
0.000409375,0.112940922376029,0.00248066216362997,,
0.0004125,0.137083316192034,0.00268513077351562,,
0.000415625,0.155489114080626,0.00278722164973733,,
0.00041875,0.1681196036685,0.002778761042594,,
0.000421875,0.174022605021469,0.00266056902689105,,
0.000425,0.173168708291751,0.00243197064394085,,
0.000428125,0.165754739896764,0.00213549504061961,,
0.00043125,0.151905503905674,0.00176094359116474,,
0.000434375,0.131911054219972,0.0012770150864605,,
0.0004375,0.10706903537086,0.000747525182978492,,
0.000440625,0.0781402032734721,0.000247925824956141,,
0.00044375,0.0461683475155439,-0.000292270610700474,,
0.000446875,0.0131616291276057,-0.000848031593682297,,
0.00045,-0.0196112838594595,-0.00129071168561934,,
0.000453125,-0.0530336402434881,-0.00175236992844141,,
0.00045625,-0.0847521321850743,-0.00215901566346943,,
0.000459375,-0.113059255123091,-0.00248139280640913,,
0.0004625,-0.136925028808939,-0.00269461900525991,,
0.000465625,-0.155774776727831,-0.00277556342581375,,
0.00046875,-0.168275868763437,-0.00279024377725889,,
0.000471875,-0.174435758492108,-0.00265675213551519,,
0.000475,-0.173549245143388,-0.00246089431108132,,
0.000478125,-0.166048289467785,-0.00214105670020182,,
0.00048125,-0.152101723636643,-0.00173074931429618,,
0.000484375,-0.132130588044417,-0.00127770016952811,,
0.0004875,-0.107245465567713,-0.000779889452026339,,
0.000490625,-0.0779596707206418,-0.000216656676378157,,
0.00049375,-0.0460353676242529,0.000298168062228932,,
0.000496875,-0.0125737210703012,0.000843607239488176,,
0.0005,0.0202372976036232,0.00130967971212392,,
0.000503125,0.0533972765440921,0.0017766127570864,,
0.00050625,0.0847185333118239,0.00216335058563732,,
0.000509375,0.113070117699482,0.00244948582187154,,
0.0005125,0.136812242909395,0.0027001486043039,,
0.000515625,0.155600108810659,0.00280104480364951,,
0.00051875,0.167906974513622,0.00275653465302694,,
0.000521875,0.173972018927693,0.00265729210246501,,
0.000525,0.173289323335449,0.00246974808165934,,
0.000528125,0.165809572795671,0.00212725716984297,,
0.00053125,0.151799796014682,0.00171725689014002,,
0.000534375,0.131895135923187,0.0012565908365878,,
0.0005375,0.107135250863113,0.000765673134678568,,
0.000540625,0.0782443800034298,0.000232005236923349,,
0.00054375,0.0463261437715143,-0.000293185179721434,,
0.000546875,0.0130789464317823,-0.000821255982563773,,
0.00055,-0.0197531329288141,-0.00128731495602619,,
0.000553125,-0.0529148452591325,-0.00174965321972564,,
0.00055625,-0.0846629203874843,-0.00215446644191797,,
0.000559375,-0.113068095411324,-0.00246274201048724,,
0.0005625,-0.137157938625057,-0.00268652456320462,,
0.000565625,-0.155847405762527,-0.00279749452095546,,
0.00056875,-0.168223000373026,-0.00277215150965038,,
0.000571875,-0.174423104746206,-0.00267311650888491,,
0.000575,-0.173629443313761,-0.0024399975901277,,
0.000578125,-0.165953415263353,-0.00213417549638617,,
0.00058125,-0.152011934042436,-0.0017583652489801,,
0.000584375,-0.132162944654942,-0.0012812318908586,,
0.0005875,-0.107072068803097,-0.000753409135333616,,
0.000590625,-0.0780431045520666,-0.000246709211922713,,
0.00059375,-0.0459255862671149,0.000310453997731663,,
0.000596875,-0.0126829824104843,0.000807704499522721,,
0.0006,0.0203571615117193,0.00127952255798336,,
0.000603125,0.0533143627296222,0.00178966645809542,,
0.00060625,0.084845706347119,0.00214874447964775,,
0.000609375,0.112928759757251,0.00247060527919185,,
0.0006125,0.137016320674349,0.00267133461795055,,
0.000615625,0.155541693572729,0.00277106651356052,,
0.00061875,0.16795727170909,0.00280057233256859,,
0.000621875,0.173918168283033,0.00266423067776866,,
0.000625,0.173137622833783,0.00244533820073922,,
0.000628125,0.165823497694129,0.00211111215804705,,
0.00063125,0.151935318211086,0.00175522669108474,,
0.000634375,0.132030658119591,0.0012876186874351,,
0.0006375,0.107055110472402,0.000756930732283667,,
0.000640625,0.0781798979010267,0.000233098669996323,,
0.00064375,0.0462050376006926,-0.000314274263900849,,
0.000646875,0.0132222977723398,-0.000840293192334585,,
0.00065,-0.0196271732664137,-0.00129080111764512,,
0.000653125,-0.05302636000612,-0.00179161033911468,,
0.00065625,-0.0847589501851491,-0.00215319751958631,,
0.000659375,-0.113134830920532,-0.00245795655339531,,
0.0006625,-0.137022618657469,-0.00267307094917335,,
0.000665625,-0.155646910336597,-0.00277185621522502,,
0.00066875,-0.168359071476215,-0.00279287105394843,,
0.000671875,-0.174265539608883,-0.00265543934086887,,
0.000675,-0.173649146178384,-0.00245094035784277,,
0.000678125,-0.166083188383422,-0.00211782799698401,,
0.00068125,-0.152016787534015,-0.00172284892286312,,
0.000684375,-0.132195012367159,-0.00129186417757765,,
0.0006875,-0.107130195142718,-0.000761415832760015,,
0.000690625,-0.0779349410254549,-0.000227022354415851,,
0.00069375,-0.0460459990819967,0.000291833574950218,,
0.000696875,-0.0125582939006402,0.000816905873825213,,
0.0007,0.0202813257058017,0.00129930222230934,,
0.000703125,0.05340210114584,0.0017533368067606,,
0.00070625,0.0847165110236661,0.00215157930613374,,
0.000709375,0.113057983970535,0.00245988356044702,,
0.0007125,0.136951058546513,0.0026774328696888,,
0.000715625,0.155535626708256,0.002797352779631,,
0.00071875,0.167987143794164,0.00278660068774483,,
0.000721875,0.174016538156995,0.00264345207458527,,
0.000725,0.173306281666144,0.00245641089800186,,
0.000728125,0.165667752616148,0.00213853910429851,,
0.00073125,0.151836197201523,0.00176293471929156,,
0.000734375,0.132029646975512,0.00126320543172165,,
0.0007375,0.107147673490368,0.000761864680286717,,
0.000740625,0.0782355108253663,0.000229627694948054,,
0.00074375,0.0462985828729065,-0.000311986153951782,,
0.000746875,0.0131022027455971,-0.000810343587989593,,
0.00075,-0.0197005534367112,-0.00129687068363937,,
0.000753125,-0.052925707835523,-0.00179101975026308,,
0.00075625,-0.0846037540139531,-0.00214985816148161,,
0.000759375,-0.113030943088882,-0.00247247322735866,,
0.0007625,-0.137035503522017,-0.00269554876085154,,
0.000765625,-0.155826662863995,-0.0027828749157921,,
0.00076875,-0.168453136765384,-0.002784467818294,,
0.000771875,-0.174398837288313,-0.00265815604958464,,
0.000775,-0.173601651296506,-0.00242979221477801,,
0.000778125,-0.166150155011276,-0.00214327225209221,,
0.00078125,-0.15219573114615,-0.00173978701111688,,
0.000784375,-0.132171784943175,-0.0012730345176033,,
0.0007875,-0.107112803464561,-0.000767885311776073,,
0.000790625,-0.0780618251624417,-0.00022195847686568,,
0.00079375,-0.0459170348771905,0.000314147709147061,,
0.000796875,-0.0126253760878177,0.000836754721416977,,
0.0008,0.0203887958764736,0.00130864702533273,,
0.000803125,0.0532665500596055,0.00175807839153785,,
0.00080625,0.0849051616189584,0.00218415956196161,,
0.000809375,0.112937888943792,0.00247330848873384,,
0.0008125,0.136918961944466,0.00267682878166386,,
0.000815625,0.155443352588598,0.00278025270129234,,
0.00081875,0.168116339117617,0.00279366413040583,,
0.000821875,0.173980108080324,0.00266247578518186,,
0.000825,0.173275918453946,0.00244820340036611,,
0.000828125,0.165809341677025,0.00213297069512963,,
0.00083125,0.151842784082951,0.00175713344937556,,
0.000834375,0.13204076956038,0.00126119742962771,,
0.0008375,0.107032865302666,0.000739074700215614,,
0.000840625,0.0781953250706876,0.00022389898309072,,
0.00084375,0.046248256787608,-0.000305916587957533,,
0.000846875,0.0132369738063993,-0.000802203586223182,,
0.00085,-0.0195723403675064,-0.00129657538921357,,
0.000853125,-0.052997007938001,-0.00180035274150958,,
0.00085625,-0.0847283847441355,-0.00218678008906448,,
0.000859375,-0.11314315119181,-0.00248698990132246,,
0.0008625,-0.137014760623484,-0.00267423694030544,,
0.000865625,-0.155865606355948,-0.00281818537950951,,
0.00086875,-0.168446029867,-0.00279513216555038,,
0.000871875,-0.174400108440869,-0.00263982754643566,,
0.000875,-0.173683005060112,-0.00244445737965293,,
0.000878125,-0.166036155738838,-0.00213751316709399,,
0.00088125,-0.152163663433933,-0.00173969757909065,,
0.000884375,-0.132143184010657,-0.00127296195954463,,
0.0008875,-0.10712921288847,-0.000773126365981369,,
0.000890625,-0.0779285852626733,-0.000233358529091454,,
0.00089375,-0.0460659908449282,0.000320586815022228,,
0.000896875,-0.0125985663248114,0.000832899019916677,,
0.0009,0.0202271861628342,0.00131101275553114,,
0.000903125,0.0534101902984712,0.00176134181679011,,
0.00090625,0.0847248601847748,0.00214652724036046,,
0.000909375,0.113001071003808,0.00247252553665689,,
0.0009125,0.136906308198564,0.00268013945402412,,
0.000915625,0.155486831783991,0.00280382563344039,,
0.00091875,0.16791353250522,0.00277856867936821,,
0.000921875,0.174037512174175,0.00268284266356611,,
0.000925,0.173297903615204,0.00244699184952291,,
0.000928125,0.165726398972724,0.0021278612578679,,
0.00093125,0.151837468354079,0.0017219546026026,,
0.000934375,0.131906258508055,0.00127155129588807,,
0.0009375,0.107125399430801,0.000756222025662279,,
0.000940625,0.078287628080176,0.000247984883841035,,
0.00094375,0.046329177203751,-0.000313432252938561,,
0.000946875,0.0130392229143969,-0.000822997375976797,,
0.00095,-0.0197553863356185,-0.00128424220660328,,
0.000953125,-0.0529535576324391,-0.00175415688156555,,
0.00095625,-0.0846434486415077,-0.00217155470847974,,
0.000959375,-0.112822820747613,-0.00247445085631215,,
0.0009625,-0.137115701692389,-0.00270460164424247,,
0.000965625,-0.155759407337832,-0.00277835437998508,,
0.00096875,-0.168302389628135,-0.0027752681313884,,
0.000971875,-0.174373529796509,-0.00268108945837664,,
0.000975,-0.173566463482561,-0.00244337913315018,,
0.000978125,-0.166150675028231,-0.00215183916522843,,
0.00098125,-0.151989399974392,-0.00172686492705187,,
0.000984375,-0.132073906196337,-0.0012887627424103,,
0.0009875,-0.107019951548287,-0.000765166915663418,,
0.000990625,-0.078013521365301,-0.000233402401406124,,
0.00099375,-0.0458962919786576,0.000313690424636359,,
0.000996875,-0.0126498746643579,0.00082525005059475,,
0.001,0.020371808655948,0.0012976013264181,,
0.001003125,0.053289344136127,0.00175630662498394,,
0.00100625,0.0847599902190589,0.00215799141366135,,
0.001009375,0.113035449902491,0.00244066748662419,,
0.0010125,0.136910872791835,0.00270502180602517,,
0.001015625,0.155423620834144,0.00280389650410262,,
0.00101875,0.168023776099651,0.0027955978870442,,
0.001021875,0.173960145207223,0.00267821582176575,,
0.001025,0.1731424185457,0.00243839625064224,,
0.001028125,0.165810843948228,0.00214106682458182,,
0.00103125,0.151861735811973,0.00172552850885088,,
0.001034375,0.13204530526382,0.00129312635032219,,
0.0010375,0.107095325116911,0.000785388677929877,,
0.001040625,0.078186484782455,0.00022441532648676,,
0.00104375,0.0462229781856354,-0.000319724555299494,,
0.001046875,0.013178818576947,-0.00079408214582033,,
0.00105,-0.019614519520512,-0.00129034214573798,,
0.001053125,-0.0530003013787152,-0.00176446518811479,,
0.00105625,-0.0847390162018794,-0.00216485068131966,,
0.001059375,-0.113161120666583,-0.00249407865493367,,
0.0010625,-0.137067340115587,-0.00269055744136004,,
0.001065625,-0.155815800287604,-0.00279208978926837,,
0.00106875,-0.168343124289599,-0.00277771991881925,,
0.001071875,-0.174450665644814,-0.00265796368635884,,
0.001075,-0.17368329395842,-0.00245382074403988,,
0.001078125,-0.166130452146653,-0.00212528460308015,,
0.00108125,-0.152099470229838,-0.00175626781485949,,
0.001084375,-0.132102218230546,-0.00127327075314376,,
0.0010875,-0.107183063533129,-0.000787023765349559,,
0.001090625,-0.0779789113479718,-0.000226048726509553,,
0.00109375,-0.0459982153018109,0.000281390276663629,,
0.001096875,-0.0125760322567673,0.00084785947921695,,
0.0011,0.02022389272212,0.00130542747239515,,
0.001103125,0.0533798270862734,0.00177139870122822,,
0.00110625,0.0846978193031218,0.00214930469535801,,
0.001109375,0.113063299699407,0.00247703088589324,,
0.0011125,0.136851706418303,0.00267891440400714,,
0.001115625,0.155481776063596,0.00277955749384473,,
0.00111875,0.167924655090088,0.0027732365057398,,
0.001121875,0.174028671885942,0.00267887053169247,,
0.001125,0.173208431809137,0.00244383304286711,,
0.001128125,0.165768895913869,0.00213356128398079,,
0.00113125,0.151750481073463,0.00172382761295919,,
0.001134375,0.132028144704309,0.00127020812810086,,
0.0011375,0.107166625219389,0.000753490130375845,,
0.001140625,0.0783048175295173,0.000242831574265079,,
0.00114375,0.0463554669498024,-0.000331833314146657,,
0.001146875,0.0131209233559722,-0.000836688912944972,,
0.00115,-0.0197397280473109,-0.00129868632250751,,
0.001153125,-0.0528893066486825,-0.00176719708340123,,
0.00115625,-0.0847283847441355,-0.0021713623452535,,
0.001159375,-0.113086296004744,-0.00248960536623466,,
0.0011625,-0.137112177133029,-0.00268311433443813,,
0.001165625,-0.15583174747422,-0.00279830615877685,,
0.00116875,-0.168405873002153,-0.00279049351197314,,
0.001171875,-0.174305812033054,-0.00268342481543415,,
0.001175,-0.173696641060261,-0.00245147357520548,,
0.001178125,-0.166051351789852,-0.00212141540240607,,
0.00118125,-0.151848648718609,-0.0017177833579165,,
0.001184375,-0.132039238399346,-0.0012879511045889,,
