Time domain (s),Current (AC) (A),Potential (AC) (V),Frequency (Hz),Column 5
0,0.365949220459917,0.0162327842796914,0.0050119,0.4
0.48712189987829,0.364526685190056,0.0162792455678122,,
0.974243799756579,0.363383341245295,0.0163214285565214,,
1.46136569963487,0.361639551056651,0.0163446722441778,,
1.94848759951316,0.360274795448442,0.0163860334863539,,
2.43560949939145,0.358485012649124,0.0163915509273629,,
2.92273139926974,0.356948535886486,0.0164352567558783,,
3.40985329914803,0.355201510036789,0.0164558688980883,,
3.89697519902632,0.353104570556132,0.0164688570585732,,
4.38409709890461,0.351235976298321,0.0164899648574224,,
4.8712189987829,0.349235875530591,0.016506256308535,,
5.35834089866119,0.346980850895654,0.0164826343566014,,
5.84546279853948,0.344907716635597,0.0164883996259304,,
6.33258469841777,0.342734508001559,0.0164846691575411,,
6.81970659829605,0.340400903026776,0.0164728516597767,,
7.30682849817434,0.337902510456963,0.01646701791157,,
7.79395039805263,0.33528971415708,0.0164788223657388,,
8.28107229793092,0.332631156365169,0.0164007466623786,,
8.76819419780921,0.329994554844686,0.0164076597681349,,
9.2553160976875,0.327193165729172,0.0163654506922342,,
9.74243799756579,0.324250563120582,0.0163543636358323,,
10.2295598974441,0.321487770819052,0.0163028936069369,,
10.7166817973224,0.318660958652412,0.016250588787913,,
11.2038036972007,0.315655722890592,0.0162140275889788,,
11.690925597079,0.312357659803521,0.0161654401947482,,
12.1780474969572,0.309202196921407,0.0161185354243711,,
12.6651693968355,0.305607146373448,0.0160605044668052,,
13.1522912967138,0.302563082678998,0.0160092985707245,,
13.6394131965921,0.29896317863946,0.0159596383407417,,
14.1265350964704,0.295647088297955,0.015886059417022,,
14.6136569963487,0.292091790157212,0.0158353230903887,,
15.100778896227,0.288345356895725,0.0157254894922358,,
15.5879007961053,0.284760475568217,0.0156377615280081,,
16.0750226959836,0.280966200746883,0.0155874915099234,,
16.5621445958618,0.277044810669916,0.0155002526805372,,
17.0492664957401,0.273203849881968,0.0154328727257056,,
17.5363883956184,0.269270672754024,0.0153107846693294,,
18.0235102954967,0.265140120301878,0.0152379133606804,,
18.510632195375,0.261233521818294,0.0151378918074427,,
18.9977540952533,0.25719611018073,0.0150241679568519,,
19.4848759951316,0.252703394809353,0.0149249551065518,,
19.9719978950099,0.248703886629833,0.0147998800667457,,
20.4591197948882,0.244282586920256,0.0146976965375094,,
20.9462416947665,0.239875385448123,0.0145448647259117,,
21.4333635946447,0.235348233398401,0.0144372811480284,,
21.920485494523,0.230987949011529,0.0143190018216162,,
22.4076073944013,0.22637135404557,0.0141868701965002,,
22.8947292942796,0.221839579622916,0.0140681865186192,,
23.3818511941579,0.217117825672752,0.0139152112274679,,
23.8689730940362,0.212404391993865,0.0138125842159758,,
24.3560949939145,0.20753217980476,0.0136775177818125,,
24.8432168937928,0.202754032904824,0.0135184380878419,,
25.3303387936711,0.197896814537918,0.0133659225834415,,
25.8174606935494,0.193072039451029,0.0132260430624398,,
26.3045825934276,0.188084470167436,0.0130927309919069,,
26.7917044933059,0.182929339865054,0.0129336415152399,,
27.2788263931842,0.178027602268846,0.0127851662646283,,
27.7659482930625,0.172931176102702,0.0126028689701934,,
28.2530701929408,0.16772985096083,0.0124525284853871,,
28.7401920928191,0.162686177625774,0.0122873183014063,,
29.2273139926974,0.157387291525203,0.0121122080282392,,
29.7144358925757,0.151985355398076,0.011923232412772,,
30.201557792454,0.146852181367122,0.0117326393914294,,
30.6886796923322,0.141645569386209,0.0115763282006607,,
31.1758015922105,0.136171062004048,0.0114106973607169,,
31.6629234920888,0.130825056589401,0.011223052192018,,
32.1500453919671,0.125383859182182,0.0110122937716204,,
32.6371672918454,0.119971262707481,0.0108397661304149,,
33.1242891917237,0.114478265833592,0.0106822516679368,,
33.611411091602,0.108986857900398,0.0104339668225184,,
34.0985329914803,0.103435214669933,0.0102448607710937,,
34.5856548913586,0.097894347346365,0.0100564068994569,,
35.0727767912369,0.0924184243624939,0.00984366585250251,,
35.5598986911151,0.0868452293182323,0.00964391622693217,,
36.0470205909934,0.0811763800441067,0.00941631526350095,,
36.5341424908717,0.0754504155744385,0.0092646736800166,,
37.02126439075,0.069939391446114,0.00901460186197856,,
37.5083862906283,0.0642217761375544,0.00880474344968851,,
37.9955081905066,0.0584802978287328,0.00861006778287132,,
38.4826300903849,0.0527559511895908,0.00837339173768559,,
38.9697519902632,0.0471316789244293,0.00816588117263395,,
39.4568738901415,0.0414630029892886,0.00795332273602023,,
39.9439957900197,0.0356527091034399,0.0077094988003541,,
40.431117689898,0.0298844499214428,0.00750228823800514,,
40.9182395897763,0.0241628767060601,0.00726820786837701,,
41.4053614896546,0.01844384579579,0.00704820153858066,,
41.8924833895329,0.012680208986725,0.00678712092571532,,
42.3796052894112,0.00685648132954237,0.00657770925658063,,
42.8667271892895,0.00112196546994972,0.00635415180783694,,
43.3538490891678,-0.0046414402204687,0.0060874233180046,,
43.8409709890461,-0.0104341979790061,0.00588670846634765,,
44.3280928889244,-0.0162013015677702,0.00563316705183503,,
44.8152147888026,-0.0219517646139787,0.00538562569137557,,
45.3023366886809,-0.0277301930164265,0.00515348881751665,,
45.7894585885592,-0.0334450637910576,0.00491668233637288,,
46.2765804884375,-0.0392392082614747,0.00464391792259944,,
46.7637023883158,-0.0449487633072339,0.00442267897300352,,
47.2508242881941,-0.0506275217933328,0.004153840681556,,
47.7379461880724,-0.05635729972067,0.00394052571638825,,
48.2250680879507,-0.0620552410544372,0.00367335048340056,,
48.712189987829,-0.0676527035565924,0.00345178218301134,,
49.1993118877073,-0.0733431335343449,0.00318921460022903,,
49.6864337875855,-0.0789264400193955,0.00291618931453996,,
50.1735556874638,-0.0847136509304143,0.00268464592428819,,
50.6606775873421,-0.0902572627879103,0.00244929054317389,,
51.1477994872204,-0.0957756249332645,0.00219200561667643,,
51.6349213870987,-0.101457272402446,0.00193500438838745,,
52.122043286977,-0.106974305615582,0.00168729672208157,,
52.6091651868553,-0.112456844370712,0.00141738559488225,,
53.0962870867336,-0.117991962617946,0.00119511946211937,,
53.5834089866119,-0.123408228101162,0.000918376751637418,,
54.0705308864901,-0.128762958244719,0.000666087522319003,,
54.5576527863684,-0.134148080490304,0.000416579839797482,,
55.0447746862467,-0.139652633296524,0.0001690091312474,,
55.531896586125,-0.144886083930274,-9.26584434273181E-05,,
56.0190184860033,-0.15010012059771,-0.000337264994839437,,
56.5061403858816,-0.155407298079728,-0.000609810928383858,,
56.9932622857599,-0.160701128459904,-0.000825305804494025,,
57.4803841856382,-0.165796774600615,-0.0011151067847881,,
57.9675060855165,-0.170911372470349,-0.00136044377756317,,
58.4546279853948,-0.176053415679366,-0.00162393745564549,,
58.941749885273,-0.181127336667297,-0.00185106558873027,,
59.4288717851513,-0.186199928723009,-0.00213222029548055,,
59.9159936850296,-0.191040477657529,-0.00236991211068682,,
60.4031155849079,-0.196052747746478,-0.0026276421498892,,
60.8902374847862,-0.200955236478288,-0.00291294472009351,,
61.3773593846645,-0.205991600686145,-0.00314102503566893,,
61.8644812845428,-0.210658521737402,-0.00337531410282965,,
62.3516031844211,-0.215407721026851,-0.0036387800632709,,
62.8387250842994,-0.219922739347626,-0.00391441895946132,,
63.3258469841777,-0.224647440060535,-0.00411305824894237,,
63.8129688840559,-0.229272817535064,-0.00440181737202439,,
64.3000907839342,-0.233471087750666,-0.00460754259490548,,
64.7872126838125,-0.237910934731632,-0.00485629700977164,,
65.2743345836908,-0.242659440665141,-0.00510364434674404,,
65.7614564835691,-0.246675069370262,-0.00535298409297003,,
66.2485783834474,-0.251216204098103,-0.00557394260525701,,
66.7357002833257,-0.255587524400351,-0.00583876509965808,,
67.222822183204,-0.259712530004978,-0.00609037769244614,,
67.7099440830823,-0.263733301099986,-0.00627807503552846,,
68.1970659829606,-0.267978257282202,-0.00653914260479782,,
68.6841878828388,-0.272028149326682,-0.006748361880895,,
69.1713097827171,-0.275735523536892,-0.00701690343053896,,
69.6584316825954,-0.27970244398724,-0.00722073733203388,,
70.1455535824737,-0.283502554554401,-0.00745197256733565,,
70.632675482352,-0.287083044627624,-0.00768405889726109,,
71.1197973822303,-0.290959944365119,-0.00792551868119462,,
71.6069192821086,-0.294580649082852,-0.00814538316188651,,
72.0940411819869,-0.298026743663073,-0.00835915465290649,,
72.5811630818652,-0.30162658992295,-0.00860129596471859,,
73.0682849817434,-0.304942680264455,-0.00881540495877875,,
73.5554068816217,-0.308206942249459,-0.00902844763888488,,
74.0425287815,-0.311396957369241,-0.00925256270134778,,
74.5296506813783,-0.314701202880108,-0.00946752115958205,,
75.0167725812566,-0.31778802352418,-0.00967398823697252,,
75.5038944811349,-0.320879928778478,-0.00986788291849328,,
75.9910163810132,-0.32375088460662,-0.0100389741337148,,
76.4781382808915,-0.326899471708998,-0.0102649674739679,,
76.9652601807698,-0.329606506637034,-0.0104913260349027,,
77.4523820806481,-0.332025856629708,-0.010670859717484,,
77.9395039805263,-0.334548978894707,-0.0108666163723008,,
78.4266258804046,-0.337070252210534,-0.0110630268373551,,
78.9137477802829,-0.339586903153429,-0.0112512834246057,,
79.4008696801612,-0.341966038501593,-0.0114157256668852,,
79.8879915800395,-0.344370365782237,-0.0116316493512065,,
80.3751134799178,-0.346592571569356,-0.0118209901873554,,
80.8622353797961,-0.348867010170607,-0.0119666088904942,,
81.3493572796744,-0.351005551007654,-0.0121755542510802,,
81.8364791795527,-0.352878247621442,-0.0123343730731351,,
82.3236010794309,-0.354626197945725,-0.0125160051441857,,
82.8107229793092,-0.356542980441353,-0.0126549455262919,,
83.2978448791875,-0.358299886613192,-0.0128551386341185,,
83.7849667790658,-0.360152360345402,-0.0130107226444234,,
84.2720886789441,-0.361691841650446,-0.0131831198496712,,
84.7592105788224,-0.363102069852375,-0.0133353386122681,,
85.2463324787007,-0.364414303748144,-0.0134712528801564,,
85.733454378579,-0.365643681609103,-0.01364008918376,,
86.2205762784573,-0.367154735320615,-0.0137550032624643,,
86.7076981783355,-0.368138607399217,-0.0139244134842818,,
87.1948200782138,-0.369338113175103,-0.0140588929566356,,
87.6819419780921,-0.370082546335822,-0.0141852332252315,,
88.1690638779704,-0.371190933585283,-0.0143360302358899,,
88.6561857778487,-0.371991124119496,-0.0144555487038995,,
89.143307677727,-0.372725445839425,-0.0145892846912954,,
89.6304295776053,-0.373233849082297,-0.0147261772288663,,
90.1175514774836,-0.373931885174709,-0.0148456696096848,,
90.6046733773619,-0.374334667196082,-0.0149379530497336,,
91.0917952772402,-0.374737102539485,-0.0150537149621628,,
91.5789171771185,-0.374881089456321,-0.0151738595227693,,
92.0660390769967,-0.374733866878433,-0.015261369006768,,
92.553160976875,-0.374811696082678,-0.0153814613929915,,
93.0402828767533,-0.374898827812448,-0.015496923302718,,
93.5274047766316,-0.375006529101767,-0.0155630673768505,,
94.0145266765099,-0.375119372780972,-0.0156717987911614,,
94.5016485763882,-0.375004275694962,-0.015758121307945,,
94.9887704762665,-0.374244993161199,-0.0158336306838383,,
95.4758923761448,-0.373587460611605,-0.0159265141292928,,
95.9630142760231,-0.373338603608871,-0.0160160453706348,,
96.4501361759013,-0.373011570723924,-0.0160645936340784,,
96.9372580757796,-0.372363051801547,-0.0161725163454518,,
97.4243799756579,-0.371183364449607,-0.016213186277052,,
97.9115018755362,-0.37026721013446,-0.0162838434353203,,
98.3986237754145,-0.369374398802621,-0.0163476918365979,,
98.8857456752928,-0.368657930998141,-0.0163950140020392,,
99.3728675751711,-0.366861676876718,-0.01645108842024,,
99.8599894750494,-0.365915939374806,-0.0165096672088283,,
100.347111374928,-0.364791778277713,-0.0165380892040039,,
100.834233274806,-0.363201913107709,-0.0165864679007024,,
101.321355174684,-0.361722984888076,-0.0166037376214971,,
101.808477074563,-0.360102843175367,-0.0166313770009268,,
102.295598974441,-0.358386093868376,-0.016680160049094,,
102.782720874319,-0.356753240630103,-0.0167031819956223,,
103.269842774197,-0.355198505494384,-0.0167275735197059,,
103.756964674076,-0.353013047572076,-0.0167408910309836,,
104.244086573954,-0.3508798224639,-0.0167304561543702,,
104.731208473832,-0.349026019799472,-0.016749538934977,,
105.218330373711,-0.347008585133247,-0.0167623477460199,,
105.705452273589,-0.344635921107188,-0.0167718173965463,,
106.192574173467,-0.342257479114964,-0.0167665999582396,,
106.679696073345,-0.340052607226341,-0.0167291517947938,,
107.166817973224,-0.337508915401793,-0.0167530607058342,,
107.653939873102,-0.334925471170029,-0.0166808513596699,,
108.14106177298,-0.332626302873591,-0.0167584085800985,,
108.628183672859,-0.329677517841204,-0.016685755751678,,
109.115305572737,-0.326960255913055,-0.0166680555922225,,
109.602427472615,-0.324008524117924,-0.0166414597004545,,
110.089549372493,-0.321194192358201,-0.0166064115586293,,
110.576671272372,-0.317950037695451,-0.0165569763306737,,
111.06379317225,-0.315016217595432,-0.0165330804632293,,
111.550915072128,-0.311804881780501,-0.0164774756144759,,
112.038036972007,-0.308645200983086,-0.0164259012368149,,
112.525158871885,-0.305232734165946,-0.0163729703251936,,
113.012280771763,-0.30200932240173,-0.0163141567518816,,
113.499402671641,-0.298458877752565,-0.0162619041072407,,
113.98652457152,-0.295019081155464,-0.0161995687630716,,
114.473646471398,-0.291144203706126,-0.0161213854500466,,
114.960768371276,-0.287566949293956,-0.0160834285863656,,
115.447890271155,-0.283785154879539,-0.0159610013964997,,
115.935012171033,-0.28010337705944,-0.0159282619711254,,
116.422134070911,-0.276327649509497,-0.015806656527793,,
116.90925597079,-0.272364195838847,-0.015735595018056,,
117.396377870668,-0.268558885102138,-0.0156274114347674,,
117.883499770546,-0.264205476495003,-0.0155553194809652,,
118.370621670424,-0.260096418076991,-0.0154407706229422,,
118.857743570303,-0.256031734439128,-0.0153474306516364,,
119.344865470181,-0.25191088897014,-0.0152371340058335,,
119.831987370059,-0.247450934666919,-0.0151190764205493,,
120.319109269938,-0.242953654702271,-0.015008805861938,,
120.806231169816,-0.238851298725011,-0.0149042744854642,,
121.293353069694,-0.234173457317702,-0.0147647340979526,,
121.780474969572,-0.2297470729979,-0.0146658245112539,,
122.267596869451,-0.225244188406072,-0.0145207536391374,,
122.754718769329,-0.220514634201584,-0.0143962133867572,,
123.241840669207,-0.215853548896154,-0.0142870384901905,,
123.728962569086,-0.211168138353169,-0.0141204065542713,,
124.216084468964,-0.206320251401619,-0.0140001446013027,,
124.703206368842,-0.201450292619318,-0.0138418083922915,,
125.19032826872,-0.196602579006754,-0.0136934505340416,,
125.677450168599,-0.191766421326519,-0.0135606406419453,,
126.164572068477,-0.186822100119673,-0.013422378526819,,
126.651693968355,-0.181942029896584,-0.0132588395535458,,
127.138815868234,-0.176687085228699,-0.0130801015303059,,
127.625937768112,-0.17151210761254,-0.0129210740107188,,
128.11305966799,-0.166412012437881,-0.0127582247175724,,
128.600181567868,-0.161388879772542,-0.0125948797677866,,
129.087303467747,-0.156065928442894,-0.0124150085821646,,
129.574425367625,-0.150788854164596,-0.0122383852518881,,
130.061547267503,-0.145476592072353,-0.012074453340293,,
130.548669167382,-0.140167796759809,-0.0118725515214209,,
131.03579106726,-0.134891589176436,-0.0117095440746753,,
131.522912967138,-0.129494044303596,-0.0115229440240872,,
132.010034867016,-0.124067609599929,-0.0113397842218825,,
132.497156766895,-0.118700110151147,-0.011153184171294,,
132.984278666773,-0.113121599378014,-0.0109419953122361,,
133.471400566651,-0.107634322690628,-0.0107430543896032,,
133.95852246653,-0.102019815188285,-0.0105554353080954,,
134.445644366408,-0.096488394839398,-0.0103651031586685,,
134.932766266286,-0.0908960747271298,-0.0101559507309998,,
135.419888166165,-0.0853936019887297,-0.00997430398590371,,
135.907010066043,-0.0797362219774419,-0.00974360190757917,,
136.394131965921,-0.074065090406681,-0.00952603473019131,,
136.881253865799,-0.068398118971559,-0.0093072544983972,,
137.368375765678,-0.0626873505529051,-0.00909491780291161,,
137.855497665556,-0.0571178534069893,-0.00887886368263313,,
138.342619565434,-0.0513389049875866,-0.00866278347516269,,
138.829741465313,-0.0456340300944212,-0.00842865256160064,,
139.316863365191,-0.0399744544559906,-0.00823784921227633,,
139.803985265069,-0.0341210280527191,-0.00800373134231025,,
140.291107164947,-0.0284145353290274,-0.00776959716784953,,
140.778229064826,-0.022652458570827,-0.00754679950855897,,
141.265350964704,-0.0169045956093928,-0.00728652759863113,,
141.752472864582,-0.0111351808341627,-0.00708304750467148,,
142.239594764461,-0.00540060719490836,-0.00682974087488297,,
142.726716664339,0.000351878139457916,-0.0066030040496714,,
143.213838564217,0.00613284884701841,-0.00636730627416782,,
143.700960464095,0.01190965941894,-0.00611889099279184,,
144.188082363974,0.0177128175165747,-0.00587044962422434,,
144.675204263852,0.0234362396811302,-0.00560990379878579,,
145.16232616373,0.0292236817107957,-0.00535184766968877,,
145.649448063609,0.0349048380528531,-0.00514328220382954,,
146.136569963487,0.0406386316666751,-0.00491288012820723,,
146.623691863365,0.0463923303739361,-0.00467851279947196,,
147.110813763243,0.0521122857587926,-0.00440407554454136,,
147.597935663122,0.0577631366683138,-0.00415333850311894,,
148.085057563,0.0634176854761807,-0.00391289285875684,,
148.572179462878,0.0691022797081064,-0.00364619045611603,,
149.059301362757,0.0748092924487529,-0.00342362758154957,,
149.546423262635,0.0803136430261566,-0.00315404254424445,,
150.033545162513,0.0860814110810297,-0.00287865310682278,,
150.520667062392,0.0915725590057461,-0.00265719893789651,,
151.00778896227,0.0972391548730673,-0.00240540536521694,,
151.494910862148,0.102805618586746,-0.00214963349582886,,
151.982032762026,0.108264641019585,-0.00188222673901661,,
152.469154661905,0.113804092741442,-0.00162753911852631,,
152.956276561783,0.119274439987963,-0.00136588295699802,,
153.443398461661,0.124653928716538,-0.00112426338901628,,
153.93052036154,0.130079698954096,-0.000861852329382629,,
154.417642261418,0.135479323894756,-0.000593962959527072,,
154.904764161296,0.140883571208348,-0.000342144930105537,,
155.391886061174,0.146104079197889,-9.99759006523604E-05,,
155.879007961053,0.151459560477047,0.000190097364703323,,
156.366129860931,0.156668772542735,0.000422198368673854,,
156.853251760809,0.161907741134173,0.000706353102450485,,
157.340373660688,0.167251204243708,0.000955052082034502,,
157.827495560566,0.172205694671005,0.00120138690988547,,
158.314617460444,0.177299318523559,0.0014357379341261,,
158.801739360322,0.182425992342577,0.00171967092677461,,
159.288861260201,0.1873821006004,0.00198209176910469,,
159.775983160079,0.192286438281383,0.00222516569801456,,
160.263105059957,0.197174366538457,0.00248197779416515,,
160.750226959836,0.202194263542744,0.00273491594237329,,
161.237348859714,0.20703504359591,0.00296460714202595,,
161.724470759592,0.211902402293437,0.00322654537131317,,
162.21159265947,0.216540260174883,0.00348078787909767,,
162.698714559349,0.221012637105359,0.0037398858654063,,
163.185836459227,0.225818980480181,0.00397965976458714,,
163.672958359105,0.230355608394414,0.00423754143559041,,
164.160080258984,0.234561505525353,0.00448501757807129,,
164.647202158862,0.239208174805202,0.00472470669387937,,
165.13432405874,0.243616502980737,0.00495694791650481,,
165.621445958618,0.247883646553027,0.00521934593254247,,
166.108567858497,0.252124904836897,0.00547014819194347,,
166.595689758375,0.256504834308731,0.00571852434253239,,
167.082811658253,0.260423682080586,0.00598671371509019,,
167.569933558132,0.264554234532731,0.00618689377932125,,
168.05705545801,0.268669302035554,0.00643365578493382,,
