Time domain (s),Current (AC) (A),Potential (AC) (V),Frequency (Hz),Column 5
0,0.320960260560257,0.00783550052641546,19.953,0.5
0.000232479921565679,0.311352533749612,0.00767243218590608,,
0.000464959843131359,0.301248255455505,0.00748560361474038,,
0.000697439764697038,0.291110816984479,0.00729307776755883,,
0.000929919686262717,0.280644011066349,0.00702949782461149,,
0.0011623996078284,0.269786447042027,0.00685516441561695,,
0.00139487952939408,0.258790142256095,0.00662303278885945,,
0.00162735945095976,0.247603529973537,0.00639083642032912,,
0.00185983937252543,0.236222247946481,0.00615883427711728,,
0.00209231929409111,0.224608631888415,0.00591278316918498,,
0.00232479921565679,0.212696467841792,0.00567456581577419,,
0.00255727913722247,0.200754264576079,0.00544100987001261,,
0.00278975905878815,0.188564689937096,0.00516796144277798,,
0.00302223898035383,0.176209633602388,0.00495178866304213,,
0.00325471890191951,0.163818899045242,0.0046578893385707,,
0.00348719882348519,0.151177601226139,0.00438508773934565,,
0.00371967874505087,0.138390150370585,0.00412221995590034,,
0.00395215866661655,0.125587697638201,0.00387283464666321,,
0.00418463858818223,0.112642532016062,0.00358206315909548,,
0.00441711850974791,0.0994726574303338,0.0032899159088533,,
0.00464959843131359,0.086349348954011,0.00300511482665566,,
0.00488207835287927,0.073133475705755,0.00272002645284086,,
0.00511455827444495,0.0597950693973345,0.00246217413361594,,
0.00534703819601063,0.0465797990613861,0.00218255643961163,,
0.0055795181175763,0.0331052055023054,0.00188793281655597,,
0.00581199803914198,0.0197177859698192,0.00156823794194194,,
0.00604447796070766,0.00630014989109276,0.00128309898861678,,
0.00627695788227334,-0.00714443991432687,0.00101757679248271,,
0.00650943780383902,-0.020696915557379,0.000715863945293549,,
0.0067419177254047,-0.0341168214236164,0.000431358247435121,,
0.00697439764697038,-0.0475372238058719,0.000116889247802732,,
0.00720687756853606,-0.0608818720299476,-0.000173688014446061,,
0.00743935749010174,-0.0741728965240758,-0.000482344416779412,,
0.00767183741166742,-0.0874324277164888,-0.000756995202893407,,
0.0079043173332331,-0.100609962835067,-0.00104344315393945,,
0.00813679725479878,-0.113637621047059,-0.0013544322832777,,
0.00836927717636446,-0.126606406645484,-0.0016344890074298,,
0.00860175709793014,-0.139672722176023,-0.00193002103848672,,
0.00883423701949581,-0.152252735732329,-0.0022042004235665,,
0.0090667169410615,-0.164877506661117,-0.00250089578335544,,
0.00929919686262717,-0.177388362629197,-0.00277669371275824,,
0.00953167678419285,-0.189680964341922,-0.00305225290687305,,
0.00976415670575853,-0.201718782406537,-0.00333384724813168,,
0.00999663662732421,-0.213654176309717,-0.00363510690291013,,
0.0102291165488899,-0.225480620412369,-0.00387042706198359,,
0.0104615964704556,-0.237051145973156,-0.0041605025754925,,
0.0106940763920213,-0.248503429790791,-0.00441980956142762,,
0.0109265563135869,-0.259847969632513,-0.00469178772622891,,
0.0111590362351526,-0.270588462272869,-0.00494601450617127,,
0.0113915161567183,-0.28137803906815,-0.00520692385098576,,
0.011623996078284,-0.291978868845719,-0.00544192030119417,,
0.0118564759998496,-0.302147587825881,-0.00570876970367307,,
0.0120889559214153,-0.312457175493445,-0.00591780470294578,,
0.012321435842981,-0.321956519950439,-0.00616228582288558,,
0.0125539157645467,-0.331234560125111,-0.00640331742023736,,
0.0127863956861124,-0.340484795402772,-0.00662891215111161,,
0.013018875607678,-0.349521103207522,-0.00685165419761713,,
0.0132513555292437,-0.35817927859911,-0.00704635091737149,,
0.0134838354508094,-0.366423927078537,-0.00725015801848228,,
0.0137163153723751,-0.374139147621022,-0.00747562124263013,,
0.0139487952939408,-0.381606606670508,-0.00764127925405589,,
0.0141812752155064,-0.389478158827814,-0.00783435540630695,,
0.0144137551370721,-0.396609902118251,-0.00801189150988035,,
0.0146462350586378,-0.402614270324316,-0.00820967964929142,,
0.0148787149802035,-0.409241766133011,-0.00840048983949071,,
0.0151111949017692,-0.415350615495442,-0.00854510677472176,,
0.0153436748233348,-0.420937697453781,-0.00865848580452466,,
0.0155761547449005,-0.425572036104375,-0.0088230270203673,,
0.0158086346664662,-0.431115992100005,-0.00896824281699748,,
0.0160411145880319,-0.435386029855083,-0.0090905076551322,,
0.0162735945095976,-0.440116905405754,-0.00918163170049846,,
0.0165060744311632,-0.443251127304154,-0.00935161122526518,,
0.0167385543527289,-0.447096360140375,-0.00944694348587038,,
0.0169710342742946,-0.450461745710598,-0.00954000978442426,,
0.0172035141958603,-0.453108885395308,-0.00963836669973261,,
0.017435994117426,-0.455060831723912,-0.00969032399567071,,
0.0176684740389916,-0.457198120388962,-0.00978949220632064,,
0.0179009539605573,-0.458343228188264,-0.00985531840392362,,
0.018133433882123,-0.459501954712632,-0.00991489702044124,,
0.0183659138036887,-0.460046419991834,-0.00992787774590909,,
0.0185983937252543,-0.460334399282293,-0.0100135311114649,,
0.01883087364682,-0.460671179004239,-0.0100248771071665,,
0.0190633535683857,-0.460017480201069,-0.0100360612484365,,
0.0192958334899514,-0.459127439773316,-0.0100777711356317,,
0.0195283134115171,-0.45796076899266,-0.0100773159200407,,
0.0197607933330827,-0.456093939695718,-0.0100874500306811,,
0.0199932732546484,-0.454365141851789,-0.0100686425456518,,
0.0202257531762141,-0.452045702738981,-0.0100365629971764,,
0.0204582330977798,-0.448799551943945,-0.0100033828385615,,
0.0206907130193455,-0.446112974701232,-0.00996126831528565,,
0.0209231929409111,-0.442575581796191,-0.00993354265103852,,
0.0211556728624768,-0.438720347708749,-0.00989477851451026,,
0.0213881527840425,-0.434164600450723,-0.00980223015013992,,
0.0216206327056082,-0.429477418309638,-0.00974386544186467,,
0.0218531126271739,-0.424526798955557,-0.00968436977574338,,
0.0220855925487395,-0.419039871371142,-0.00956475732711759,,
0.0223180724703052,-0.413547836764826,-0.00949011006295608,,
0.0225505523918709,-0.407338549305034,-0.0093746754818631,,
0.0227830323134366,-0.401022014385346,-0.00925886863557635,,
0.0230155122350023,-0.394222582172692,-0.00916459045196083,,
0.0232479921565679,-0.387080128322437,-0.00901106949977537,,
0.0234804720781336,-0.37952939644364,-0.0088653519544053,,
0.0237129519996993,-0.3719896588481,-0.00874049744535421,,
0.023945431921265,-0.36367266089176,-0.00858058324309408,,
0.0241779118428307,-0.355172306663046,-0.0084159954941021,,
0.0244103917643963,-0.346811828089699,-0.00828290259444886,,
0.024642871685962,-0.337758496878617,-0.00811454161400471,,
0.0248753516075277,-0.328425414356803,-0.00791245016987574,,
0.0251078315290934,-0.318865565876469,-0.00777579647271276,,
0.025340311450659,-0.308993479751651,-0.0075563218625585,,
0.0255727913722247,-0.298917609266861,-0.00737621025033164,,
0.0258052712937904,-0.288617880988799,-0.00720391620718353,,
0.0260377512153561,-0.278068192361087,-0.00693792463319598,,
0.0262702311369218,-0.267298334344807,-0.00672631614844965,,
0.0265027110584874,-0.256348028221403,-0.00649662852361965,,
0.0267351909800531,-0.244998168565202,-0.00628673569585558,,
0.0269676709016188,-0.233625469172172,-0.0060395516068974,,
0.0272001508231845,-0.221778313258481,-0.00580405340794865,,
0.0274326307447502,-0.209923213088503,-0.00556148217031005,,
0.0276651106663158,-0.198073219940424,-0.00530542845846327,,
0.0278975905878815,-0.185822325573214,-0.00507054530635731,,
0.0281300705094472,-0.173344168731464,-0.00481842263403465,,
0.0283625504310129,-0.160940914877578,-0.00454932547812792,,
0.0285950303525786,-0.148228969922195,-0.00426855659447378,,
0.0288275102741442,-0.135449853442658,-0.00400237079516774,,
0.0290599901957099,-0.122654990312263,-0.0037685558823144,,
0.0292924701172756,-0.109590660845797,-0.00345990150316133,,
0.0295249500388413,-0.0965768341514499,-0.0032028746415409,,
0.029757429960407,-0.0832818375291774,-0.00289996407155302,,
0.0299899098819726,-0.070053444984181,-0.00265996631938759,,
0.0302223898035383,-0.056579418871978,-0.00234044948464884,,
0.030454869725104,-0.0433492530554886,-0.00205864270944822,,
0.0306873496466697,-0.0300014129427256,-0.00177643736770827,,
0.0309198295682354,-0.0165452614071718,-0.00148775177913629,,
0.031152309489801,-0.00313131373315073,-0.00121054369299234,,
0.0313847894113667,0.0103034876136277,-0.000902680377377063,,
0.0316172693329324,0.0238606446934212,-0.000626637643145855,,
0.0318497492544981,0.0372319629207512,-0.000324050782022578,,
0.0320822291760638,0.0506714102388412,-2.67727462772704E-05,,
0.0323147090976294,0.0639311542238334,0.000256359212087443,,
0.0325471890191951,0.0772534592270976,0.000539701581214302,,
0.0327796689407608,0.0904525218616003,0.000863183849543425,,
0.0330121488623265,0.103586966482899,0.00113395215246337,,
0.0332446287838922,0.116739782196865,0.00143702255370304,,
0.0334771087054578,0.129592985959378,0.00172564137732145,,
0.0337095886270235,0.142325110744351,0.00199705507479031,,
0.0339420685485892,0.155174094120711,0.00228575482562521,,
0.0341745484701549,0.167897388013649,0.00261564652947177,,
0.0344070283917205,0.180165022063753,0.00288649373642746,,
0.0346395083132862,0.192468121543717,0.00315776176490745,,
0.0348719882348519,0.204648085051208,0.00342151974772964,,
0.0351044681564176,0.21654262277919,0.00371653182142317,,
0.0353369480779833,0.22823855409996,0.00399194736972941,,
0.0355694279995489,0.239841424132778,0.00425160638905497,,
0.0358019079211146,0.251131347212517,0.00453329379661183,,
0.0360343878426803,0.262278841125939,0.00476801509428526,,
0.036266867764246,0.273221238458485,0.00503838483066588,,
0.0364993476858117,0.283869059930618,0.00530197691269541,,
0.0367318276073773,0.294470386224206,0.00556377645688722,,
0.036964307528943,0.304744579392769,0.00577444213956557,,
0.0371967874505087,0.314407029361688,0.00605620238161686,,
0.0374292673720744,0.324173960486972,0.00625470470370981,,
0.0376617472936401,0.333407739805178,0.00649421284621798,,
0.0378942272152057,0.342259059927781,0.00670988387721394,,
0.0381267071367714,0.350994904610761,0.00691671765620816,,
0.0383591870583371,0.359572999061727,0.00714473818038597,,
0.0385916669799028,0.368064557863835,0.00734571282893182,,
0.0388241469014685,0.375921427333178,0.00755872944723857,,
0.0390566268230341,0.383375409519319,0.00772314117953554,,
0.0392891067445998,0.390486653791297,0.00794235682259803,,
0.0395215866661655,0.397467385281393,0.00808784777176275,,
0.0397540665877312,0.403747319877466,0.00829562030646436,,
0.0399865465092968,0.410256219288711,0.00849222893169976,,
0.0402190264308625,0.416196253205011,0.00861876268048567,,
0.0404515063524282,0.421491383744747,0.0087599644871954,,
0.0406839862739939,0.426933199302381,0.00891678524661899,,
0.0409164661955596,0.431698901905175,0.00907921830848135,,
0.0411489461171252,0.43615875064086,0.00915927960340213,,
0.0413814260386909,0.440272740504557,0.00929381300750265,,
0.0416139059602566,0.443696714964908,0.00941437432773773,,
0.0418463858818223,0.447013441965364,0.00950182427749136,,
0.042078865803388,0.450163907030638,0.00959989187800225,,
0.0423113457249536,0.452660957016183,0.00970959681219297,,
0.0425438256465193,0.45484193909082,0.00976831760021923,,
0.042776305568085,0.456545698341268,0.00985633404048603,,
0.0430087854896507,0.458005171710844,0.00993195243124134,,
0.0432412654112164,0.459055515881561,0.00998638003045205,,
0.043473745332782,0.459714321706631,0.010025310067773,,
0.0437062252543477,0.460067273664592,0.0100394723305963,,
0.0439387051759134,0.459685949362743,0.0100757722333928,,
0.0441711850974791,0.459317108892205,0.0101120154871386,,
0.0444036650190448,0.45800857639211,0.0101017377306896,,
0.0446361449406104,0.457242523107146,0.0101103443401254,,
0.0448686248621761,0.455308947871209,0.0101090859219144,,
0.0451011047837418,0.453031499827354,0.0101141843365307,,
0.0453335847053075,0.451053096288075,0.0100989376490115,,
0.0455660646268732,0.447800207061366,0.0100640418334144,,
0.0457985445484388,0.444597536883338,0.010021729038459,,
0.0460310244700045,0.441164199549504,0.00996763728719552,,
0.0462635043915702,0.437169940977013,0.00992371404063874,,
0.0464959843131359,0.432933098864283,0.00985466693983383,,
0.0467284642347015,0.428178461475606,0.00976606782361067,,
0.0469609441562672,0.423033136911597,0.00971255470194254,,
0.0471934240778329,0.417653173063637,0.00959255987222063,,
0.0474259039993986,0.41167455275965,0.00950643712881094,,
0.0476583839209643,0.405930571739613,0.00941460092394264,,
0.0478908638425299,0.399158944423969,0.00930611394435488,,
0.0481233437640956,0.392412568494385,0.00914769891877354,,
0.0483558236856613,0.385327994225661,0.00902830295045076,,
0.048588303607227,0.377863230548843,0.00886363225106246,,
0.0488207835287927,0.370116162050344,0.00876525712713061,,
0.0490532634503583,0.361861796043136,0.0086042605233545,,
0.049285743371924,0.35365225833927,0.00844551369618696,,
0.0495182232934897,0.344794980024451,0.00827163347960225,,
0.0497507032150554,0.336041260764822,0.00812133950016003,,
0.0499831831366211,0.326562060671988,0.00793243514590003,,
0.0502156630581867,0.317117439373266,0.00773362934674626,,
0.0504481429797524,0.307288408280298,0.00756573774415559,,
0.0506806229013181,0.296946156951834,0.00736354918736781,,
0.0509131028228838,0.286564432599937,0.00711563675346438,,
0.0511455827444495,0.276104400578909,0.00692911570571964,,
0.0513780626660151,0.265270137342005,0.0067270080761479,,
0.0516105425875808,0.254166904285047,0.00648542415054587,,
0.0518430225091465,0.242853432159882,0.00625250348343087,,
0.0520755024307122,0.231408879805956,0.00602357252807151,,
0.0523079823522779,0.219581017086109,0.00580092557104495,,
0.0525404622738435,0.207752586919385,0.00556683550565706,,
0.0527729421954092,0.195819711061724,0.00530991182623719,,
0.0530054221169749,0.183430075932904,0.00503414424454052,,
0.0532379020385406,0.171131835216831,0.00476735149111329,,
0.0534703819601062,0.158511532932205,0.00453430134045263,,
0.0537028618816719,0.145841862769215,0.00423391569960785,,
0.0539353418032376,0.1331302370027,0.00397581048283246,,
0.0541678217248033,0.120055374303565,0.00371379648151748,,
0.054400301646369,0.107117869214276,0.003433043783307,,
0.0546327815679346,0.0939332055442965,0.00318077948835604,,
0.0548652614895003,0.0807942922788354,0.00288071553319558,,
0.055097741411066,0.067439997457838,0.00259478349315279,,
0.0553302213326317,0.0542371754877702,0.00233397126099755,,
0.0555627012541974,0.0408835190445103,0.00202610794538227,,
0.055795181175763,0.0274809557734741,0.00173578965022481,,
0.0560276610973287,0.0140278542648882,0.00145623265163275,,
0.0562601410188944,0.000636462604257725,0.00115228823645852,,
0.0564926209404601,-0.012849479892378,0.000881894221913093,,
0.0567251008620258,-0.0263357061124527,0.000595379505913929,,
0.0569575807835914,-0.0397555410478304,0.000281883656056081,,
0.0571900607051571,-0.053162040981581,-1.57666448834526E-05,,
0.0574225406267228,-0.0664459723897373,-0.000325604584572314,,
0.0576550205482885,-0.0797920392310073,-0.000617863109736216,,
0.0578875004698542,-0.0929948257356452,-0.000905852724249812,,
0.0581199803914198,-0.106147109468163,-0.00120363453191485,,
0.0583524603129855,-0.119125470732651,-0.00145845612689577,,
0.0585849402345512,-0.13208049574429,-0.00177875188608967,,
0.0588174201561169,-0.144874791427807,-0.0020943174495005,,
0.0590499000776826,-0.157589857341018,-0.00237808064015121,,
0.0592823799992482,-0.170149088155426,-0.00260814053017544,,
0.0595148599208139,-0.182627032204596,-0.00290930307229509,,
0.0597473398423796,-0.194858917101402,-0.0032086670070357,,
0.0599798197639453,-0.206835096248921,-0.00349278830061772,,
0.060212299685511,-0.218686578945054,-0.00377142070576575,,
0.0604447796070766,-0.230558986244804,-0.00403257283222835,,
0.0606772595286423,-0.242027371367595,-0.00428930633269076,,
0.060909739450208,-0.253282112740913,-0.0045536146205829,,
0.0611422193717737,-0.264419676333975,-0.00481751827239441,,
0.0613746992933394,-0.275321465749332,-0.00507894555139199,,
0.061607179214905,-0.285999397371416,-0.00532025432445904,,
0.0618396591364707,-0.296379915898698,-0.00558440075791911,,
0.0620721390580364,-0.306428690795075,-0.00582140420308752,,
0.0623046189796021,-0.316490020453623,-0.00608522692768299,,
0.0625370989011678,-0.32591304330556,-0.00629537669935809,,
0.0627695788227334,-0.335408699357849,-0.00652168561291511,,
0.0630020587442991,-0.34423505181783,-0.00672510426338802,,
0.0632345386658648,-0.353172340142412,-0.00695129178612053,,
0.0634670185874305,-0.361817747979251,-0.00717610961571991,,
0.0636994985089961,-0.369891311225036,-0.0073628410742268,,
0.0639319784305618,-0.377802939318082,-0.00755752160853795,,
0.0641644583521275,-0.385305154488831,-0.0077589959826434,,
0.0643969382736932,-0.392337452713942,-0.00794763530027032,,
0.0646294181952589,-0.399067727338371,-0.00812716625972154,,
0.0648618981168245,-0.405606985157576,-0.00828813049261123,,
0.0650943780383902,-0.411582981019753,-0.00845425788189003,,
0.0653268579599559,-0.417870930802974,-0.00861999682053138,,
0.0655593378815216,-0.423299127635543,-0.00875802628036881,,
0.0657918178030873,-0.428305427714503,-0.00890991047960821,,
0.0660242977246529,-0.43301466935296,-0.00904844168818597,,
0.0662567776462186,-0.437396210419516,-0.00914419274713474,,
0.0664892575677843,-0.441381673565402,-0.00929259909926072,,
0.06672173748935,-0.444934742190441,-0.00939702757895944,,
0.0669542174109157,-0.448469652515393,-0.00952498969310955,,
0.0671866973324813,-0.451530177250544,-0.0095846168659568,,
0.067419177254047,-0.453789466994311,-0.00967233994506511,,
0.0676516571756127,-0.455734958614681,-0.00976186365473275,,
0.0678841370971784,-0.457609235651893,-0.00986598461101007,,
0.0681166170187441,-0.459123751368611,-0.00989439006387283,,
0.0683490969403097,-0.459621686003838,-0.00994317298975833,,
0.0685815768618754,-0.460327873643199,-0.00999456177200297,,
0.0688140567834411,-0.460581238674115,-0.0100457239580427,,
0.0690465367050068,-0.46025949629443,-0.0100452040006789,,
0.0692790166265724,-0.45978255719368,-0.0100803264124809,,
0.0695114965481381,-0.458957773156869,-0.0101094116539593,,
0.0697439764697038,-0.457421694458796,-0.0101209680604231,,
0.0699764563912695,-0.455896113527962,-0.0100908631360217,,
0.0702089363128352,-0.45333274318858,-0.0100644667012992,,
0.0704414162344008,-0.450918185792889,-0.0100363040300846,,
0.0706738961559665,-0.447647067335233,-0.0100091124854638,,
0.0709063760775322,-0.444505752350861,-0.00996970093120675,,
0.0711388559990979,-0.440928283510079,-0.00990596265578025,,
0.0713713359206636,-0.436493402437014,-0.00986810490407297,,
0.0716038158422292,-0.432305147963192,-0.0098153889154835,,
0.0718362957637949,-0.427462769101042,-0.00974389781275109,,
0.0720687756853606,-0.422265523147719,-0.0096448105293172,,
0.0723012556069263,-0.416852079933972,-0.00955490039219287,,
0.072533735528492,-0.4109151669755,-0.00948514113188548,,
0.0727662154500576,-0.404771703353526,-0.0093648509178248,,
0.0729986953716233,-0.398050011363124,-0.00925137679854249,,
0.073231175293189,-0.3913033517101,-0.00909992758308986,,
0.0734636552147547,-0.383863555695904,-0.00900975847887375,,
0.0736961351363204,-0.376342118262171,-0.0088597517910487,,
0.073928615057886,-0.368628741922039,-0.00870116681831368,,
0.0741610949794517,-0.360246771298196,-0.00854709758423855,,
0.0743935749010174,-0.351764433507852,-0.00837269943347074,,
0.0746260548225831,-0.343064976355907,-0.00821832267597422,,
0.0748585347441487,-0.333687916701068,-0.00803185018455954,,
0.0750910146657144,-0.324014933499482,-0.00786000933382125,,
0.0753234945872801,-0.314891238875559,-0.00766767973513893,,
0.0755559745088458,-0.305033835438703,-0.00748539725033925,,
0.0757884544304115,-0.294519044793973,-0.00730868458119005,,
0.0760209343519772,-0.284212790876816,-0.00710099499688521,,
0.0762534142735428,-0.273653739375621,-0.0069161066557264,,
0.0764858941951085,-0.262610017309967,-0.00672699593706527,,
0.0767183741166742,-0.251483377069301,-0.00653727219474209,,
