Time domain (s),Current (AC) (A),Potential (AC) (V),Frequency (Hz),Column 5
0,-0.447690299694231,-0.00852190291867538,125.89,0.5
0.000242414632814362,-0.420943407387988,-0.00824530785619393,,
0.000484829265628723,-0.378676204597511,-0.00765821327403149,,
0.000727243898443085,-0.322624440390982,-0.00675793238861244,,
0.000969658531257447,-0.254689132739727,-0.00566829597970431,,
0.00121207316407181,-0.177494794384205,-0.00433796584457102,,
0.00145448779688617,-0.093684025434104,-0.00283998688849607,,
0.00169690242970053,-0.00651113373332664,-0.0012384049103269,,
0.00193931706251489,0.0810141070131043,0.00039169784198867,,
0.00218173169532926,0.165738181712946,0.00202388447011925,,
0.00242414632814362,0.244285951802765,0.00358095243305412,,
0.00266656096095798,0.313319233697038,0.00499859089531274,,
0.00290897559377234,0.37089437997775,0.00622828399082298,,
0.0031513902265867,0.415183325062795,0.00724404599048389,,
0.00339380485940106,0.444442304696843,0.00798614856242841,,
0.00363621949221543,0.456938903562119,0.00843314194802058,,
0.00387863412502979,0.45298464999451,0.008568177100861,,
0.00412104875784415,0.432837732323391,0.00841077366548104,,
0.00436346339065851,0.396632635458791,0.00793644306627916,,
0.00460587802347287,0.345845572453178,0.00717006232949435,,
0.00484829265628724,0.282436504822305,0.00610902559876747,,
0.0050907072891016,0.208472357818382,0.00485242420389298,,
0.00533312192191596,0.126923999569875,0.00342963472432789,,
0.00557553655473032,0.0407251304347579,0.00186390754926613,,
0.00581795118754468,-0.0468968245388998,0.000225910347017244,,
0.00606036582035904,-0.133444176987816,-0.00141015067158579,,
0.00630278045317341,-0.214721579352197,-0.00298704782565373,,
0.00654519508598777,-0.287946059350971,-0.00447775951772034,,
0.00678760971880213,-0.350713060839668,-0.00578237098356604,,
0.00703002435161649,-0.400654840790011,-0.00690674135363922,,
0.00727243898443085,-0.435497284908552,-0.00772119083362677,,
0.00751485361724521,-0.454774590239517,-0.00829559805147984,,
0.00775726825005958,-0.457050548735317,-0.00855676636338609,,
0.00799968288287394,-0.442779330690733,-0.00849862825131575,,
0.0082420975156883,-0.412188836958042,-0.00813053890145365,,
0.00848451214850266,-0.366774290060118,-0.00747014044691774,,
0.00872692678131702,-0.307642920717173,-0.00653201394887404,,
0.00896934141413138,-0.237478468937532,-0.00535211536945068,,
0.00921175604694575,-0.158596259844139,-0.0040172168929673,,
0.00945417067976011,-0.0736747136308401,-0.00247180042597472,,
0.00969658531257447,0.0137830364025684,-0.000864731582551848,,
0.00993899994538883,0.101142050679248,0.000773008675786002,,
0.0101814145782032,0.184678139875088,0.00239241082694797,,
0.0104238292110176,0.261125753604919,0.0039204016411265,,
0.0106662438438319,0.32795425612112,0.00528395644484281,,
0.0109086584766463,0.382771610575961,0.00647145004350014,,
0.0111510731094606,0.423556571190892,0.00740221014169506,,
0.011393487742275,0.448840017999415,0.00810322191964818,,
0.0116359023750894,0.457704956847084,0.00848577700939357,,
0.0118783170079037,0.449859152591856,0.00859007600554662,,
0.0121207316407181,0.425486174298685,0.00831900220238557,,
0.0123631462735324,0.38588575904106,0.00776985843822908,,
0.0126055609063468,0.332085836838027,0.00691598728808263,,
0.0128479755391612,0.266128365279174,0.00583005734567266,,
0.0130903901719755,0.190217024314248,0.00452285216255,,
0.0133328048047899,0.10728352823715,0.00304968549094164,,
0.0135752194376043,0.0203852808252039,0.00147645636294458,,
0.0138176340704186,-0.0671320511303684,-0.000148088712802696,,
0.014060048703233,-0.152881218614868,-0.00179570209150892,,
0.0143024633360473,-0.232544163681187,-0.00337625917892659,,
0.0145448779688617,-0.303557657851663,-0.00482356151225893,,
0.0147872926016761,-0.363313218760134,-0.00604378207712042,,
0.0150297072344904,-0.409705121974125,-0.0070957043801303,,
0.0152721218673048,-0.441297939685504,-0.00788008535296347,,
0.0155145365001192,-0.456875491373531,-0.00838484660861205,,
0.0157569511329335,-0.455446447342774,-0.0085674325704721,,
0.0159993657657479,-0.437385464394269,-0.00844065199367749,,
0.0162417803985622,-0.403035918819915,-0.00799670147141196,,
0.0164841950313766,-0.354322874152483,-0.00727593131364035,,
0.016726609664191,-0.292386047445936,-0.00631759122018671,,
0.0169690242970053,-0.219790936965447,-0.00505708306395336,,
0.0172114389298197,-0.139256535356622,-0.00364173484191133,,
0.017453853562634,-0.0534004041356663,-0.00211560737688465,,
0.0176962681954484,0.0341038765417177,-0.000473480863432574,,
0.0179386828282628,0.120954777604801,0.00113795804966177,,
0.0181810974610771,0.203101756843906,0.00272913683419729,,
0.0184235120938915,0.277571499015905,0.0042468417992052,,
0.0186659267267059,0.341908909738779,0.00560204896057748,,
0.0189083413595202,0.393369532188282,0.00673645025909009,,
0.0191507559923346,0.430755202282044,0.0076418477677489,,
0.0193931706251489,0.452093474673002,0.00825375868073897,,
0.0196355852579633,0.457353707229756,0.00853918897204187,,
0.0198779998907777,0.445406680665581,0.00855597327666802,,
0.020120414523592,0.417809469213028,0.00820599543777689,,
0.0203628291564064,0.374787633006002,0.007595674744584,,
0.0206052437892207,0.317632113691387,0.00669482129911092,,
0.0208476584220351,0.249078572666822,0.00554363569597216,,
0.0210900730548495,0.171592850339574,0.00420922682914604,,
0.0213324876876638,0.0872716629229359,0.00270712058504818,,
0.0215749023204782,0.000196939532009537,0.00110778838348757,,
0.0218173169532926,-0.087520701171409,-0.000527863952674235,,
0.0220597315861069,-0.172031699568655,-0.00217973410294903,,
0.0223021462189213,-0.249755394930259,-0.00371270598728035,,
0.0225445608517356,-0.31827467634958,-0.0050999603262416,,
0.02278697548455,-0.375374869593614,-0.00633641489065928,,
0.0230293901173644,-0.41858112603591,-0.00733793774664182,,
0.0232718047501787,-0.446499228697831,-0.00802942843761656,,
0.0235142193829931,-0.457877957213938,-0.00844845337731259,,
0.0237566340158075,-0.452462527936119,-0.00857029739392345,,
0.0239990486486218,-0.430459207804437,-0.00838063637019282,,
0.0242414632814362,-0.392897912902011,-0.00786245940528962,,
0.0244838779142505,-0.340797210374404,-0.00705762205539839,,
0.0247262925470649,-0.276380640812085,-0.00601264128435242,,
0.0249687071798793,-0.201892740339997,-0.00474065967205162,,
0.0252111218126936,-0.11978913532161,-0.00330635222645004,,
0.025453536445508,-0.0331360249608533,-0.00174324304683049,,
0.0256959510783223,0.0544159212542619,-9.17633703738652E-05,,
0.0259383657111367,0.140552087509388,0.00153815931888568,,
0.0261807803439511,0.221214341992856,0.00310484548145817,,
0.0264231949767654,0.293463699997645,0.0045792422467521,,
0.0266656096095798,0.355174682846847,0.00587584596456114,,
0.0269080242423942,0.403358583300776,0.00697227621326402,,
0.0271504388752085,0.437342693085858,0.00778460337700881,,
0.0273928535080229,0.45500078875116,0.00833892648299761,,
0.0276352681408372,0.456111282290919,0.00853700393720613,,
0.0278776827736516,0.440611470825144,0.00847056269276081,,
0.028120097406466,0.408812031519404,0.00808700005917418,,
0.0283625120392803,0.362570785451456,0.00738366162375748,,
0.0286049266720947,0.302988863287577,0.00644362726659331,,
0.028847341304909,0.232092298639347,0.00525241101599416,,
0.0290897559377234,0.152409457466877,0.00385171062007217,,
0.0293321705705378,0.0671848946208589,0.00234037462697412,,
0.0295745852033521,-0.0201962500840531,0.000727899845513136,,
0.0298169998361665,-0.107639601152939,-0.000907932553704249,,
0.0300594144689809,-0.190785535154895,-0.00251618091130235,,
0.0303018291017952,-0.266604878794766,-0.00404220721730919,,
0.0305442437346096,-0.332750813647892,-0.00540568716335077,,
0.0307866583674239,-0.386517611139436,-0.00657568227469962,,
0.0310290730002383,-0.426383520604989,-0.00751265960627423,,
0.0312714876330527,-0.450524980572037,-0.00815457428464539,,
0.031513902265867,-0.457846180188784,-0.0084952454936813,,
0.0317563168986814,-0.448942654953428,-0.00854673341176593,,
0.0319987315314958,-0.423253483627313,-0.00827816632912448,,
0.0322411461643101,-0.382319284483534,-0.00773412502594528,,
0.0324835607971245,-0.327124010408111,-0.00684904024853594,,
0.0327259754299388,-0.259954826972679,-0.00575728354656446,,
0.0329683900627532,-0.183443907450549,-0.00442952689690479,,
0.0332108046955676,-0.0999568669442049,-0.00295045253851844,,
0.0334532193283819,-0.012902216986579,-0.00136808268145927,,
0.0336956339611963,0.074670689297583,0.000256921656239584,,
0.0339380485940106,0.159855779120168,0.00190723598078435,,
0.034180463226825,0.23889967510829,0.00345299436526458,,
0.0344228778596394,0.308912441244422,0.00486943105836346,,
0.0346652924924537,0.367482038178393,0.00612844813063962,,
0.0349077071252681,0.412466389412122,0.0071825251207791,,
0.0351501217580825,0.442403751788522,0.0079389882272265,,
0.0353925363908968,0.456484378613041,0.00840896089583998,,
0.0356349510237112,0.454073864276353,0.00857531488132368,,
0.0358773656565255,0.434297205692968,0.008433174318907,,
0.0361197802893399,0.399447171972437,0.00796630925539343,,
0.0363621949221543,0.349890333797789,0.00720183840090938,,
0.0366046095549686,0.287485363417097,0.00619338412886528,,
0.036847024187783,0.214194811322495,0.00494545813156044,,
0.0370894388205973,0.133015577267965,0.0035448629410193,,
0.0373318534534117,0.0469843532197929,0.00194494806350232,,
0.0375742680862261,-0.0406203655549531,0.00035463115381873,,
0.0378166827190404,-0.127364622070449,-0.0013007997939658,,
0.0380590973518548,-0.209082008557666,-0.00289126237263826,,
0.0383015119846692,-0.282971252573726,-0.00438823783123343,,
0.0385439266174835,-0.346381171374915,-0.00570830841854075,,
0.0387863412502979,-0.397110354798998,-0.00681780436628854,,
0.0390287558831122,-0.433328219218348,-0.00765994713963725,,
0.0392711705159266,-0.453676580531068,-0.00830164938406597,,
0.039513585148741,-0.457572670793708,-0.00852722792949701,,
0.0397559997815553,-0.444585585033475,-0.00850396944758058,,
0.0399984144143697,-0.415453926292623,-0.00818660527679116,,
0.040240829047184,-0.370643284734345,-0.00754182577496865,,
0.0404832436799984,-0.312713484155039,-0.00660256629589906,,
0.0407256583128128,-0.243087397600664,-0.0054578670091332,,
0.0409680729456271,-0.164432521912671,-0.00408856434989069,,
0.0412104875784415,-0.0799727355961413,-0.00259957033798708,,
0.0414529022112559,0.0074698706987172,-0.000989440422613619,,
0.0416953168440702,0.0948902047036239,0.000657167435432093,,
0.0419377314768846,0.178857872715423,0.00228275444908688,,
0.0421801461096989,0.255981847658104,0.0038216340201962,,
0.0424225607425133,0.323313391831432,0.00519941987486972,,
0.0426649753753277,0.378925171915125,0.00643247549621018,,
0.042907390008142,0.42119769452008,0.00737568220024665,,
0.0431498046409564,0.44730706025917,0.00806986372115759,,
0.0433922192737708,0.457590900024656,0.0084699152750316,,
0.0436346339065851,0.451063274866444,0.00856063468431723,,
0.0438770485393995,0.427894135124423,0.00831986003087692,,
0.0441194631722138,0.389306045096706,0.00778850406882636,,
0.0443618778050282,0.336290618202164,0.00701204384727205,,
0.0446042924378426,0.271197687426994,0.00592550290438076,,
0.0448467070706569,0.196013210447037,0.00460691530830903,,
0.0450891217034713,0.113366026785195,0.00314822246930557,,
0.0453315363362856,0.0267111786183747,0.00159438754865526,,
0.0455739509691,-0.0609372335659582,-3.26217608233037E-05,,
0.0458163656019144,-0.14687763064826,-0.00169491533653598,,
0.0460587802347287,-0.226922538394165,-0.00325844533767938,,
0.0463011948675431,-0.298899202708764,-0.00468784859398319,,
0.0465436095003575,-0.359483519782191,-0.005965638757222,,
0.0467860241331718,-0.40691817756491,-0.0070354459749975,,
0.0470284387659862,-0.439422031238518,-0.00784235910798259,,
0.0472708533988005,-0.456137881363314,-0.00835111412174738,,
0.0475132680316149,-0.456047089862874,-0.0085672383451536,,
0.0477556826644293,-0.439221935283251,-0.00847766810233708,,
0.0479980972972436,-0.405924223427669,-0.00802865153634169,,
0.048240511930058,-0.35837614720026,-0.00732191415784733,,
0.0484829265628723,-0.297240271761659,-0.0063547550210159,,
0.0487253411956867,-0.22525083989231,-0.00515805190516261,,
0.0489677558285011,-0.1453131796063,-0.00376695959297635,,
0.0492101704613154,-0.059708143628749,-0.00223193215735495,,
0.0494525850941298,0.0277978748546981,-0.000619959124634306,,
0.0496949997269442,0.114807022665814,0.00102873867876818,,
0.0499374143597585,0.197324296458082,0.00262334877726733,,
0.0501798289925729,0.272480081905282,0.00414393475116981,,
0.0504222436253872,0.337611634533569,0.0055225136925614,,
0.0506646582582016,0.390171969032154,0.00667450856786145,,
0.050907072891016,0.428551238608859,0.00757942051322358,,
0.0511494875238303,0.451276067445601,0.00817721771971991,,
0.0513919021566447,0.45753415533688,0.0084985149532133,,
0.0516343167894591,0.447307343982609,0.00853211593335201,,
0.0518767314222734,0.420740616060052,0.0082220513974578,,
0.0521191460550878,0.378094997132975,0.00763553544489071,,
0.0523615606879021,0.322341639053283,0.00676503375182858,,
0.0526039753207165,0.254574011954403,0.00564555543197098,,
0.0528463899535309,0.17735218789074,0.0043007716960366,,
0.0530888045863452,0.0935799698628963,0.00283187798143958,,
0.0533312192191596,0.00650240923758121,0.00122396749496856,,
0.0535736338519739,-0.0812314037018532,-0.00042183311409616,,
0.0538160484847883,-0.166070173601861,-0.00203655767216526,,
0.0540584631176027,-0.244618653000276,-0.0036204489608882,,
0.054300877750417,-0.313945056672338,-0.00501658708500008,,
0.0545432923832314,-0.371851591929657,-0.00622515817709957,,
0.0547857070160458,-0.415947037629389,-0.00727295319208654,,
0.0550281216488601,-0.444696520898075,-0.00798800988839954,,
0.0552705362816745,-0.457860933807605,-0.0084346815883074,,
0.0555129509144888,-0.45363317084492,-0.00858133586620413,,
0.0557553655473032,-0.432831703200315,-0.00840290754007267,,
0.0559977801801176,-0.396073629353346,-0.00792229698889901,,
0.0562401948129319,-0.345338133082749,-0.00709581970141349,,
0.0564826094457463,-0.281471774199269,-0.00610590180822479,,
0.0567250240785607,-0.207431305590288,-0.00486192101270611,,
0.056967438711375,-0.125840105102511,-0.00340026219123191,,
0.0572098533441894,-0.0394542622211743,-0.00185147712886824,,
0.0574522679770037,0.0481422640392741,-0.000233141193778597,,
0.0576946826098181,0.134516155070748,0.00140310798060206,,
0.0579370972426325,0.215710142744099,0.00298641659336818,,
0.0581795118754468,0.288721865629147,0.00445223507375214,,
0.0584219265082612,0.351032320639263,0.00578975154567773,,
0.0586643411410755,0.400211806640207,0.00689528610619572,,
0.0589067557738899,0.435181004205065,0.00771913730551743,,
0.0591491704067043,0.454380285590339,0.00829888369645504,,
0.0593915850395186,0.456550769897738,0.00856380703118953,,
0.059633999672333,0.442400914554133,0.00853627559226089,,
0.0598764143051473,0.411770699539999,0.00812877468814222,,
0.0601188289379617,0.366241599303629,0.00747120868617079,,
0.0603612435707761,0.307462330748329,0.00652301281925949,,
0.0606036582035904,0.237448181460432,0.00534450618795379,,
0.0608460728364048,0.158413364622354,0.00395623216606955,,
0.0610884874692192,0.0734937335422673,0.00242572046910849,,
0.0613309021020335,-0.0138472997614737,0.000819088632652676,,
0.0615733167348479,-0.101389670310527,-0.000797367767842339,,
0.0618157313676622,-0.184959628991882,-0.00241655748506187,,
0.0620581460004766,-0.261610282307659,-0.00394195660514329,,
0.062300560633291,-0.328397077478346,-0.0053269935383824,,
0.0625429752661053,-0.383203082995631,-0.00647637041824067,,
0.0627853898989197,-0.424031807951009,-0.0074421720010216,,
0.0630278045317341,-0.449601815432796,-0.00807248171659936,,
0.0632702191645484,-0.458289001546009,-0.00849249396833285,,
0.0635126337973628,-0.45041830055902,-0.00854864127088595,,
0.0637550484301771,-0.425835083197643,-0.00831978112684073,,
0.0639974630629915,-0.385637713824623,-0.00777680806291459,,
0.0642398776958059,-0.33151491434815,-0.0069224432567494,,
0.0644822923286202,-0.265070005921308,-0.00585060881220967,,
0.0647247069614346,-0.189075533988791,-0.00452935871072713,,
0.0649671215942489,-0.106069404711341,-0.00304868199346142,,
0.0652095362270633,-0.0191649153837402,-0.00148772547779075,,
0.0654519508598777,0.0684375336034948,0.000169825763056242,,
0.065694365492692,0.153774734654747,0.00177922531030417,,
0.0659367801255064,0.233489388317801,0.00334885317718303,,
0.0661791947583208,0.304142766513484,0.00481802609067561,,
0.0664216093911351,0.363669646330222,0.00605933628806143,,
0.0666640240239495,0.409910324951292,0.00710016144655912,,
0.0669064386567638,0.441126428866704,0.00787071398133543,,
0.0671488532895782,0.456271869757323,0.008369630268799,,
0.0673912679223926,0.454923615975786,0.00858509088903281,,
0.0676336825552069,0.436381438074948,0.00844568566652137,,
0.0678760971880213,0.402541743520253,0.00798830122637773,,
0.0681185118208357,0.353782451932284,0.00725493879377526,,
0.06836092645365,0.292295326876355,0.00627979821025271,,
0.0686033410864644,0.219678298760214,0.00504614372751266,,
0.0688457557192787,0.139126944675915,0.00362912031209683,,
0.0690881703520931,0.0532733669659098,0.00209466341334963,,
0.0693305849849075,-0.0342017611281298,0.000483839547097631,,
0.0695729996177218,-0.121268965847926,-0.00117440766780819,,
0.0698154142505362,-0.203510602319326,-0.00277027618451875,,
0.0700578288833505,-0.277891539054957,-0.00428372842431868,,
0.0703002435161649,-0.342313428431756,-0.00560355420679715,,
0.0705426581489793,-0.394140054117409,-0.0067445632125076,,
0.0707850727817936,-0.431264698647405,-0.00763733405226885,,
0.071027487414608,-0.452655672667134,-0.00824571249227457,,
0.0712699020474224,-0.457896115514026,-0.00852030055979602,,
0.0715123166802367,-0.44586120561466,-0.00854645623605066,,
0.0717547313130511,-0.417906999145141,-0.00820372947572512,,
0.0719971459458654,-0.374327646380725,-0.00755288043269253,,
0.0722395605786798,-0.31704594106667,-0.00668393254218014,,
0.0724819752114942,-0.248406928356143,-0.00556072752401926,,
0.0727243898443085,-0.170328507765085,-0.00419459518846921,,
0.0729668044771229,-0.086092721103548,-0.00270262103183105,,
0.0732092191099372,0.00112386400681617,-0.0011106855778249,,
0.0734516337427516,0.0886213353216672,0.000528236217868461,,
0.073694048375566,0.172819351300404,0.00215987456410982,,
0.0739364630083803,0.250596741322815,0.00370747808911798,,
0.0741788776411947,0.319050447162326,0.00511672844542455,,
0.0744212922740091,0.37562319853349,0.00633523335330421,,
0.0746637069068234,0.418334073851509,0.00731935685781782,,
0.0749061215396378,0.446139822031636,0.00804742665048463,,
0.0751485361724521,0.457054662725181,0.00844419660574447,,
0.0753909508052665,0.451798969743449,0.0085471683955527,,
0.0756333654380809,0.430155127208822,0.00838902042978429,,
0.0758757800708952,0.392413384199271,0.00784882721573243,,
0.0761181947037096,0.340851472482089,0.00708651307155828,,
0.0763606093365239,0.276293324923771,0.00601526332615521,,
0.0766030239693383,0.201682004755772,0.00473491383970659,,
0.0768454386021527,0.119451823618217,0.00327707478283346,,
0.077087853234967,0.0330736412697305,0.00170781918114882,,
0.0773302678677814,-0.0545625353413009,6.91846770726201E-05,,
0.0775726825005958,-0.140809566530167,-0.00158218372446184,,
0.0778150971334101,-0.221380923116906,-0.00316499058848851,,
0.0780575117662245,-0.293879283904738,-0.00459591527645564,,
0.0782999263990388,-0.355348818107457,-0.00589118571837899,,
0.0785423410318532,-0.404043137027923,-0.00697287507466315,,
0.0787847556646676,-0.437900138712389,-0.00778917374153965,,
0.0790271702974819,-0.455632782711256,-0.00830956608898425,,
0.0792695849302963,-0.456320315534511,-0.00854797766771398,,
0.0795119995631107,-0.440565649489766,-0.00846133699012119,,
0.079754414195925,-0.408896793896768,-0.00809590205294874,,
0.0799968288287394,-0.362456090251291,-0.00740130375687453,,
0.0802392434615537,-0.301956606486088,-0.00645366224139377,,
