Time domain (s),Current (AC) (A),Potential (AC) (V),Frequency (Hz),Column 5
0,0.10866205568523,0.00205580383967741,6309.6,0.3
4.95277038164067E-06,0.135165437146728,0.00235482313209934,,
9.90554076328135E-06,0.156416012956072,0.00258393720228156,,
1.4858311144922E-05,0.171560402279481,0.0026694151138873,,
1.98110815265627E-05,0.180024340921623,0.00267789821906073,,
2.47638519082034E-05,0.181539600714245,0.0025716949171688,,
2.9716622289844E-05,0.176045558711307,0.0023639715788546,,
3.46693926714847E-05,0.163675290850112,0.00206253857502636,,
3.96221630531254E-05,0.144961366452309,0.00168083580564371,,
4.45749334347661E-05,0.120716075051738,0.00125494696251716,,
4.95277038164067E-05,0.091881498678415,0.000786467017273029,,
5.44804741980474E-05,0.0594735726446863,0.000244446497310591,,
5.94332445796881E-05,0.025203718207357,-0.000243842145373652,,
6.43860149613288E-05,-0.00918076695390339,-0.000729981365112931,,
6.93387853429694E-05,-0.0439568024691477,-0.00124757645632334,,
7.42915557246101E-05,-0.0777980229821564,-0.00169478395264733,,
7.92443261062508E-05,-0.108671350720764,-0.00206514634439481,,
8.41970964878915E-05,-0.135358967029423,-0.00236759769047845,,
8.91498668695321E-05,-0.156674921945844,-0.00257168013180031,,
9.41026372511728E-05,-0.17200540512352,-0.00263764874967842,,
9.90554076328135E-05,-0.180528059418696,-0.00268027311887531,,
0.000104008178014454,-0.182076974482834,-0.00256961018021151,,
0.000108960948396095,-0.176250170207794,-0.0023473731545498,,
0.000113913718777736,-0.163868989733452,-0.0020740637697676,,
0.000118866489159376,-0.145059217826381,-0.00168528250521893,,
0.000123819259541017,-0.120656055679436,-0.00123736346303627,,
0.000128772029922658,-0.0916092386376037,-0.000738756481314162,,
0.000133724800304298,-0.0591397722257578,-0.000232346521369831,,
0.000138677570685939,-0.0245659580550054,0.000273290903071377,,
0.00014363034106758,0.00988028477091721,0.00073267230217855,,
0.00014858311144922,0.0443810182337211,0.00123792161069636,,
0.000153535881830861,0.07792414575002,0.00169548440947942,,
0.000158488652212502,0.10863800930759,0.00204654819899996,,
0.000163441422594142,0.135158194261897,0.00235828290832663,,
0.000168394192975783,0.156350585563096,0.00255946372108218,,
0.000173346963357424,0.171687949481361,0.00266983280054722,,
0.000178299733739064,0.179998507965725,0.00267341455606518,,
0.000183252504120705,0.1814491853686,0.00257554280931904,,
0.000188205274502346,0.175942226887713,0.00235099372165903,,
0.000193158044883986,0.163775170231936,0.00207891706697527,,
0.000198110815265627,0.144996880730933,0.00167898393823984,,
0.000203063585647268,0.120728556956598,0.00126236182481732,,
0.000208016356028908,0.0918152987110562,0.000760943774910317,,
0.000212969126410549,0.0594713756362874,0.000262290588911807,,
0.00021792189679219,0.0252045149246885,-0.000270692374558568,,
0.00022287466717383,-0.00913335020120734,-0.000717885085514069,,
0.000227827437555471,-0.0439313558004402,-0.00120631049285702,,
0.000232780207937112,-0.0778038655759204,-0.00167630593837176,,
0.000237732978318752,-0.108691292796999,-0.00208263558715194,,
0.000242685748700393,-0.135475818904702,-0.0023587431029215,,
0.000247638519082034,-0.156784917223484,-0.00257486453053968,,
0.000252591289463674,-0.171937418577903,-0.00266826924782926,,
0.000257544059845315,-0.180477166081281,-0.002653018140228,,
0.000262496830226956,-0.182104449159294,-0.00256168522269862,,
0.000267449600608596,-0.176428634890039,-0.00234777420766985,,
0.000272402370990237,-0.163836107036318,-0.00206857654988513,,
0.000277355141371878,-0.14493126019436,-0.00168885132353891,,
0.000282307911753518,-0.120757600924772,-0.00123054925633159,,
0.000287260682135159,-0.0916074037734464,-0.000797308388721607,,
0.0002922134525168,-0.0591954458671616,-0.000253188346432953,,
0.00029716622289844,-0.0246424429188246,0.000267589295345871,,
0.000302118993280081,0.0097846062622948,0.000756911065653565,,
0.000307071763661722,0.0443168704170646,0.00124138138692409,,
0.000312024534043362,0.0779628951838679,0.00170007157005436,,
0.000316977304425003,0.10872219577228,0.00207636659091026,,
0.000321930074806644,0.135198537130408,0.00235836422785329,,
0.000326882845188285,0.156419417111943,0.00256157802877643,,
0.000331835615569925,0.171460305611111,0.00265682167627279,,
0.000336788385951566,0.180024147778028,0.00262087474912187,,
0.000341741156333206,0.181413067516241,0.00253754071594736,,
0.000346693926714847,0.176069967233189,0.00235307845861676,,
0.000351646697096488,0.163771959219661,0.00207735351425731,,
0.000356599467478129,0.144833601963884,0.00169670050603798,,
0.000361552237859769,0.120640773192442,0.00123523436997264,,
0.00036650500824141,0.0917717206873208,0.000753636106531896,,
0.000371457778623051,0.059544625344882,0.000251894626689175,,
0.000376410549004691,0.0252463063701655,-0.000265347463848098,,
0.000381363319386332,-0.00914445595794878,-0.000728744938673032,,
0.000386316089767973,-0.0439737508196531,-0.00123975869273218,,
0.000391268860149613,-0.0777354444572134,-0.00168917475347508,,
0.000396221630531254,-0.108753823036043,-0.00206764876801246,,
0.000401174400912895,-0.135258290930266,-0.00236534107361175,,
0.000406127171294535,-0.156783468646517,-0.00258104296639949,,
0.000411079941676176,-0.171906950175712,-0.00268836995629718,,
0.000416032712057817,-0.180562535550493,-0.00266159550212564,,
0.000420985482439457,-0.181938152523566,-0.00255562876612903,,
0.000425938252821098,-0.176281845757456,-0.00238394291534849,,
0.000430891023202739,-0.163784247980925,-0.00207444818934865,,
0.000435843793584379,-0.145025514268966,-0.00167031231961889,,
0.00044079656396602,-0.120696036403705,-0.00125128388747342,,
0.000445749334347661,-0.0915305326224361,-0.00077480136153163,,
0.000450702104729301,-0.0590626596452532,-0.000243237793436712,,
0.000455654875110942,-0.0246117813730385,0.00025567783285263,,
0.000460607645492583,0.00984071447678849,0.000749355742353242,,
0.000465560415874223,0.0443864745402941,0.00123514196141983,,
0.000470513186255864,0.077855941917858,0.0016705156184349,,
0.000475465956637505,0.108551432690906,0.00205750415705408,,
0.000480418727019145,0.135054041578022,0.00236071140510186,,
0.000485371497400786,0.156357442160736,0.00255882795023687,,
0.000490324267782427,0.171541256920576,0.00267185469968867,,
0.000495277038164067,0.180121612864909,0.00267687433229247,,
0.000500229808545708,0.18163646222739,0.00255424078966149,,
0.000505182578927349,0.17607078809347,0.00236562014744202,,
0.000510135349308989,0.163729781486993,0.00208690116596211,,
0.00051508811969063,0.14496177688245,0.00169231664427949,,
0.000520040890072271,0.120704148434716,0.00124150706255621,,
0.000524993660453911,0.091744052867265,0.000757389741958381,,
0.000529946430835552,0.0595879860820725,0.000274508847800892,,
0.000534899201217193,0.0252033077772166,-0.000246978491665661,,
0.000539851971598833,-0.00915551342879134,-0.00075329419488579,,
0.000544804741980474,-0.0439248854899908,-0.00122237664389679,,
0.000549757512362115,-0.0777104323615957,-0.00170249267414579,,
0.000554710282743756,-0.108670916147674,-0.00204668496365912,,
0.000559663053125396,-0.135378957391557,-0.00236078163560238,,
0.000564615823507037,-0.156731609591125,-0.00257528036902865,,
0.000569568593888678,-0.172030465505037,-0.0026816629435138,,
0.000574521364270318,-0.18038658173499,-0.002654006911746,,
0.000579474134651959,-0.181900006663454,-0.00253118670383756,,
0.0005844269050336,-0.17636455950223,-0.00237495156313283,,
0.00058937967541524,-0.163834658459352,-0.00207792459911582,,
0.000594332445796881,-0.145129232379751,-0.00167751094590418,,
0.000599285216178522,-0.120642197626458,-0.00125508557534726,,
0.000604237986560162,-0.0915606147374358,-0.000759905102774017,,
0.000609190756941803,-0.0590851125882304,-0.000243642542899103,,
0.000614143527323444,-0.0245697726410166,0.000273351892716267,,
0.000619096297705084,0.00981572652412025,0.000755768895937425,,
0.000624049068086725,0.0444024088869231,0.00123841692054105,,
0.000629001838468366,0.0779275740488402,0.0016652002784614,,
0.000633954608850006,0.108560124152703,0.0020665380172038,,
0.000638907379231647,0.135198343986812,0.00235802046803579,,
0.000643860149613288,0.156308625116973,0.00254469313795669,,
0.000648812919994928,0.171478267965493,0.00264454242773837,,
0.000653765690376569,0.180183177385975,0.00268084420373338,,
0.00065871846075821,0.181441097480538,0.00257832985128026,,
0.00066367123113985,0.175962217249848,0.00237646891157439,,
0.000668624001521491,0.163710829271684,0.00205240320492361,,
0.000673576771903132,0.145032008722365,0.0016884687521288,,
0.000678529542284772,0.120716461338929,0.00125012693238835,,
0.000683482312666413,0.0918441495356345,0.000759629725285205,,
0.000688435083048054,0.059523838265416,0.000251722746780647,,
0.000693387853429694,0.0252095849440704,-0.000232732789121393,,
0.000698340623811335,-0.00914725654008357,-0.00073634646624976,,
0.000703293394192976,-0.0439420752699906,-0.00124102653808045,,
0.000708246164574616,-0.0778004372771002,-0.00170667878160069,,
0.000713198934956257,-0.108664252693629,-0.00206788163756588,,
0.000718151705337898,-0.135332699500434,-0.00235945280060923,,
0.000723104475719538,-0.156773183750057,-0.00256979499731758,,
0.000728057246101179,-0.17196160981324,-0.00267574694794526,,
0.00073301001648282,-0.180514153079819,-0.00266215180161522,,
0.00073796278686446,-0.181955052588172,-0.0025673554115162,,
0.000742915557246101,-0.176527089837846,-0.00235094197286978,,
0.000747868327627742,-0.163886324371149,-0.00208774947647994,,
0.000752821098009382,-0.144974862361045,-0.00167956611212494,,
0.000757773868391023,-0.120551130421179,-0.00124510545161405,,
0.000762726638772664,-0.0916623531263671,-0.000761063906029591,,
0.000767679409154304,-0.0591383719346904,-0.000231712598695477,,
0.000772632179535945,-0.0246046833459038,0.000244817979694112,,
0.000777584949917586,0.00981126007847424,0.000747069554749569,,
0.000782537720299226,0.0443293764648735,0.00124830463572145,,
0.000787490490680867,0.077908211403391,0.00168530098692887,,
0.000792443261062508,0.108614421645989,0.00205805860837271,,
0.000797396031444149,0.135128112146897,0.00235099372165903,,
0.000802348801825789,0.156459397836212,0.00253883813203304,,
0.00080730157220743,0.171536621474284,0.00265318077928089,,
0.00081225434258907,0.180209227628419,0.00264449437529102,,
0.000817207112970711,0.181528688101099,0.00253670903896985,,
0.000822159883352352,0.176023178197178,0.00234828799922493,,
0.000827112653733993,0.163625652946068,0.00205048849970346,,
0.000832065424115633,0.144937947791355,0.00169937665773512,,
0.000837018194497274,0.120757431924125,0.00126867887350635,,
0.000841970964878915,0.0917987607906913,0.000766859770478856,,
0.000846923735260555,0.0595274838507811,0.000246316846424843,,
0.000851876505642196,0.0251974651834526,-0.000264866939372332,,
0.000856829276023837,-0.00915411313772394,-0.000732592830823275,,
0.000861782046405477,-0.0439479178637546,-0.00123899909442615,,
0.000866734816787118,-0.0778200413520438,-0.00167792863256411,,
0.000871687587168759,-0.108682408191606,-0.00206066637774116,,
0.000876640357550399,-0.135351869002288,-0.00237306642865009,,
0.00088159312793204,-0.156656380160676,-0.00257733553524941,,
0.000886545898313681,-0.172010475142902,-0.00266521052472246,,
0.000891498668695321,-0.180444524813641,-0.00266222942479954,,
0.000896451439076962,-0.181863067950814,-0.00255692803038565,,
0.000901404209458603,-0.176325641067736,-0.002361694632107,,
0.000906356979840243,-0.163989076763956,-0.00208323809091793,,
0.000911309750221884,-0.145116098615257,-0.00170891876492751,,
0.000916262520603525,-0.120698450698649,-0.00125338525797059,,
0.000921215290985165,-0.091558586729683,-0.000751486683587821,,
0.000926168061366806,-0.0590929831897472,-0.000254361935057013,,
0.000931120831748447,-0.0246350068903978,0.000256418949448722,,
0.000936073602130087,0.00982195540507523,0.000745711149019446,,
0.000941026372511728,0.0443741616360808,0.00124669672689759,,
0.000945979142893369,0.0779197034473235,0.00168462085997856,,
0.000950931913275009,0.108604740323264,0.00206134835286242,,
0.00095588468365665,0.135183182214565,0.00236582344625846,,
0.000960837454038291,0.15640106847037,0.00257403100539078,,
0.000965790224419931,0.171558808844818,0.00265629679569113,,
0.000970742994801572,0.179914176643338,0.00268501737399074,,
0.000975695765183213,0.181560556794357,0.00255672842791066,,
0.000980648535564854,0.175960792815831,0.00236052658799579,,
0.000985601305946494,0.163529177720114,0.00207046353253881,,
0.000990554076328135,0.144875393409361,0.00168542666256144,,
0.000995506846709775,0.120678725908958,0.00123670181779589,,
0.00100045961709142,0.091807234965944,0.00076381768091105,,
0.00100541238747306,0.0595462429224944,0.000259586714648208,,
0.0010103651578547,0.0251918157332841,-0.00027357921775728,,
0.00101531792823634,-0.00919568729665601,-0.000754870684801734,,
0.00102027069861798,-0.0439931134651023,-0.00123706960383752,,
0.00102522346899962,-0.0777570282540109,-0.00167392734221528,,
0.00103017623938126,-0.108713938883572,-0.00207197533646797,,
0.0010351290097629,-0.135381757973692,-0.00233561693842566,,
0.00104008178014454,-0.156856573497415,-0.00257944984294411,,
0.00104503455052618,-0.171883724658353,-0.00266426795748087,,
0.00104998732090782,-0.180538392601055,-0.00264928113834095,,
0.00105494009128946,-0.182020093693958,-0.00257504749947479,,
0.0010598928616711,-0.17640796852532,-0.00232288673615244,,
0.00106484563205274,-0.163840549339014,-0.00204289990932427,,
0.00106979840243439,-0.145123148356493,-0.00167329341954137,,
0.00107475117281603,-0.120683337212301,-0.001242987447577,,
0.00107970394319767,-0.0915239174542901,-0.000763813984569595,,
0.00108465671357931,-0.0591628045995216,-0.000249063228622948,,
0.00108960948396095,-0.0246248668516338,0.000254056986831674,,
0.00109456225434259,0.00981872024985055,0.000771883099424553,,
0.00109951502472423,0.0443838429588054,0.00123463186620665,,
0.00110446779510587,0.0779449328294861,0.00169120034895798,,
0.00110942056548751,0.108613624928658,0.00203295674901183,,
0.00111437333586915,0.135256238779564,0.00234773354790629,,
0.00111932610625079,0.156336051507534,0.00256245775820219,,
0.00112427887663243,0.17161066790021,0.0026820048551599,,
0.00112923164701407,0.18010567851828,0.00267066447752518,,
0.00113418441739571,0.181543004870116,0.00257145095858835,,
0.00113913718777736,0.175937398297825,0.0023565382348445,,
0.001144089958159,0.163684996315786,0.00206199521273387,,
0.00114904272854064,0.145044707913769,0.00168408119402841,,
0.00115399549892228,0.120671652024773,0.00124464156067727,,
0.00115894826930392,0.0918316434878257,0.000759784971654298,,
0.00116390103968556,0.0595900140898253,0.000268145594835456,,
0.0011688538100672,0.0252212701315984,-0.000247425749062558,,
0.00117380658044884,-0.00912180987137602,-0.000734585159227752,,
0.00117875935083048,-0.0439281689311144,-0.00123333075377952,,
0.00118371212121212,-0.0777382450393482,-0.00169608136873256,,
0.00118866489159376,-0.108711476302729,-0.0020666766300339,,
0.0011936176619754,-0.135287310755491,-0.00235804819060226,,
0.00119857043235704,-0.156622435173766,-0.00256940872956557,,
0.00120352320273868,-0.172037128959082,-0.00266973854382346,,
0.00120847597312032,-0.180405944380439,-0.00265288137556929,,
0.00121342874350197,-0.18187740886278,-0.00255363643772455,,
0.00121838151388361,-0.176174699347851,-0.00236897272974845,,
0.00122333428426525,-0.164048033846484,-0.00205787009492475,,
0.00122828705464689,-0.145007551914584,-0.00170318758646504,,
0.00123323982502853,-0.120644805064998,-0.00124989406283493,,
0.00123819259541017,-0.0915565587219302,-0.000761899279349443,,
0.00124314536579181,-0.0590800425688485,-0.000241755560244972,,
0.00124809813617345,-0.0246470783651167,0.00023344618315102,,
0.00125305090655509,0.00980037160827775,0.00073792480433621,,
0.00125800367693673,0.0443755860700976,0.00123614736647726,,
0.00126295644731837,0.0779512099963399,0.00167627821580574,,
0.00126790921770001,0.108708241147505,0.00207499155164026,,
0.00127286198808165,0.13524655745684,0.00237243620231764,,
0.00127781475846329,0.156397422885005,0.00256851236660038,,
0.00128276752884493,0.17148271026819,0.00266624734868737,,
0.00128772029922658,0.180047542296033,0.00267815696300922,,
0.00129267306960822,0.181503241432392,0.00257546888247662,,
0.00129762583998986,0.175965428262123,0.0023595359683064,,
0.0013025786103715,0.163681157586825,0.00205652832273362,,
0.00130753138075314,0.144922230731271,0.00170848814106961,,
0.00131248415113478,0.120652482522919,0.00127823391789539,,
0.00131743692151642,0.0918367135072077,0.000763013726499562,,
0.00132238969189806,0.0595107286438712,0.000258721770591386,,
0.0013273424622797,0.0252283440157837,-0.000276484542666378,,
0.00133229523266134,-0.00913392963199385,-0.000741783785513483,,
0.00133724800304298,-0.0439085648561708,-0.00125587289621976,,
0.00134220077342462,-0.0777594908348535,-0.00168327354327458,,
0.00134715354380626,-0.108665459841101,-0.00207864908217203,,
0.0013521063141879,-0.135485524370376,-0.00236311402748246,,
0.00135705908456954,-0.156768355160169,-0.00256378659319578,,
0.00136201185495119,-0.172043985556722,-0.00267556028266824,,
0.00136696462533283,-0.180513766792629,-0.00268523176183422,,
0.00137191739571447,-0.181974270375925,-0.00255439418786008,,
0.00137687016609611,-0.176399470207118,-0.00235208414258592,,
0.00138182293647775,-0.163842770490363,-0.00204243786655889,,
0.00138677570685939,-0.145110256021493,-0.00169005633107133,,
0.00139172847724103,-0.120537465511797,-0.00126317871642678,,
0.00139668124762267,-0.0915801705264805,-0.00074637279425982,,
0.00140163401800431,-0.0591195887200277,-0.000237552819250642,,
0.00140658678838595,-0.0246208591220272,0.000274061590403996,,
0.00141153955876759,0.0097900867118172,0.000735220930073055,,
0.00141649232914923,0.0443689226160527,0.00122058946247972,,
0.00142144509953087,0.0779027550968181,0.00167766804044422,,
0.00142639786991251,0.108689288932196,0.00205390391982574,,
0.00143135064029415,0.135099840753105,0.00235632384700146,,
0.0014363034106758,0.156404303625595,0.00258089141637186,,
0.00144125618105744,0.171606225597514,0.00266122771608401,,
0.00144620895143908,0.180067943088308,0.00267347739388102,,
0.00145116172182072,0.181491363101268,0.00255201559170315,,
0.00145611449220236,0.176000966683695,0.00235975405249178,,
0.001461067262584,0.163688207328061,0.00206779107718358,,
0.00146602003296564,0.145068923292055,0.00168727852996531,,
0.00147097280334728,0.120662163845644,0.00125486933933283,,
0.00147592557372892,0.0918560761526568,0.000733862524342488,,
0.00148087834411056,0.0594481501189282,0.00025144552112133,,
0.0014858311144922,0.0251809272630876,-0.000259074771264523,,
0.00149078388487384,-0.00912668674716248,-0.000742000021527467,,
0.00149573665525548,-0.0439477247201591,-0.0012490439041466,,
0.00150068942563712,-0.0777937738230553,-0.00170701884507585,,
0.00150564219601877,-0.108775648262335,-0.00207807984548491,,
0.00151059496640041,-0.135268962113918,-0.00237797886733215,,
0.00151554773678205,-0.156710218937923,-0.00255715720359717,,
0.00152050050716369,-0.171975371294419,-0.00266300011213261,,
0.00152545327754533,-0.180296576819485,-0.00269723563288027,,
0.00153040604792697,-0.181949451423903,-0.00257293134360914,,
0.00153535881830861,-0.176364173215039,-0.00237549122908298,,
0.00154031158869025,-0.163745281260532,-0.00207142088514933,,
0.00154526435907189,-0.144907020673125,-0.00169069025374569,,
0.00155021712945353,-0.120598209172582,-0.0012692647437329,,
0.00155516989983517,-0.0916102526414801,-0.000758191848199807,,
0.00156012267021681,-0.0590853057318259,-0.000259723479307361,,
0.00156507544059845,-0.0245788503900052,0.000259137609080362,,
0.00157002821098009,0.00983224030153578,0.000744659539685166,,
0.00157498098136173,0.0443590240067832,0.00121019165208613,,
0.00157993375174338,0.0778900317624643,0.00168961092184494,,
0.00158488652212502,0.108648318347,0.00208447636552922,,
