Time domain (s),Current (AC) (A),Potential (AC) (V),Frequency (Hz),Column 5
0,-0.0267605636244211,0.000311547430805081,5011.9,0.4
6.23516031844211E-06,0.0248831579682082,0.00100579474981499,,
1.24703206368842E-05,0.076676211096376,0.0017676611174986,,
1.87054809553263E-05,0.126284210759867,0.0024070899793367,,
2.49406412737684E-05,0.170923708428111,0.00298503010477758,,
3.11758015922105E-05,0.209053142728245,0.00342223121957153,,
3.74109619106526E-05,0.238911187344313,0.00375107784152773,,
4.36461222290948E-05,0.259677833318157,0.00392290882409707,,
4.98812825475369E-05,0.270339914282716,0.00395672762911525,,
5.6116442865979E-05,0.270375564333955,0.00380423083813897,,
6.23516031844211E-05,0.260077090780169,0.00353405837485532,,
6.85867635028632E-05,0.239836615295155,0.00310887827427875,,
7.48219238213053E-05,0.210259726512683,0.00257247848123709,,
8.10570841397474E-05,0.17253509652208,0.00192425153291254,,
8.72922444581895E-05,0.128357027231786,0.00121912219246889,,
9.35274047766316E-05,0.0792524906500952,0.000463100967016405,,
9.97625650950737E-05,0.0276242828966192,-0.000271313143465068,,
0.000105997725413516,-0.0239875443227785,-0.00101039459326735,,
0.000112232885731958,-0.0762438169984067,-0.00175818807232409,,
0.0001184680460504,-0.126166600258576,-0.0024193067315732,,
0.000124703206368842,-0.171253861414788,-0.00297710777718718,,
0.000130938366687284,-0.209410856613529,-0.00346345769618095,,
0.000137173527005726,-0.239589058334809,-0.00376321022392823,,
0.000143408687324168,-0.260082810966672,-0.00392858522665529,,
0.000149643847642611,-0.270945156238516,-0.00394700147443361,,
0.000155879007961053,-0.270940129407953,-0.00379172722845977,,
0.000162114168279495,-0.260595894362138,-0.00353508262466251,,
0.000168349328597937,-0.239984964576445,-0.00311624038615843,,
0.000174584488916379,-0.21034463372548,-0.00258078384788218,,
0.000180819649234821,-0.172323998528236,-0.00192154157378299,,
0.000187054809553263,-0.127847295056696,-0.00125668533080425,,
0.000193289969871705,-0.0787258001443105,-0.000455946404932295,,
0.000199525130190147,-0.0267615458786692,0.00027703510573529,,
0.00020576029050859,0.0248816268071745,0.00102840586583408,,
0.000211995450827032,0.0767576515294739,0.00175475253260737,,
0.000218230611145474,0.126201008047089,0.00240942196160088,,
0.000224465771463916,0.170967447631981,0.0029903319052651,,
0.000230700931782358,0.209205363246866,0.00344496045336085,,
0.0002369360921008,0.239006003769083,0.00373865860168454,,
0.000243171252419242,0.259768865175089,0.00394472011407165,,
0.000249406412737684,0.270345721138712,0.00394215189626701,,
0.000255641573056126,0.270459258173858,0.00382397337973739,,
0.000261876733374569,0.259907160795252,0.00352122403541921,,
0.000268111893693011,0.239888963668611,0.00309586507079107,,
0.000274347054011453,0.210379850429257,0.00259036151165271,,
0.000280582214329895,0.172535847657682,0.00192980306811386,,
0.000286817374648337,0.12818259043326,0.00121007099647441,,
0.000293052534966779,0.0792444014974639,0.000498824842929402,,
0.000299287695285221,0.0275888928538577,-0.000276393894982352,,
0.000305522855603663,-0.0239812463396584,-0.00100865151245788,,
0.000311758015922105,-0.0762640398799847,-0.00178326447494781,,
0.000317993176240548,-0.126075539511813,-0.00242122698903824,,
0.00032422833655899,-0.171089767175698,-0.00299599480864954,,
0.000330463496877432,-0.209463782783602,-0.00344641498933118,,
0.000336698657195874,-0.23941277258711,-0.00378311644300844,,
0.000342933817514316,-0.260253260968544,-0.00392270802388728,,
0.000349168977832758,-0.270910026204232,-0.00396117898165649,,
0.0003554041381512,-0.27124301039433,-0.00382285969790352,,
0.000361639298469642,-0.260518758513833,-0.00350330219487915,,
0.000367874458788084,-0.240133631645874,-0.00309887201174153,,
0.000374109619106526,-0.210312566013263,-0.00257946936583897,,
0.000380344779424969,-0.172404370037594,-0.00191957744400373,,
0.000386579939743411,-0.127856366463575,-0.00122392958571771,,
0.000392815100061853,-0.0785819287867981,-0.000478704324465618,,
0.000399050260380295,-0.0267175755561524,0.000278953675803439,,
0.000405285420698737,0.0248558570780779,0.00103646487255826,,
0.000411520581017179,0.0767091166136866,0.00178003648502711,,
0.000417755741335621,0.126219988665942,0.00243997734136725,,
0.000423990901654063,0.170833427706781,0.00298430452418907,,
0.000430226061972505,0.20916844204307,0.00344726543727747,,
0.000436461222290948,0.239061385574776,0.00377367208357926,,
0.00044269638260939,0.259681617885995,0.0039373056928933,,
0.000448931542927832,0.270269596434486,0.00394494285043834,,
0.000455166703246274,0.270366204028768,0.00382766540375634,,
0.000461401863564716,0.260249505290537,0.0035221993507224,,
0.000467637023883158,0.239880614507502,0.00310886140031164,,
0.0004738721842016,0.21029739885208,0.00254834533337922,,
0.000480107344520042,0.17267292990495,0.00191528808154739,,
0.000486342504838484,0.128365896409849,0.00124198304320222,,
0.000492577665156927,0.0793185039135321,0.000486994504540483,,
0.000498812825475369,0.0275855994131435,-0.000280352527682215,,
0.000505047985793811,-0.0239668014242455,-0.00100101604230973,,
0.000511283146112253,-0.0762638087613381,-0.00177626515336238,,
0.000517518306430695,-0.126100095868015,-0.00244407434059779,,
0.000523753466749137,-0.170976287920214,-0.00300171002133265,,
0.000529988627067579,-0.209443213224054,-0.00343355196415107,,
0.000536223787386021,-0.239626441775897,-0.00376792143556459,,
0.000542458947704463,-0.26018802773054,-0.0039118243150571,,
0.000548694108022906,-0.270797529202997,-0.00396340803272111,,
0.000554929268341348,-0.270982828577913,-0.00381717317096442,,
0.00056116442865979,-0.260801416618633,-0.00355657162186418,,
0.000567399588978232,-0.23991620677908,-0.00310124955371727,,
0.000573634749296674,-0.210472615676038,-0.00257607432364271,,
0.000579869909615116,-0.172304006765305,-0.00194063615504225,,
0.000586105069933558,-0.127998966668531,-0.00122422488014351,,
0.000592340230252,-0.0786587757367947,-0.000471512639653948,,
0.000598575390570442,-0.0267661104719397,0.000316938663318389,,
0.000604810550888885,0.0248715153663855,0.00100191036257069,,
0.000611045711207327,0.0767781055296985,0.00175368947267485,,
0.000617280871525769,0.126197743496206,0.00240965819714134,,
0.000623516031844211,0.170959098470873,0.00299198555404834,,
0.000629751192162653,0.209149230305571,0.00343550765694767,,
0.000635986352481095,0.23899086549773,0.00376949408930605,,
0.000642221512799537,0.259764820598773,0.00391461020703865,,
0.000648456673117979,0.270431206148126,0.00393794015405913,,
0.000654691833436421,0.270209678925354,0.00381871882635831,,
0.000660926993754863,0.260114763119566,0.00351801798165541,,
0.000667162154073306,0.240010069839433,0.00312211083933978,,
0.000673397314391748,0.210266053385634,0.00255755851945816,,
0.00067963247471019,0.172674952193108,0.00194475002824035,,
0.000685867635028632,0.128255392806941,0.00122358366939102,,
0.000692102795347074,0.0793179838965772,0.000493980326952137,,
0.000698337955665516,0.0276217405915066,-0.000275536697449841,,
0.000704573115983958,-0.0240097894925143,-0.00103298883531933,,
0.0007108082763024,-0.0762142915913027,-0.00175845299360899,,
0.000717043436620842,-0.126182027428237,-0.00241043271223429,,
0.000723278596939285,-0.171122181565884,-0.00297902634725533,,
0.000729513757257727,-0.209492094817811,-0.00347931753793196,,
0.000735748917576169,-0.239406994620945,-0.00379378079026527,,
0.000741984077894611,-0.260312889579369,-0.00392845192231439,,
0.000748219238213053,-0.270839766135664,-0.00394775574076656,,
0.000754454398531495,-0.271095614477457,-0.00380287754597086,,
0.000760689558849937,-0.260432782377296,-0.00351501272810095,,
0.000766924719168379,-0.239978666593325,-0.003110626417278,,
0.000773159879486821,-0.210355034064577,-0.00257316356430426,,
0.000779395039805264,-0.172483470394395,-0.001947459987369,,
0.000785630200123706,-0.127949680617142,-0.00121266115043595,,
0.000791865360442148,-0.0787249912290474,-0.000470390520836972,,
0.00079810052076059,-0.0267850622009614,0.00029977783869839,,
0.000804335681079032,0.0249395220281493,0.00101976301984541,,
0.000810570841397474,0.0766942094609805,0.00174937986145762,,
0.000816806001715916,0.126136265936208,0.00243566435535625,,
0.000823041162034358,0.170941909021531,0.00299752359007632,,
0.0008292763223528,0.2091128002289,0.00345333331587439,,
0.000835511482671243,0.239005021514835,0.00377427954639753,,
0.000841746642989685,0.259840656404691,0.00394345119173956,,
0.000847981803308127,0.270540669717125,0.00396876551730019,,
0.000854216963626569,0.270167962009641,0.00382300143922798,,
0.000860452123945011,0.259980714304534,0.0035337478938593,,
0.000866687284263453,0.239812838964385,0.00311544899709792,,
0.000872922444581895,0.210226618766557,0.00257851598669356,,
0.000879157604900337,0.172597556336326,0.00193381907230261,,
0.000885392765218779,0.128397993011897,0.00120460720590243,,
0.000891627925537222,0.0793030767438711,0.000478652015167835,,
0.000897863085855664,0.0275593096670921,-0.000275492825135171,,
0.000904098246174106,-0.0240338258317613,-0.00101373226397561,,
0.000910333406492548,-0.0762665821850974,-0.00174604894033648,,
0.00091656856681099,-0.126163306817861,-0.00241453646105194,,
0.000922803727129432,-0.171050592565098,-0.00299837403802172,,
0.000929038887447874,-0.209386358036989,-0.00344727218686369,,
0.000935274047766316,-0.239488406164212,-0.0037635780764127,,
0.000941509208084758,-0.259935183931153,-0.00394480279651033,,
0.0009477443684032,-0.270858948983332,-0.00395215647140645,,
0.000953979528721643,-0.270947698543629,-0.00384185134796233,,
0.000960214689040085,-0.260650785040707,-0.00353619124430615,,
0.000966449849358527,-0.239995827152836,-0.00309193006164454,,
0.000972685009676969,-0.210269289046686,-0.0025732226231896,,
0.000978920169995411,-0.172335843358875,-0.00191451019166022,,
0.000985155330313853,-0.127940320311955,-0.00124181430352976,,
0.000991390490632295,-0.0787482764326929,-0.000473343465093201,,
0.000997625650950737,-0.0267734484889694,0.000293161556167654,,
0.00100386081126918,0.0248712842477388,0.00102825737492296,,
0.00101009597158762,0.076760944970188,0.00176794122535373,,
0.00101633113190606,0.12624650953064,0.00245266318989179,,
0.00102256629222451,0.171155318201841,0.00300725649434463,,
0.00102880145254295,0.209267331933987,0.00344521356286842,,
0.00103503661286139,0.239084381880113,0.00375065261755481,,
0.00104127177317983,0.259703371928606,0.00393677585032393,,
0.00104750693349827,0.270122489415922,0.00393633037759056,,
0.00105374209381672,0.270380128927226,0.00380109565503739,,
0.00105997725413516,0.260190627815314,0.00353486832527983,,
0.0010662124144536,0.239698319674992,0.00307117508201582,,
0.00107244757477204,0.210158323206485,0.00256244859514654,,
0.00107868273509048,0.172622834938298,0.00194194220010191,,
0.00108491789540893,0.128393948435581,0.00123415689722473,,
0.00109115305572737,0.0792368323617876,0.000455067271242449,,
0.00109738821604581,0.0276824381260715,-0.000270914917839704,,
0.00110362337636425,-0.0240112917637172,-0.00101746816030879,,
0.0011098585366827,-0.0762347455915274,-0.00176563117924644,,
0.00111609369700114,-0.126120029851284,-0.00244119395440023,,
0.00112232885731958,-0.171090807209608,-0.00301275740764462,,
0.00112856401763802,-0.209348685697592,-0.00342662520062476,,
0.00113479917795646,-0.239554390537818,-0.00376188055531479,,
0.00114103433827491,-0.260327103376135,-0.00391551465167916,,
0.00114726949859335,-0.271013971815543,-0.00395457788569642,,
0.00115350465891179,-0.270993460035657,-0.00380983299524162,,
0.00115973981923023,-0.260530603344472,-0.0035268869388041,,
0.00116597497954867,-0.240155934595272,-0.00312319583542919,,
0.00117221013986712,-0.210214456147779,-0.00257692983377833,,
0.00117844530018556,-0.172429388631089,-0.00192174743618256,,
0.001184680460504,-0.127837183615907,-0.00123962743738382,,
0.00119091562082244,-0.0786261880076232,-0.000478925373435413,,
0.00119715078114088,-0.0267625281329173,0.000292113682805795,,
0.00120338594145933,0.024874577688453,0.00101942554050183,,
0.00120962110177777,0.0766650885115081,0.00175419231689666,,
0.00121585626209621,0.12615449541946,0.00240574006196237,,
0.00122209142241465,0.171043803454854,0.00300705063194506,,
0.0012283265827331,0.209057938440162,0.00343797463094919,,
0.00123456174305154,0.239152417431708,0.00375599491556322,,
0.00124079690336998,0.259707416504922,0.00395400754560615,,
0.00124703206368842,0.270219559247496,0.00394422064464317,,
0.00125326722400686,0.270323475968976,0.00381702130525996,,
0.00125950238432531,0.260074779593703,0.00352007323085779,,
0.00126573754464375,0.23967656563238,0.00311224631812745,,
0.00127197270496219,0.21039221527685,0.00256871221176302,,
0.00127820786528063,0.172615005794144,0.00193995107197509,,
0.00128444302559907,0.128349718104587,0.00122216625614779,,
0.00129067818591752,0.0792821027266916,0.000471399584074383,,
0.00129691334623596,0.0275732056757193,-0.000275567070590732,,
0.0013031485065544,-0.0240219232214611,-0.00101532685387395,,
0.00130938366687284,-0.0762117492861901,-0.00175296051729257,,
0.00131561882719128,-0.1260968024273,-0.00241719579827926,,
0.00132185398750973,-0.171147489057688,-0.00297385785110826,,
0.00132808914782817,-0.20955958146262,-0.00345459717601582,,
0.00133432430814661,-0.239620374911424,-0.00375606072403523,,
0.00134055946846505,-0.260430528970491,-0.00398402633321604,,
0.0013467946287835,-0.270736051642999,-0.00396066263826089,,
0.00135302978910194,-0.270692601337437,-0.00381500317878514,,
0.00135926494942038,-0.260522514191841,-0.0034975869821956,,
0.00136550010973882,-0.240222612324818,-0.00312563074889294,,
0.00137173527005726,-0.210242248165034,-0.00256282657201101,,
0.00137797043037571,-0.172429157512442,-0.00193127279065486,,
0.00138420559069415,-0.12803565675368,-0.00120331297261922,,
0.00139044075101259,-0.078711124110251,-0.000468868488997298,,
0.00139667591133103,-0.0267714262008116,0.00030280502841018,,
0.00140291107164947,0.0248535747814427,0.00101543653466063,,
0.00140914623196792,0.076699756308499,0.0017664968137634,,
0.00141538139228636,0.126253847547669,0.00243869154506804,,
0.0014216165526048,0.170956065038636,0.00302242281604448,,
0.00142785171292324,0.209164166348108,0.00346483798669661,,
0.00143408687324168,0.239117287397424,0.00376483012477813,,
0.00144032203356013,0.259850016709878,0.00391515692357514,,
0.00144655719387857,0.270092386212201,0.00396597118833553,,
0.00145279235419701,0.27050377740316,0.00381703480443374,,
0.00145902751451545,0.2600732773225,0.0035512326986491,,
0.0014652626748339,0.239870503066713,0.00310736974161285,,
0.00147149783515234,0.210116635180603,0.0025464115767404,,
0.00147773299547078,0.172534576505126,0.00196418546363653,,
0.00148396815578922,0.12828930946833,0.00123663737040003,,
0.00149020331610766,0.0793415002188694,0.000468610317299945,,
0.00149643847642611,0.0276058222947216,-0.000271254084579731,,
0.00150267363674455,-0.0240110606450706,-0.000992258453344608,,
0.00150890879706299,-0.0762686044732552,-0.00176078835066651,,
0.00151514395738143,-0.126145106224441,-0.00243642368387897,,
0.00152137911769987,-0.171156560464567,-0.0029935582077889,,
0.00152761427801832,-0.209399994037139,-0.00343291750298524,,
0.00153384943833676,-0.239502042164361,-0.00377765265243646,,
0.0015400845986552,-0.260308093867452,-0.00394364861715513,,
0.00154631975897364,-0.270933542526524,-0.00394268848842261,,
0.00155255491929209,-0.270871602729234,-0.00380673324747116,,
0.00155879007961053,-0.260507607039134,-0.00350516339345885,,
0.00156502523992897,-0.239933136219944,-0.00312477523875687,,
0.00157126040024741,-0.210359078640893,-0.00256381538648753,,
0.00157749556056585,-0.172365657664287,-0.00194709044748764,,
0.0015837307208843,-0.127901607938648,-0.00120002086162296,,
0.00158996588120274,-0.078691883482921,-0.000455414874966031,,
0.00159620104152118,-0.0267784753195331,0.00030137411599318,,
0.00160243620183962,0.0249074254261019,0.00100112741049374,,
0.00160867136215806,0.0767457489191737,0.00177154887953623,,
0.00161490652247651,0.126201268055566,0.00240388055077956,,
0.00162114168279495,0.170903485546533,0.00301142098944407,,
0.00162737684311339,0.20921951926397,0.00345448412043625,,
0.00163361200343183,0.238928636802131,0.00378107300558383,,
0.00163984716375027,0.259679855606314,0.00392649622951913,,
0.00164608232406872,0.270074416737427,0.00392818025144326,,
0.00165231748438716,0.270474425335041,0.00381981225943129,,
0.0016585526447056,0.260085671059924,0.00352527041274886,,
0.00166478780502404,0.239675294479824,0.00307161717995585,,
0.00167102296534249,0.210351769513694,0.00255181462103105,,
0.00167725812566093,0.172612232370385,0.00193633329341214,,
0.00168349328597937,0.12828474487506,0.00120024697278343,,
0.00168972844629781,0.0792651443959968,0.000460058590733947,,
0.00169596360661625,0.0276131603117513,-0.000293183492324545,,
0.0017021987669347,-0.0240024514754846,-0.00103157142207611,,
0.00170843392725314,-0.0763050056600957,-0.00177404960147198,,
0.00171466908757158,-0.125982283137907,-0.00242546572959323,,
0.00172090424789002,-0.171060935124534,-0.00300807488175225,,
0.00172713940820846,-0.209425821545897,-0.00347903743007683,,
0.00173337456852691,-0.239507068994925,-0.00373831099796007,,
0.00173960972884535,-0.26009673586513,-0.00392954535538781,,
0.00174584488916379,-0.270957058848817,-0.00395215647140645,,
0.00175208004948223,-0.270989935476296,-0.00382079263692425,,
0.00175831520980067,-0.260531123361427,-0.00350519207920286,,
0.00176455037011912,-0.239943016542086,-0.00313155351137251,,
0.00177078553043756,-0.210303436826723,-0.00259110734100165,,
0.001777020690756,-0.172393507461203,-0.00193341409708969,,
0.00178325585107444,-0.128046808228378,-0.00121964528545115,,
0.00178949101139289,-0.0787207155340851,-0.000468041664605678,,
0.00179572617171133,-0.0267289581494977,0.000290444847451887,,
0.00180196133202977,0.0248968228581888,0.00102992452287998,,
0.00180819649234821,0.0767477712073315,0.00175804970579385,,
0.00181443165266665,0.126167149165361,0.00244114164510245,,
0.0018206668129851,0.17095759619967,0.00299350758588801,,
0.00182690197330354,0.209180835780495,0.00345116332369555,,
0.00183313713362198,0.238979454014554,0.00375729421103621,,
0.00183937229394042,0.259582265757785,0.00393144367669551,,
0.00184560745425886,0.27036241946093,0.00393358667052723,,
0.00185184261457731,0.270274912163358,0.00380988699193718,,
0.00185807777489575,0.259997932643706,0.00352097430070497,,
0.00186431293521419,0.239650015877851,0.00309852778281172,,
0.00187054809553263,0.210253168521086,0.00255575975455713,,
0.00187678325585107,0.172638262107959,0.00192581743706643,,
0.00188301841616952,0.128370692121766,0.00122312469748387,,
0.00188925357648796,0.0792527506585726,0.000461860730428754,,
0.0018954887368064,0.0276328631763745,-0.000290763765431468,,
0.00190172389712484,-0.0239905488651843,-0.0010189446324369,,
0.00190795905744329,-0.0762486704899854,-0.00177716622320956,,
0.00191419421776173,-0.126129910173427,-0.00244061686472286,,
0.00192042937808017,-0.171093060616412,-0.00298444626551264,,
0.00192666453839861,-0.209334760799134,-0.00342872263474492,,
0.00193289969871705,-0.239456280672333,-0.00379454855577199,,
0.0019391348590355,-0.260005732898029,-0.00392626674356489,,
0.00194537001935394,-0.27107261817212,-0.00394697278868916,,
0.00195160517967238,-0.270862993559648,-0.0038284567928164,,
0.00195784033999082,-0.260381705156396,-0.00354050423031671,,
0.00196407550030926,-0.240119995645725,-0.00310658003994879,,
0.00197031066062771,-0.210251608470221,-0.00257140529692457,,
0.00197654582094615,-0.172502711021725,-0.00193836154426652,,
0.00198278098126459,-0.12794436488827,-0.00120118685275505,,
0.00198901614158303,-0.0786696383131852,-0.000469209343134214,,
0.00199525130190147,-0.0267688838956989,0.000290090494141193,,
0.00200148646221992,0.0248940205445987,0.00103734231885166,,
0.00200772162253836,0.0766833179947592,0.00176448543687568,,
