Time domain (s),Current (AC) (A),Potential (AC) (V),Frequency (Hz),Column 5
0,0.3684483352755,0.00637894185590548,316.23,0.4
9.88204787654555E-05,0.350671613453139,0.00622368534646434,,
0.000197640957530911,0.319556110060548,0.00583318780463493,,
0.000296461436296367,0.275966439954682,0.00524406448665937,,
0.000395281915061822,0.221899034894756,0.00437799726963295,,
0.000494102393827278,0.159286220105381,0.00340475802542528,,
0.000592922872592733,0.0903543903991465,0.00229424706837911,,
0.000691743351358189,0.0182973454636725,0.00108056130097411,,
0.000790563830123644,-0.0548008023052698,-0.000155532456715068,,
0.0008893843088891,-0.12649386426217,-0.00141302686318312,,
0.000988204787654555,-0.192721085786157,-0.00258354697546359,,
0.00108702526642001,-0.251375820413416,-0.00371156584935717,,
0.00118584574518547,-0.300445082511668,-0.00462428289072925,,
0.00128466622395092,-0.337819741091647,-0.00539754475296839,,
0.00138348670271638,-0.362519448634112,-0.005948419903405,,
0.00148230718148183,-0.373238615904383,-0.00627253873035194,,
0.00158112766024729,-0.368986090586491,-0.00637384084998738,,
0.00167994813901274,-0.351205439747138,-0.00620437171638821,,
0.0017787686177782,-0.31942986149984,-0.00583256625349371,,
0.00187758909654365,-0.275906753564196,-0.00520587124066596,,
0.00197640957530911,-0.22160635201866,-0.00439339673497896,,
0.00207523005407457,-0.15889716075365,-0.00339299945663596,,
0.00217405053284002,-0.089855376351293,-0.0022697815294892,,
0.00227287101160548,-0.0177306425421942,-0.00108178297045924,,
0.00237169149037093,0.0550842693253323,0.000200777093242621,,
0.00247051196913639,0.12669152848468,0.00141463700213107,,
0.00256933244790184,0.192937268390226,0.00260541646669843,,
0.0026681529266673,0.251537430127055,0.00369541623608161,,
0.00276697340543275,0.300077661643226,0.00463186876166244,,
0.00286579388419821,0.337502935206812,0.00539326890977154,,
0.00296461436296367,0.361986720153685,0.00597142935158246,,
0.00306343484172912,0.372153167180597,0.00631756903890013,,
0.00316225532049458,0.368607113785719,0.0063766056809258,,
0.00326107579926003,0.350861592980649,0.00622530084361195,,
0.00335989627802549,0.319473831822357,0.00583783872179566,,
0.00345871675679094,0.276184847075725,0.00522277903916946,,
0.0035575372355564,0.221957739030994,0.00438819928146961,,
0.00365635771432185,0.159226822613203,0.00337465566066752,,
0.00375517819308731,0.090440366535684,0.00228193392594145,,
0.00385399867185277,0.0183722279051729,0.00107010209556169,,
0.00395281915061822,-0.0547592587285424,-0.000183780884447593,,
0.00405163962938368,-0.126400723447588,-0.0014210534460255,,
0.00415046010814913,-0.192726632633676,-0.00261023080894418,,
0.00424928058691459,-0.251510562584387,-0.0036882469651589,,
0.00434810106568004,-0.300304620154193,-0.00463491221897527,,
0.0044469215444455,-0.337801944955859,-0.00537421515237124,,
0.00454574202321095,-0.362261000207545,-0.00595589994989876,,
0.00464456250197641,-0.372970980511613,-0.00628215134024446,,
0.00474338298074187,-0.369173296690242,-0.00637026157272524,,
0.00484220345950732,-0.351014593524703,-0.00621250546322027,,
0.00494102393827278,-0.319546807535023,-0.00582863333506545,,
0.00503984441703823,-0.276058598515016,-0.0051908575656836,,
0.00513866489580369,-0.221805749631019,-0.00441623338122277,,
0.00523748537456914,-0.158780908074407,-0.00339807902975631,,
0.0053363058533346,-0.0897811294860707,-0.00228328419221446,,
0.00543512633210005,-0.0177280424574199,-0.00109893992523924,,
0.00553394681086551,0.0552060688520938,0.000171135533641564,,
0.00563276728963096,0.12665200719611,0.00138938648701492,,
0.00573158776839642,0.193009406297798,0.00258889445855859,,
0.00583040824716188,0.251500220024952,0.00371843506110814,,
0.00592922872592733,0.300223035271941,0.00465786406650803,,
0.00602804920469279,0.337556785851471,0.00538113794611705,,
0.00612686968345824,0.361695048421668,0.00592459868800388,,
0.0062256901622237,0.372415486844495,0.00628169053508776,,
0.00632451064098915,0.368414129715803,0.00639634528786193,,
0.00642333111975461,0.350593726469233,0.00622625728222159,,
0.00652215159852006,0.319732915825202,0.00581533428392067,,
0.00662097207728552,0.276042940226709,0.00517764424573075,,
0.00671979255605098,0.221781597732449,0.00439151064875709,,
0.00681861303481643,0.159141973180068,0.00339731816542788,,
0.00691743351358189,0.0903777044926229,0.0022519494415727,,
0.00701625399234734,0.0182885629551015,0.00107867521475224,,
0.0071150744711128,-0.0547437159995581,-0.000171939263565957,,
0.00721389494987825,-0.126428919922474,-0.00143501691390702,,
0.00731271542864371,-0.192675613192437,-0.00263389261791014,,
0.00741153590740916,-0.251260492208759,-0.00370631481385297,,
0.00751035638617462,-0.300448144833736,-0.00462762506766357,,
0.00760917686494007,-0.338098932416748,-0.00541662128271714,,
0.00770799734370553,-0.362554752007381,-0.00596712135918942,,
0.00780681782247099,-0.372939086138382,-0.00628124044633038,,
0.00790563830123644,-0.369206808894,-0.00636656575462391,,
0.0080044587800019,-0.351402815071339,-0.00622085353803215,,
0.00810327925876735,-0.319780237368095,-0.00583803161697771,,
0.00820209973753281,-0.276077781362685,-0.005217637846755,,
0.00830092021629826,-0.22162524596802,-0.00439095339601003,,
0.00839974069506372,-0.158717350446591,-0.00337950751030958,,
0.00849856117382918,-0.089986362844257,-0.00227197839128168,,
0.00859738165259463,-0.0177352071354646,-0.00110003299793604,,
0.00869620213136009,0.0551508314955549,0.000187917414456784,,
0.00879502261012554,0.126673472340414,0.00138149118006048,,
0.008893843088891,0.192837454024723,0.00260418408081486,,
0.00899266356765645,0.251702217722085,0.00368871848671404,,
0.00909148404642191,0.300054549778565,0.00461577273038216,,
0.00919030452518736,0.337662175954324,0.00539495138441293,,
0.00928912500395282,0.362051895612028,0.00598427831396897,,
0.00938794548271828,0.372210715723602,0.00630430213695288,,
0.00948676596148373,0.368647328430228,0.0063945342164331,,
0.00958558644024919,0.350674849114192,0.00623884905103278,,
0.00968440691901464,0.319546634196038,0.0058226321516317,,
0.0097832273977801,0.276139316702344,0.00523479480153455,,
0.00988204787654555,0.222005320582364,0.00442752846575623,,
0.00998086835531101,0.159250367825326,0.00337313393201111,,
0.0100796888340765,0.0902893882797885,0.0022723856144431,,
0.0101785093128419,0.0183130615316418,0.00108244738719598,,
0.0102773297916074,-0.054796468830646,-0.000195718952920476,,
0.0103761502703728,-0.126541936940664,-0.00143264858973069,,
0.0104749707491383,-0.192515159072031,-0.00259925721638021,,
0.0105737912279037,-0.251484215058674,-0.00369375519423887,,
0.0106726117066692,-0.300254409628218,-0.00464143850595944,,
0.0107714321854347,-0.338011107331037,-0.00541593543318175,,
0.0108702526642001,-0.362278160767055,-0.00594006111219425,,
0.0109690731429656,-0.372849180984852,-0.006287111693426,,
0.011067893621731,-0.369450407947523,-0.00639335541254482,,
0.0111667141004965,-0.351321923545027,-0.00624396747109968,,
0.0112655345792619,-0.319876151606436,-0.00584881097481027,,
0.0113643550580274,-0.276243493432301,-0.00521922253425533,,
0.0114631755367928,-0.221468836423929,-0.0043863560608437,,
0.0115619960155583,-0.158803095464481,-0.00340543047946218,,
0.0116608164943238,-0.0899145427248241,-0.00230216648723136,,
0.0117596369730892,-0.0176591691007312,-0.00106447598609316,,
0.0118584574518547,0.0551228950291464,0.000157064901769921,,
0.0119572779306201,0.126658680747031,0.00141924237459623,,
0.0120560984093856,0.192913723178103,0.00261396815309123,,
0.012154918888151,0.251416092837587,0.00369970279567688,,
0.0122537393669165,0.299863645776469,0.0046359168813801,,
0.0123525598456819,0.337450471274032,0.00541021153657217,,
0.0124513803244474,0.361978399882407,0.00597642319351088,,
0.0125502008032129,0.372353547047205,0.00629231316558476,,
0.0126490212819783,0.368492941174295,0.0063856958663675,,
0.0127478417607438,0.350426627687737,0.00621812353538953,,
0.0128466622395092,0.319473831822357,0.00582771172475205,,
0.0129454827182747,0.276112275820691,0.00522030623010261,,
0.0130443031970401,0.221936447225675,0.00438841360944942,,
0.0131431236758056,0.159004255356521,0.00338677590792313,,
0.013241944154571,0.0903790912045025,0.00227869757344701,,
0.0133407646333365,0.0183068213281834,0.00107636047257076,,
0.013439585112102,-0.0548419992040274,-0.000201312913192364,,
0.0135384055908674,-0.126409505956159,-0.00142010102606527,,
0.0136372260696329,-0.192818155617732,-0.00261741079626621,,
0.0137360465483983,-0.251500335584275,-0.00369460178975878,,
0.0138348670271638,-0.300273650255548,-0.00463854507823225,,
0.0139336875059292,-0.337924206719913,-0.0053742580179672,,
0.0140325079846947,-0.362342873988105,-0.00597881429003522,,
0.0141313284634601,-0.373154777615327,-0.00630317691505944,,
0.0142301489422256,-0.369379685641662,-0.00635989881490362,,
0.0143289694209911,-0.351054519270904,-0.00619228361832969,,
0.0144277898997565,-0.319650810925995,-0.00579902392466103,,
0.014526610378522,-0.275849436139838,-0.00522146360119358,,
0.0146254308572874,-0.221575151001368,-0.00437481449913379,,
0.0147242513360529,-0.158640561276256,-0.00338578732011685,,
0.0148230718148183,-0.0898544518767065,-0.00228373428097184,,
0.0149218922935838,-0.0177056239486991,-0.0010897988369023,,
0.0150207127723492,0.0551445912920965,0.000180490949957868,,
0.0151195332511147,0.126599283254853,0.00143588494222469,,
0.0152183537298802,0.19287373965224,0.00259796053210248,,
0.0153171742086456,0.251511313719989,0.00370321777454485,,
0.0154159946874111,0.300162251067884,0.00466236763318273,,
0.0155148151661765,0.337360103883209,0.00539604445710973,,
0.015613635644942,0.361719546998208,0.00599590560687124,,
0.0157124561237074,0.372124046231125,0.00630386276459438,,
0.0158112766024729,0.368711348295338,0.00641707080350518,,
0.0159100970812383,0.35087037548922,0.00623603063809863,,
0.0160089175600038,0.3195628125013,0.00581322315332011,,
0.0161077380387693,0.275880926055438,0.00520426378081762,,
0.0162065585175347,0.221982208717703,0.00439915144123537,,
0.0163053789963002,0.159171325248187,0.00339873273009417,,
0.0164041994750656,0.0903633751365333,0.00226431616600475,,
0.0165030199538311,0.0182954965144997,0.00107203908467879,,
0.0166018404325965,-0.054767116762527,-0.00016801706153613,,
0.016700660911362,-0.126585849483519,-0.00141079785219356,,
0.0167994813901274,-0.192633491819093,-0.00260289007563719,,
0.0168983018688929,-0.251441169210744,-0.00368607153616418,,
0.0169971223476584,-0.300618190377976,-0.00464831843410973,,
0.0170959428264238,-0.337986146517204,-0.00540786464519405,,
0.0171947633051893,-0.362470162582723,-0.00596225611404888,,
0.0172935837839547,-0.372978665206613,-0.00627689896519046,,
0.0173924042627202,-0.36880096455056,-0.00637082954187163,,
0.0174912247414856,-0.350995584016019,-0.00622656537869304,,
0.0175900452202511,-0.319709977299527,-0.00584148229745196,,
0.0176888656990165,-0.276067381023588,-0.00520214059426838,,
0.017787686177782,-0.221569777492834,-0.00438420206464718,,
0.0178865066565474,-0.158726306294147,-0.00339661088309473,,
0.0179853271353129,-0.0899752691492199,-0.0022903355827486,,
0.0180841476140784,-0.017704468355466,-0.00106133742073933,,
0.0181829680928438,0.055072713393002,0.00019399361268313,,
0.0182817885716093,0.126586831737767,0.00140036007957889,,
0.0183806090503747,0.192850858906226,0.00261431375695853,,
0.0184794295291402,0.251400607888264,0.00367496934681233,,
0.0185782500079056,0.300116258457209,0.00462207129388759,,
0.0186770704866711,0.33753575405463,0.0053973947233823,,
0.0187758909654366,0.361860067135344,0.00596936108657742,,
0.018874711444202,0.372302007589012,0.00628746667414237,,
0.0189735319229675,0.368429845783772,0.00635337252791945,,
0.0190723524017329,0.350872686675686,0.00623989925813362,,
0.0191711728804984,0.319485618873334,0.00582057460302599,,
0.0192699933592638,0.276319589246696,0.00522016691691585,,
0.0193688138380293,0.222017569870634,0.00437528602068893,,
0.0194676343167947,0.159177594341476,0.00338557567123665,,
0.0195664547955602,0.0904075187980351,0.00227526832577096,,
0.0196652752743256,0.0183743079729924,0.00107531026546992,,
0.0197640957530911,-0.0548230474750057,-0.0001941757914663,,
0.0198629162318566,-0.126445329346383,-0.00140091733232683,,
0.019961736710622,-0.192652501327777,-0.00262287615975021,,
0.0200605571893875,-0.251459485363487,-0.00370479174564675,,
0.0201593776681529,-0.300425726325015,-0.0046296718998704,,
0.0202581981469184,-0.337836381634203,-0.00541119744527929,,
0.0203570186256838,-0.362110541968604,-0.005970947113628,,
0.0204558391044493,-0.372981900867666,-0.00628149763990615,,
0.0205546595832148,-0.369326990590235,-0.0063799277646126,,
0.0206534800619802,-0.351187643611349,-0.0062395858034634,,
0.0207523005407457,-0.319259064819998,-0.00584227531097703,,
0.0208511210195111,-0.275927323123744,-0.00521911670981545,,
0.0209499414982766,-0.221473401017199,-0.00437560751265886,,
0.021048761977042,-0.158728617480613,-0.0034172078019501,,
0.0211475824558075,-0.0898174728932495,-0.00227324292636233,,
0.0212464029345729,-0.017690370118023,-0.0010798660745901,,
0.0213452234133384,0.0551235883850862,0.000155232397542893,,
0.0214440438921038,0.126719696069735,0.00141798855591446,,
0.0215428643708693,0.192981209822912,0.00261540415055528,,
0.0216416848496348,0.251518940635327,0.00369455892416237,,
0.0217405053284002,0.300365404358251,0.00464645378068562,,
0.0218393258071657,0.33768759900545,0.00539064339201945,,
0.0219381462859311,0.361806678727978,0.0059814143563397,,
0.0220369667646966,0.372530352811859,0.0063227129104142,,
0.022135787243462,0.368555112090232,0.0063859825300403,,
0.0222346077222275,0.350721303962159,0.00623295235248955,,
0.0223334282009929,0.319552181043556,0.00583858886972477,,
0.0224322486797584,0.276209576770912,0.00520945051792765,,
0.0225310691585239,0.222033748175896,0.00437633622778977,,
0.0226298896372893,0.159294511486828,0.003413585659092,,
0.0227287101160548,0.090404052018336,0.00224499449862936,,
0.0228275305948202,0.0183958020071268,0.00108355117629166,,
0.0229263510735857,-0.0547862996101953,-0.000178540565342278,,
0.0230251715523511,-0.126478379312847,-0.00143189844180158,,
0.0231239920311166,-0.192754135752622,-0.0026129634906864,,
0.023222812509882,-0.251315036209358,-0.00373230074184949,,
0.0233216329886475,-0.300265965560548,-0.00463755916952557,,
0.023420453467413,-0.337717355531201,-0.00540952568703723,,
0.0235192739461784,-0.362519217515465,-0.00596701285564949,,
0.0236180944249439,-0.372730617119143,-0.00628498984642656,,
0.0237169149037093,-0.369339702115799,-0.00638177098523851,,
0.0238157353824748,-0.351286562392096,-0.00619765253422289,,
0.0239145558612402,-0.319832527961889,-0.00583798875138175,,
0.0240133763400057,-0.275945119259533,-0.00519878770093474,,
0.0241121968187711,-0.221566541831782,-0.00437787938924439,,
0.0242110172975366,-0.158683376005539,-0.00340403734759365,,
0.0243098377763021,-0.0898319755883241,-0.00227458247623602,,
0.0244086582550675,-0.0177187977115556,-0.00108982026970006,,
0.024507478733833,0.0551568405803667,0.000174521915721648,,
0.0246062992125984,0.126693608552499,0.00142432462681619,,
0.0247051196913639,0.192951164398853,0.00260236497208677,,
0.0248039401701293,0.251639353450208,0.00369090463210764,,
0.0249027606488948,0.3002768859166,0.0046369135064861,,
0.0250015811276602,0.337162497440361,0.00541801307503542,,
0.0251004016064257,0.362208825173073,0.00597879151768721,,
0.0251992220851912,0.372141842366914,0.00630612660388064,,
0.0252980425639566,0.368680378396693,0.00638188886562707,,
0.0253968630427221,0.350973454405607,0.00622746555620735,,
0.0254956835214875,0.319675136163551,0.00579020432829358,,
0.025594504000253,0.275925300835586,0.00519728740507608,,
0.0256933244790184,0.222005089463717,0.00439773687656908,,
0.0257921449577839,0.159260074808484,0.00338482284420749,,
0.0258909654365493,0.0903344564158767,0.0022536747818096,,
0.0259897859153148,0.0183685300068272,0.00109407200099865,,
0.0260886063940803,-0.0547405381181673,-0.000191057319360866,,
0.0261874268728457,-0.126473988058562,-0.00144663349040997,,
0.0262862473516112,-0.192664692836385,-0.00259883927681992,,
0.0263850678303766,-0.251121532122487,-0.00370874743642302,,
0.0264838883091421,-0.300403712273926,-0.00462963975067332,,
0.0265827087879075,-0.337852328820819,-0.00540486405347718,,
0.026681529266673,-0.36221500759687,-0.00594556934127422,,
0.0267803497454384,-0.372882924307257,-0.00627877567456325,,
0.0268791702242039,-0.369248179131743,-0.00637851319994587,,
0.0269779907029694,-0.350881642523242,-0.00623189142898983,,
0.0270768111817348,-0.319807047131101,-0.00583826737775572,,
0.0271756316605003,-0.275847587190665,-0.0052025491569796,,
0.0272744521392657,-0.22166967852783,-0.00437856523877933,,
0.0273732726180312,-0.158829211871548,-0.00338710543719234,,
0.0274720930967966,-0.0898322067069707,-0.00228154813557824,,
0.0275709135755621,-0.0176367505920104,-0.00107940392988359,,
0.0276697340543275,0.0550521438334541,0.000144762475731586,,
0.027768554533093,0.126694070789793,0.00141939240418187,,
0.0278673750118585,0.192925047991787,0.00257786728399978,,
0.0279661954906239,0.251319716361952,0.00370247834301463,,
0.0280650159693894,0.300054780897212,0.00462413152159291,,
0.0281638364481548,0.337390149307268,0.00539849583337837,,
0.0282626569269203,0.362014223272631,0.00595929570882792,,
0.0283614774056857,0.372094925281653,0.00627511066610875,,
0.0284602978844512,0.368430539139712,0.00636139911076183,,
0.0285591183632166,0.350531324434649,0.00621844234825941,,
0.0286579388419821,0.319540393992579,0.00584730130210254,,
0.0287567593207476,0.2761014132443,0.00520252772418139,,
0.028855579799513,0.222063562481308,0.00438066565298101,,
0.0289544002782785,0.159232340570891,0.00339622509273108,,
0.0290532207570439,0.0903908782554795,0.00228470947327963,,
0.0291520412358094,0.018290643022921,0.00107013424475877,,
0.0292508617145748,-0.0548301543733888,-0.000164534231864799,,
0.0293496821933403,-0.126464512194051,-0.00140303917932627,,
0.0294485026721057,-0.192783025583447,-0.0026133814302467,,
0.0295473231508712,-0.251413434973151,-0.0037092403907768,,
0.0296461436296367,-0.300409952477384,-0.0046333703970709,,
0.0297449641084021,-0.338122506518701,-0.00541738080749532,,
0.0298437845871676,-0.362480100684527,-0.00597263092781919,,
0.029942605065933,-0.372762973729668,-0.00630296124752938,,
0.0300414255446985,-0.369034105485324,-0.00636004884448926,,
0.0301402460234639,-0.35092879072715,-0.00621455229542711,,
0.0302390665022294,-0.319731471333661,-0.00582293221080343,,
0.0303378869809948,-0.275973084615772,-0.00520462813838352,,
0.0304367074597603,-0.221615365645877,-0.00439492918003426,,
0.0305355279385258,-0.158847181346322,-0.00339532491521632,,
0.0306343484172912,-0.0898345178934367,-0.00227735802357376,,
0.0307331688960567,-0.0177546211017796,-0.00108785916868515,,
0.0308319893748221,0.0551785657331476,0.000197412143960296,,
0.0309308098535876,0.126670034450545,0.00141243746123854,,
0.031029630332353,0.192936835042764,0.00260828846162742,,
0.0311284508111185,0.251531883279537,0.00369700226313174,,
0.0312272712898839,0.300123423135254,0.00464050617924716,,
0.0313260917686494,0.337263958526221,0.00539194007629717,,
0.0314249122474149,0.361786340287077,0.00595772307727627,,
0.0315237327261803,0.372463790641636,0.00631276005485404,,
0.0316225532049458,0.368708805990226,0.00640836908752673,,
0.0317213736837112,0.35074510918276,0.00621796278940501,,
0.0318201941624767,0.319386700092586,0.00580429639296298,,
0.0319190146412421,0.276248635822188,0.00520624363553068,,
0.0320178351200076,0.221990297870334,0.00437413936599729,,
0.032116655598773,0.159318085588782,0.0033978459480779,,
0.0322154760775385,0.0903434700430944,0.002264294733207,,
0.032314296556304,0.0183613653287825,0.00107998261542885,,
0.0324131170350694,-0.0547342979147089,-0.000153444098462074,,
0.0325119375138349,-0.126455960804126,-0.00143524329783551,,
0.0326107579926003,-0.192564214004773,-0.00260011452829945,,
