Time domain (s),Current (AC) (A),Potential (AC) (V),Frequency (Hz),Column 5
0,0.398973318364085,0.00672751791760939,158.49,0.5
0.000197173323238059,0.434949166690074,0.00755738200908995,,
0.000394346646476118,0.454185332122402,0.00810758996613892,,
0.000591519969714178,0.456248568969905,0.00837644636357782,,
0.000788693292952237,0.440933177739399,0.00831876144391774,,
0.000985866616190296,0.409063942467696,0.00791184726211558,,
0.00118303993942836,0.360704417205103,0.00723401303886373,,
0.00138021326266641,0.299027764892005,0.00625893719711357,,
0.00157738658590447,0.225606097103212,0.00502240170547985,,
0.00177455990914253,0.143306722912001,0.00364300944556595,,
0.00197173323238059,0.0557610540779712,0.00209968292393015,,
0.00216890655561865,-0.0339182859472632,0.000476444822723465,,
0.00236607987885671,-0.123163209922149,-0.0011821888196395,,
0.00256325320209477,-0.207054272605452,-0.00277814028674639,,
0.00276042652533283,-0.282761616417827,-0.00427652387890243,,
0.00295759984857089,-0.347937642695157,-0.00561106222927421,,
0.00315477317180895,-0.399279172231193,-0.0067088399161257,,
0.00335194649504701,-0.43548512026611,-0.00756098731656873,,
0.00354911981828507,-0.455132968408246,-0.00813841918912495,,
0.00374629314152312,-0.457014054807992,-0.00837773715267476,,
0.00394346646476118,-0.441402740030739,-0.00832777268943419,,
0.00414063978799924,-0.409197079691388,-0.0079335276633179,,
0.0043378131112373,-0.360843725413591,-0.00722004095499829,,
0.00453498643447536,-0.298666301230877,-0.00623612988442668,,
0.00473215975771342,-0.225118943958663,-0.00502257569899411,,
0.00492933308095148,-0.143005337689056,-0.00364440139368316,,
0.00512650640418954,-0.0551975438629343,-0.00207645276653912,,
0.0053236797274276,0.0344565093108102,-0.000464609217363687,,
0.00552085305066566,0.123382244416961,0.00116539439911145,,
0.00571802637390372,0.207246353373571,0.00276995854519546,,
0.00591519969714178,0.283083642520951,0.00425687879718595,,
0.00611237302037983,0.347625050396376,0.00562406318654629,,
0.00630954634361789,0.399013323368966,0.0067121781637911,,
0.00650671966685595,0.435029176699837,0.00757737103147527,,
0.00670389299009401,0.454199802017784,0.0081401712633542,,
0.00690106631333207,0.456289141421664,0.0083865460801511,,
0.00709823963657013,0.440694850050744,0.00829032362016857,,
0.00729541295980819,0.408534514530754,0.00791770639256395,,
0.00749258628304625,0.360764566574144,0.00723574488128875,,
0.00768975960628431,0.298939526902515,0.00622661486699005,,
0.00788693292952237,0.22561663033588,0.00502068604849759,,
0.00808410625276043,0.143373114196698,0.00363642197017233,,
0.00828127957599849,0.0557304119465726,0.0020911370099066,,
0.00847845289923655,-0.0339350965610166,0.00046362595168814,,
0.0086756262224746,-0.123113487389486,-0.00119352065307865,,
0.00887279954571266,-0.207038951539753,-0.00279228636412654,,
0.00906997286895072,-0.2828592172808,-0.00425311972799625,,
0.00926714619218878,-0.347886927130458,-0.00558510077833851,,
0.00946431951542684,-0.399304423617253,-0.00670898558511457,,
0.0096614928386649,-0.435351202802961,-0.00755393046332165,,
0.00985866616190296,-0.455218581955927,-0.00812305920350243,,
0.010055839485141,-0.456971141637862,-0.00838914789014966,,
0.0102530128083791,-0.441525521348912,-0.00829069183900177,,
0.0104501861316171,-0.408999537247071,-0.00792739338033499,,
0.0106473594548552,-0.360621286237512,-0.00721634865076215,,
0.0108445327780933,-0.298732408792135,-0.00624498129869133,,
0.0110417061013313,-0.225196684180915,-0.00502252714266449,,
0.0112388794245694,-0.143047896204887,-0.00365984432970201,,
0.0114360527478074,-0.0551649156674636,-0.00212198241833583,,
0.0116332260710455,0.0343974593700942,-0.000480568064385345,,
0.0118303993942836,0.123381393246644,0.00117274259033673,,
0.0120275727175216,0.207408359457169,0.00277428005853686,,
0.0122247460407597,0.283053887025299,0.00427029248326027,,
0.0124219193639977,0.348017156188902,0.00559798843750769,,
0.0126190926872358,0.399229236905951,0.00675493605843558,,
0.0128162660104738,0.434995697334049,0.00754315500449376,,
0.0130134393337119,0.454629075580803,0.008136885618379,,
0.01321061265695,0.456635000293654,0.00837832387499216,,
0.013407785980188,0.441272227248856,0.00831745042301613,,
0.0136049593034261,0.408820224033702,0.00791914285065021,,
0.0138021326266641,0.360697891566009,0.00723139099706094,,
0.0139993059499022,0.29898095052459,0.00626377664463851,,
0.0141964792731403,0.225490373405581,0.00505368816723673,,
0.0143936525963783,0.143358076854438,0.00360163945267811,,
0.0145908259196164,0.0556810086027784,0.00207409373818868,,
0.0147879992428544,-0.0339631142506055,0.000430235382311128,,
0.0149851725660925,-0.123115828107857,-0.00119641784741642,,
0.0151823458893306,-0.207100590456849,-0.00278003398360394,,
0.0153795192125686,-0.28275594194905,-0.00425774876475948,,
0.0155766925358067,-0.347656472767231,-0.00561111078560383,,
0.0157738658590447,-0.399264986059249,-0.00673838037319463,,
0.0159710391822828,-0.435647906589165,-0.00755783115513964,,
0.0161682125055209,-0.455509682204213,-0.00811566245594797,,
0.0163653858287589,-0.457283875798362,-0.00839236879335203,,
0.016562559151997,-0.441529777200495,-0.00830352891866104,,
0.016759732475235,-0.408833913689628,-0.00791921973150567,,
0.0169569057984731,-0.360661291242394,-0.0072289085547057,,
0.0171540791217111,-0.298750850815662,-0.00627730565199558,,
0.0173512524449492,-0.225183420110147,-0.00503133202377981,,
0.0175484257681873,-0.142975546727974,-0.00364983970260724,,
0.0177455990914253,-0.055161794709636,-0.0020911977053184,,
0.0179427724146634,0.0344343434171481,-0.000480438580839682,,
0.0181399457379014,0.123370363497958,0.00114564815837515,,
0.0183371190611395,0.20727930075791,0.00277502054256473,,
0.0185342923843776,0.283086763478778,0.0042817881943118,,
0.0187314657076156,0.347635548163614,0.00558282267720456,,
0.0189286390308537,0.399064109864525,0.00668896823820431,,
0.0191258123540917,0.434834542420768,0.00755357842993165,,
0.0193229856773298,0.454219378935067,0.00813253173415118,,
0.0195201590005679,0.456457673144356,0.0083632066710182,,
0.0197173323238059,0.44077911591209,0.00830477722096967,,
0.019914505647044,0.408708436998785,0.00792140881270198,,
0.020111678970282,0.360638877090723,0.00724359482125392,,
0.0203088522935201,0.298924205836815,0.00625144333689986,,
0.0205060256167582,0.225514454432455,0.00500479194324877,,
0.0207031989399962,0.143361800724573,0.00363624393029705,,
0.0209003722632343,0.0557681116985132,0.00207088902042996,,
0.0210975455864723,-0.0339140300956801,0.000462379672559354,,
0.0212947189097104,-0.123064757888859,-0.00119466779636745,,
0.0214918922329485,-0.206993272066094,-0.00278548847797122,,
0.0216890655561865,-0.282899222285682,-0.00428553917077945,,
0.0218862388794246,-0.348014248023653,-0.00560816503493644,,
0.0220834122026626,-0.399493383427544,-0.00672978387966117,,
0.0222805855259007,-0.435293890668308,-0.00756665222169817,,
0.0224777588491387,-0.455475067944671,-0.00811938308470994,,
0.0226749321723768,-0.457172372486884,-0.00839400352311781,,
0.0228721054956149,-0.441436786843404,-0.00828963776201164,,
0.0230692788188529,-0.408884629254327,-0.00791276173965816,,
0.023266452142091,-0.361026443308227,-0.00722892676332965,,
0.023463625465329,-0.298685381632142,-0.00624328385033301,,
0.0236607987885671,-0.225079790124098,-0.00505038026727744,,
0.0238579721118052,-0.14283255011478,-0.00364498406963909,,
0.0240551454350432,-0.0550804370135384,-0.00210502209701424,,
0.0242523187582813,0.0344899886765976,-0.000475906656736136,,
0.0244494920815193,0.123530667240923,0.00118751585364185,,
0.0246466654047574,0.207466806485577,0.00278906950728519,,
0.0248438387279955,0.283304663079835,0.00426718892452138,,
0.0250410120512335,0.347686334659173,0.00559963935271712,,
0.0252381853744716,0.39888110824645,0.00673639158685857,,
0.0254353586977096,0.435014706804454,0.00758883032527935,,
0.0256325320209477,0.454154973714442,0.00813852034814522,,
0.0258297053441858,0.456480654742905,0.00840706922216272,,
0.0260268786674238,0.441038155411783,0.00831354973119858,,
0.0262240519906619,0.408941373942102,0.00791703874303096,,
0.0264212253138999,0.360884865312228,0.00721635472030346,,
0.026618398637138,0.299038830106121,0.00628072280369674,,
0.026815571960376,0.225641562533072,0.00504214794621616,,
0.0270127452836141,0.14347103424854,0.00364665521665275,,
0.0272099186068522,0.0557085652417792,0.00209740077643517,,
0.0274070919300902,-0.0338876438158646,0.000471929084063127,,
0.0276042652533283,-0.123158386623688,-0.00119256368874776,,
0.0278014385765663,-0.207106193994766,-0.00279759518950495,,
0.0279986118998044,-0.28301072559716,-0.00430988207739258,,
0.0281957852230425,-0.348186255358472,-0.00558748003849274,,
0.0283929585462805,-0.39941110363027,-0.00669670083370555,,
0.0285901318695186,-0.435598893365099,-0.00758133241870462,,
0.0287873051927566,-0.455178364158466,-0.00811846051444576,,
0.0289844785159947,-0.457411551345856,-0.00838016699233934,,
0.0291816518392328,-0.441352733774637,-0.00828735561451666,,
0.0293788251624708,-0.408908816677491,-0.00791259988522564,,
0.0295759984857089,-0.360813083282192,-0.00723132423210737,,
0.0297731718089469,-0.298614450772423,-0.00625182774117627,,
0.029970345132185,-0.225181079391776,-0.00503547549724592,,
0.0301675184554231,-0.142967318748246,-0.0036485934234789,,
0.0303646917786611,-0.0552057718426617,-0.00209260786205956,,
0.0305618651018992,0.0344445929263775,-0.000478156433344701,,
0.0307590384251372,0.123374583884111,0.00118047923219899,,
0.0309562117483753,0.207306786466052,0.00277869463817693,,
0.0311533850716133,0.283029451344126,0.00429854012805153,,
0.0313505583948514,0.347794717012823,0.00560402560783135,,
0.0315477317180895,0.398833726432158,0.00670777572323367,,
0.0317449050413275,0.435141247458193,0.00758648343601154,,
0.0319420783645656,0.454640140794919,0.00816168171740239,,
0.0321392516878036,0.456367165367355,0.00836775478056495,,
0.0323364250110417,0.441211794156375,0.00831981349772759,,
0.0325335983342798,0.408856540633878,0.00793733528883722,,
0.0327307716575178,0.360975656812668,0.00723088924832105,,
0.0329279449807559,0.299247083110256,0.00623587294051564,,
0.0331251183039939,0.225556729224848,0.00502531508526038,,
0.033322291627232,0.143372263026381,0.00362776680440691,,
0.0335194649504701,0.0556949110512833,0.00207500012300921,,
0.0337166382737081,-0.0339222580754074,0.000461748440273801,,
0.0339138115969462,-0.123032058762529,-0.00120604616295594,,
0.0341109849201842,-0.207017956005276,-0.00277516216519258,,
0.0343081582434223,-0.282698913537835,-0.00429856845257692,,
0.0345053315666604,-0.347775991265858,-0.00559991045889108,,
0.0347025048898984,-0.399333008753719,-0.00670141079768483,,
0.0348996782131365,-0.435519450802214,-0.00757537617559745,,
0.0350968515363745,-0.454847258905299,-0.00812326961426457,,
0.0352940248596126,-0.456897657267193,-0.00837922823663195,,
0.0354911981828507,-0.441364153643052,-0.00831034096707883,,
0.0356883715060887,-0.40923453118532,-0.00790075416396396,,
0.0358855448293268,-0.360873800098112,-0.00723714896848859,,
0.0360827181525648,-0.298894131152295,-0.00625297690764537,,
0.0362798914758029,-0.225069292356859,-0.00504220864162841,,
0.0364770647990409,-0.142963701274401,-0.00363883360121298,,
0.036674238122279,-0.0551888193671889,-0.00208409229574213,,
0.0368714114455171,0.0344996352735193,-0.000482494132129307,,
0.0370685847687551,0.123482682514323,0.00119082173042084,,
0.0372657580919932,0.207349664170752,0.00279376328582126,,
0.0374629314152312,0.283051581772358,0.00427727245565146,,
0.0376601047384693,0.347796419353457,0.0055982757291253,,
0.0378572780617074,0.398899550269977,0.00673167757651871,,
0.0380544513849454,0.435033716274859,0.00758312900290292,,
0.0382516247081835,0.454474730030055,0.00811576361496824,,
0.0384487980314215,0.456291694932614,0.00835864237602824,,
0.0386459713546596,0.441118732868424,0.00830866172734401,,
0.0388431446778977,0.408909313193509,0.00790563205191663,,
0.0390403180011357,0.360800315727443,0.00720530006257958,,
0.0392374913243738,0.29907684904693,0.00626191531866738,,
0.0394346646476118,0.225761896736585,0.0050504672640348,,
0.0396318379708499,0.143520650384913,0.0036229111714392,,
0.039829011294088,0.0557669768047577,0.00207147169638588,,
0.040026184617326,-0.0338675703825642,0.000446890203391614,,
0.0402233579405641,-0.12310752919727,-0.0011907853131734,,
0.0404205312638021,-0.207227343903166,-0.00280445579425281,,
0.0406177045870402,-0.282910287499798,-0.00429023294931508,,
0.0408148779102782,-0.347868130452633,-0.0055875933365952,,
0.0410120512335163,-0.399573393437307,-0.006739770298132,,
0.0412092245567544,-0.435551795274246,-0.00757357756821886,,
0.0414063978799924,-0.455043595525,-0.00812043513851934,,
0.0416035712032305,-0.457363531153827,-0.00839680562797618,,
0.0418007445264685,-0.441387064310741,-0.00830425524042555,,
0.0419979178497066,-0.40912841861918,-0.00791603119918971,,
0.0421950911729447,-0.360849967329246,-0.0071929303375935,,
0.0423922644961827,-0.298766739328239,-0.00625346449412278,,
0.0425894378194208,-0.225131995236851,-0.00502865940246711,,
0.0427866111426588,-0.142921142758569,-0.00363886597209939,,
0.0429837844658969,-0.0551966926926177,-0.00207824935073697,,
0.043180957789135,0.0344411882451109,-0.000466551470550858,,
0.043378131112373,0.123465942831429,0.00118534700424933,,
0.0435753044356111,0.207255432523615,0.00279536564470062,,
0.0437724777588491,0.283102084544478,0.00427563772588568,,
0.0439696510820872,0.347586464008689,0.0056018082021092,,
0.0441668244053253,0.399256190632644,0.00671012261250148,,
0.0443639977285633,0.434954273711974,0.00758172491570308,,
0.0445611710518014,0.454522395567786,0.00813352309254878,,
0.0447583443750394,0.456420505373864,0.00836744725714356,,
0.0449555176982775,0.440893172734518,0.00832110833318556,,
0.0451526910215156,0.408896545638759,0.007927041346945,,
0.0453498643447536,0.360833511369791,0.00724411275543702,,
0.0455470376679917,0.299073444365664,0.00624372288048081,,
0.0457442109912297,0.225642413703388,0.00505147076151502,,
0.0459413843144678,0.143389286432714,0.00361847231363388,,
0.0461385576377059,0.0557270072653061,0.0020718115906937,,
0.0463357309609439,-0.0339356640078943,0.00047133022266399,,
0.046532904284182,-0.123038016954745,-0.00122195847682782,,
0.04673007760742,-0.207031574730342,-0.00280172247752786,,
0.0469272509306581,-0.282955399526579,-0.00429798577662099,,
0.0471244242538961,-0.347788475097168,-0.00561059082824,,
0.0473215975771342,-0.399697380580095,-0.00671766300586452,,
0.0475187709003723,-0.435287648752652,-0.00757281887556749,,
0.0477159442236103,-0.454802146878517,-0.00813765847329329,,
0.0479131175468484,-0.457334023916184,-0.00835719782522037,,
0.0481102908700864,-0.441557369304926,-0.00832186500265619,,
0.0483074641933245,-0.408903425932152,-0.00791616270591611,,
0.0485046375165626,-0.360839753285446,-0.00723271415704474,,
0.0487018108398006,-0.298724251743268,-0.00626390410500388,,
0.0488989841630387,-0.225135683641556,-0.00504162596567204,,
0.0490961574862767,-0.142870852779029,-0.00364948564603651,,
0.0492933308095148,-0.0551232083219489,-0.00210445358332123,,
0.0494905041327529,0.0344766536749704,-0.000466326897526237,,
0.0496876774559909,0.123315853132264,0.00117164198019726,,
0.049884850779229,0.207395875625858,0.00276113343227591,,
0.050082024102467,0.282878794198083,0.004277159157549,,
0.0502791974257051,0.347768898179886,0.00559342414251773,,
0.0504763707489432,0.398980127726618,0.00671005787072865,,
0.0506735440721812,0.434930157219669,0.00757518599663953,,
0.0508707173954193,0.45435471501541,0.0081420042647995,,
0.0510678907186573,0.456668195936002,0.00839727702901039,,
0.0512650640418954,0.441026239027351,0.00830212280828047,,
0.0514622373651334,0.408692548486208,0.00793773992491786,,
0.0516594106883715,0.360908414357654,0.0072159541305834,,
0.0518565840116096,0.298765320711045,0.00626677095163553,,
0.0520537573348476,0.225711925945913,0.00504800707666409,,
0.0522509306580857,0.143415672712529,0.00361939893025864,,
0.0524481039813237,0.0557201624373432,0.0020829148047472,,
0.0526452773045618,-0.0338987799608405,0.000423664092361165,,
0.0528424506277999,-0.12317817633355,-0.00118528023929576,,
0.0530396239510379,-0.207003202386455,-0.00278487343112888,,
0.053236797274276,-0.28288702217781,-0.00427293071050583,,
0.053433970597514,-0.347763152780249,-0.00560427850538181,,
0.0536311439207521,-0.399466429700851,-0.00670414816077036,,
0.0538283172439902,-0.435564279105556,-0.00757139253338313,,
0.0540254905672282,-0.454910529232168,-0.0081241598136419,,
0.0542226638904663,-0.457118465033498,-0.00836686255800689,,
0.0544198372137043,-0.441433949609015,-0.00831183205103603,,
0.0546170105369424,-0.408835048583383,-0.00790097873698903,,
0.0548141838601805,-0.360787548172693,-0.00722168984702698,,
0.0550113571834185,-0.298694389851326,-0.00624234509462607,,
0.0552085305066566,-0.225045459587994,-0.00504772787776853,,
0.0554057038298946,-0.142904899591694,-0.00363917551870152,,
0.0556028771531327,-0.0551339898126262,-0.00210160494531308,,
0.0558000504763707,0.034505274276867,-0.000481767810364353,,
0.0559972237996088,0.123392458460761,0.00117462010175062,,
0.0561943971228469,0.207387399388122,0.00275119961649573,,
0.0563915704460849,0.283159964126008,0.00429279429570606,,
0.056588743769323,0.347618808480721,0.00561300448246138,,
0.056785917092561,0.399197743604235,0.00670159288392114,,
0.0569830904157991,0.435124791498738,0.00758916617322658,,
0.0571802637390372,0.45457176344615,0.00811226755923133,,
0.0573774370622752,0.456398942392509,0.00839056007007155,,
0.0575746103855133,0.441068513819743,0.00831141325269291,,
0.0577717837087513,0.409025923526887,0.00791181489122916,,
0.0579689570319894,0.360896214249783,0.00721891202033298,,
0.0581661303552275,0.299139268203483,0.00627444285172496,,
0.0583633036784655,0.225632767106466,0.00502283871244691,,
0.0585604770017036,0.143414537818774,0.003623639516384,,
0.0587576503249416,0.0557270072653061,0.00208811033202316,,
0.0589548236481797,-0.0339019009186681,0.000452150472440405,,
0.0591519969714178,-0.123164628539344,-0.00115213245156776,,
0.0593491702946558,-0.207099739286532,-0.00277050075754337,,
0.0595463436178939,-0.282972139209473,-0.00429170582464877,,
0.0597435169411319,-0.347863378085031,-0.00561483141436536,,
0.05994069026437,-0.399102412528773,-0.00669533923329402,,
0.0601378635876081,-0.435852258396015,-0.0075497040394592,,
0.0603350369108461,-0.455192834053849,-0.0081137202027608,,
0.0605322102340842,-0.457167832911862,-0.00840067192572702,,
0.0607293835573222,-0.441706607833774,-0.00828309884294809,,
0.0609265568805603,-0.409071603000546,-0.00789858531457188,,
0.0611237302037983,-0.360862451160557,-0.00721261183655697,,
0.0613209035270364,-0.298640766121379,-0.0062440931224943,,
0.0615180768502745,-0.225060496930254,-0.00504538098850071,,
0.0617152501735125,-0.142966538508789,-0.00365460024609643,,
0.0619124234967506,-0.0551456934044798,-0.00208096850519901,,
0.0621095968199886,0.0344970817625694,-0.000461242645172888,,
0.0623067701432267,0.123452891553241,0.00118222726006723,,
0.0625039434664648,0.207298558486324,0.00279710153348667,,
0.0627011167897028,0.283228908921655,0.00425380356297289,,
0.0628982901129409,0.34775783296577,0.00563419527400599,,
0.0630954634361789,0.399170222430664,0.00672274725821831,,
0.063292636759417,0.435312616415274,0.00758366716889025,,
0.0634898100826551,0.454399543318753,0.00812217305048613,,
0.0636869834058931,0.456511296874304,0.00839112656058427,,
0.0638841567291312,0.441350818641424,0.00830207425195084,,
0.0640813300523692,0.408419322814571,0.00792201172046214,,
0.0642785033756073,0.360740166358401,0.00721964036527822,,
0.0644756766988454,0.298860084339629,0.00627151328650077,,
0.0646728500220834,0.225683269878586,0.00503908889744631,,
0.0648700233453215,0.143385598028009,0.00362609565739369,,
0.0650671966685595,0.0556855836432303,0.00208963176368648,,
0.0652643699917976,-0.0339399198594775,0.000457087032624148,,
