Time domain (s),Current (AC) (A),Potential (AC) (V),Frequency (Hz),Column 5
0,-0.347756095159707,-0.0164661835866893,0.01,0.5
0.244140625,-0.343157789385849,-0.0163534381909476,,
0.48828125,-0.338407053194456,-0.0162452283446495,,
0.732421875,-0.333653905353833,-0.0161490489628324,,
0.9765625,-0.32863320631035,-0.0160071140093021,,
1.220703125,-0.323641305195912,-0.0159333671011961,,
1.46484375,-0.318594148941754,-0.0158067416374763,,
1.708984375,-0.313565718434562,-0.0156667527884946,,
1.953125,-0.308495013134977,-0.015560569464288,,
2.197265625,-0.303011490231828,-0.0154177639908513,,
2.44140625,-0.297573363078899,-0.0152962349889396,,
2.685546875,-0.292056431740822,-0.0151308824467935,,
2.9296875,-0.286700442523448,-0.0149896853242231,,
3.173828125,-0.281176701822838,-0.0148588922213206,,
3.41796875,-0.275649769233541,-0.0146967724644158,,
3.662109375,-0.269859895947266,-0.0145337339370784,,
3.90625,-0.264302250295711,-0.0144265212683172,,
4.150390625,-0.258284547088019,-0.0142491342408122,,
4.39453125,-0.252316069896972,-0.0141160291335392,,
4.638671875,-0.246625996330321,-0.0139332883080869,,
4.8828125,-0.240672343688955,-0.0137308291010116,,
5.126953125,-0.23450901942626,-0.0135817993097218,,
5.37109375,-0.228385700168447,-0.0134051541340536,,
5.615234375,-0.222282808998232,-0.013225517425774,,
5.859375,-0.216070400580612,-0.0130370026207114,,
6.103515625,-0.209762944810968,-0.012862289476522,,
6.34765625,-0.203471377553901,-0.0126879402217157,,
6.591796875,-0.197270389004695,-0.0124795482103819,,
6.8359375,-0.190727371849925,-0.0122909710817227,,
7.080078125,-0.184328273409524,-0.0120623419956112,,
7.32421875,-0.177835900888593,-0.0119103045882007,,
7.568359375,-0.171292883733823,-0.0116733301715302,,
7.8125,-0.164725537294169,-0.0114769183637127,,
8.056640625,-0.158079102945929,-0.0112882266400547,,
8.30078125,-0.151469127059584,-0.0110928763438096,,
8.544921875,-0.144755166532891,-0.0108856725016779,,
8.7890625,-0.138016876721315,-0.0106494379264062,,
9.033203125,-0.131249576188113,-0.0104310238787351,,
9.27734375,-0.124395101628317,-0.0102258143916782,,
9.521484375,-0.117610423034485,-0.00998520510204948,,
9.765625,-0.110738641344917,-0.00976955741786867,,
10.009765625,-0.10391736242747,-0.00952339931775059,,
10.25390625,-0.0970030222220709,-0.00929068904131514,,
10.498046875,-0.0900225744554141,-0.00906979411243247,,
10.7421875,-0.0831175971234983,-0.00885070656783604,,
10.986328125,-0.0761245945946713,-0.00858812720537072,,
11.23046875,-0.0691305990338082,-0.00836548118448244,,
11.474609375,-0.0620945414731318,-0.00813061772832402,,
11.71875,-0.0550721026375215,-0.00789524965208166,,
11.962890625,-0.0481107352721291,-0.00762829758569827,,
12.20703125,-0.0409960153880244,-0.00739318684559453,,
12.451171875,-0.0340357119855278,-0.00712116646354266,,
12.6953125,-0.0269309224217838,-0.00690532577725822,,
12.939453125,-0.0198535121698913,-0.00663657034746556,,
13.18359375,-0.0127621285386342,-0.00637804201874559,,
13.427734375,-0.00566705650267168,-0.0061620746748301,,
13.671875,0.00142202187564458,-0.00589093687531683,,
13.916015625,0.00852393873956997,-0.00561702266011999,,
14.16015625,0.0155727638549958,-0.00535487353151165,,
14.404296875,0.0226513444660736,-0.00510569374220271,,
14.6484375,0.0297637590972374,-0.00483637538960702,,
14.892578125,0.036735411437289,-0.0045752938038861,,
15.13671875,0.0438057995340694,-0.00431268026396525,,
15.380859375,0.0508656898636113,-0.00404807437940846,,
15.625,0.0578359235864685,-0.00377645608507349,,
15.869140625,0.0647420358121399,-0.00352547293235572,,
16.11328125,0.0717931307150767,-0.00324582695675835,,
16.357421875,0.0788322737681509,-0.00299642199832828,,
16.6015625,0.0858056284488357,-0.00271360757152417,,
16.845703125,0.0927852605106057,-0.00246433128116363,,
17.08984375,0.0995640163776518,-0.00216979197654243,,
17.333984375,0.106485662461602,-0.00190957890028942,,
17.578125,0.113396066004286,-0.00163849136174044,,
17.822265625,0.1202105355592,-0.00137954687223374,,
18.06640625,0.127008265431221,-0.00111058034639022,,
18.310546875,0.133833197287944,-0.000808841661202653,,
18.5546875,0.140566841128209,-0.000572749827070229,,
18.798828125,0.147279737692006,-0.000298011332054315,,
19.04296875,0.15392028477889,5.24322382489117E-06,,
19.287109375,0.160574166867401,0.000242076909794164,,
19.53125,0.167348063970556,0.000520848344607749,,
19.775390625,0.173822349122259,0.000789619857909152,,
20.01953125,0.180319012960203,0.00107014439516728,,
20.263671875,0.186619694832744,0.00137320996981938,,
20.5078125,0.193218818297552,0.00160984663280805,,
20.751953125,0.199701047705543,0.00188353567888333,,
20.99609375,0.205817841324262,0.00215625167268474,,
21.240234375,0.212386038934233,0.00240905226188159,,
21.484375,0.218584828626787,0.00270653283814992,,
21.728515625,0.224813976727301,0.00293892345485069,,
21.97265625,0.230954886838325,0.00323464690779751,,
22.216796875,0.236793312298078,0.00348391314596519,,
22.4609375,0.242885173719606,0.00374925887192079,,
22.705078125,0.24897306301299,0.00402587913745034,,
22.94921875,0.25496101072503,0.00431069797152217,,
23.193359375,0.260680024082446,0.0045635066024734,,
23.4375,0.266322432111365,0.00483079441210021,,
23.681640625,0.272086841219001,0.0050855089388282,,
23.92578125,0.277971832788159,0.00534253546992636,,
24.169921875,0.283276007012509,0.00561028165955024,,
24.4140625,0.289013462393451,0.00588754526542656,,
24.658203125,0.294344980464223,0.00614147170022994,,
24.90234375,0.299469274028325,0.00637490774499438,,
25.146484375,0.305137217166743,0.00662433481824865,,
25.390625,0.31028310917763,0.00688943527069696,,
25.634765625,0.315425312783812,0.00713985550061125,,
25.87890625,0.320502259999052,0.00736386258842048,,
26.123046875,0.325461461987159,0.00762287945371654,,
26.3671875,0.330500673985029,0.00786352091036235,,
26.611328125,0.335260985842484,0.00810616878471437,,
26.85546875,0.340287997732482,0.00837182009733484,,
27.099609375,0.344915243297105,0.00859745564039649,,
27.34375,0.349555823863354,0.00880430966621448,,
27.587890625,0.353605408506426,0.00905393778332675,,
27.83203125,0.358487437719159,0.00929734560346329,,
28.076171875,0.362958067945522,0.00951399046518109,,
28.3203125,0.367155756223686,0.00975225156254478,,
28.564453125,0.371485943347806,0.00996886425724552,,
28.80859375,0.375308549239777,0.0101825175863515,,
29.052734375,0.379399273781486,0.0104274372563027,,
29.296875,0.383241740314178,0.0106341746766829,,
29.541015625,0.387060090354566,0.0108525766617222,,
29.78515625,0.391183159368307,0.0110531018268807,,
30.029296875,0.394526556372017,0.0112626659239088,,
30.2734375,0.398063169037602,0.0114623587674938,,
30.517578125,0.401680926606705,0.0116929158642067,,
30.76171875,0.405056384359008,0.0118772529778939,,
31.005859375,0.408371976465708,0.0120998969883437,,
31.25,0.411302272142416,0.0122960675435309,,
31.494140625,0.414592329139617,0.0124969344832482,,
31.73828125,0.417436372890906,0.0126819269999134,,
31.982421875,0.420495762732302,0.0128523961082538,,
32.2265625,0.423170423590583,0.0130276098516506,,
32.470703125,0.425810186465881,0.0132112352700795,,
32.71484375,0.428569113185508,0.0133928663334335,,
32.958984375,0.431229304148406,0.0135693828410322,,
33.203125,0.433418230479331,0.0137478896828278,,
33.447265625,0.435836972795746,0.0138982745097231,,
33.69140625,0.437973977737357,0.0140540794790383,,
33.935546875,0.440068707886575,0.0142274717650785,,
34.1796875,0.441955468755098,0.0143773378988192,,
34.423828125,0.443999696132197,0.0145142085575589,,
34.66796875,0.445536058553708,0.0146680754640798,,
34.912109375,0.44730961377012,0.0148169162741429,,
35.15625,0.4489143535404,0.0149986156924089,,
35.400390625,0.450402199253864,0.0151507134129769,,
35.64453125,0.451940264016009,0.0152727590976043,,
35.888671875,0.453028343404097,0.0154228142125721,,
36.1328125,0.45423615408339,0.0155302842174714,,
36.376953125,0.455256139846148,0.0156856991617018,,
36.62109375,0.456400112751695,0.0157654854273117,,
36.865234375,0.457010118145277,0.0159016966621959,,
37.109375,0.457797166964718,0.0160183543714205,,
37.353515625,0.458386744270702,0.0161319521931214,,
37.59765625,0.458949651573431,0.016227765675116,,
37.841796875,0.459249263524884,0.0163443027580255,,
38.0859375,0.459214081818463,0.0164334697300648,,
38.330078125,0.459844231576206,0.0165713053993239,,
38.57421875,0.46000453531917,0.0166483735519694,,
38.818359375,0.459707193155229,0.0167160730608176,,
39.0625,0.459487591213539,0.0168084084840636,,
39.306640625,0.459228267990407,0.016870329992424,,
39.55078125,0.459138043936844,0.0169666380423101,,
39.794921875,0.458568043548143,0.0170289817427727,,
40.0390625,0.458031522525229,0.0170937299277809,,
40.283203125,0.457399386703415,0.0171627000338139,,
40.52734375,0.45667135235926,0.0172290565696884,,
40.771484375,0.455999778979441,0.0172855418521203,,
41.015625,0.454739479463956,0.0173347573886349,,
41.259765625,0.45367097699315,0.0173656859757978,,
41.50390625,0.452307969592792,0.0174028388808143,,
41.748046875,0.451296211809761,0.0174652750614519,,
41.9921875,0.449612313200034,0.0175034573110224,,
42.236328125,0.44802119215482,0.0175141850113021,,
42.48046875,0.446426098981461,0.017510212384662,,
42.724609375,0.444843773362852,0.0175518204215783,,
42.96875,0.443004110585182,0.0175997975279261,,
43.212890625,0.440886115113976,0.0175873488922194,,
43.45703125,0.439182639586967,0.0176184383144689,,
43.701171875,0.43709500252372,0.0176330421403366,,
43.9453125,0.434368703999564,0.0175888607420336,,
44.189453125,0.432215243098498,0.0176360497564572,,
44.43359375,0.429775788971046,0.0176234081186464,,
44.677734375,0.427109356092493,0.0176199300598974,,
44.921875,0.424422211402902,0.0175875901448492,,
45.166015625,0.422014250577164,0.0175793714719212,,
45.41015625,0.418715681876797,0.0175757205154543,,
45.654296875,0.416006406758973,0.0175241085361484,,
45.8984375,0.413156688538907,0.0175007391980579,,
46.142578125,0.409683346200191,0.0174374827584787,,
46.38671875,0.406369456434124,0.0173960998906835,,
46.630859375,0.403432067671445,0.0173860798647851,,
46.875,0.399913045859071,0.017324045771864,,
47.119140625,0.396124203056326,0.0172863339649219,,
47.36328125,0.392427570371215,0.0172321767703694,,
47.607421875,0.388782007905102,0.0171390854222162,,
47.8515625,0.385051895854205,0.0170772604149079,,
48.095703125,0.381286885820325,0.017018752631262,,
48.33984375,0.377264254903947,0.0169584354528909,,
48.583984375,0.373474560930885,0.0168796262604323,,
48.828125,0.369024358792121,0.0167793134168885,,
49.072265625,0.364855326581283,0.0167135157829401,,
49.31640625,0.360754955442653,0.016607396792768,,
49.560546875,0.356066141891794,0.0165186640754631,,
49.8046875,0.351653107523523,0.0164352067490006,,
50.048828125,0.347165737614266,0.0163566388091718,,
50.29296875,0.342341020536186,0.0162475443698971,,
50.537109375,0.337434874831149,0.0161499214931773,,
50.78125,0.332738400747441,0.0160371399095411,,
51.025390625,0.327873962387919,0.0159080013975923,,
51.26953125,0.32306910595056,0.0157977047160447,,
51.513671875,0.318012586822919,0.0156701624923312,,
51.7578125,0.312595738927906,0.0155582051885141,,
52.001953125,0.307631997364777,0.0154355041009087,,
52.24609375,0.302105915945796,0.015308733885611,,
52.490234375,0.297041452561867,0.0151626473764064,,
52.734375,0.291623186049659,0.0150208390805071,,
52.978515625,0.286191868259263,0.014888499950334,,
53.22265625,0.280385468082674,0.0147355337202981,,
53.466796875,0.274818246765056,0.0145890612068857,,
53.7109375,0.269180945758037,0.0144458536457326,,
53.955078125,0.263316665999917,0.0142538688236753,,
54.19921875,0.25755254061572,0.0141244568920791,,
54.443359375,0.251712944796782,0.0139344985921137,,
54.6875,0.245839869612056,0.0137585369655642,,
54.931640625,0.239799716787263,0.0136149635045886,,
55.17578125,0.233556595307385,0.0134425161246825,,
55.419921875,0.227579429086022,0.0132796866829574,,
55.6640625,0.221433411953098,0.0130870062491506,,
55.908203125,0.215130779481915,0.0129152223139766,,
56.15234375,0.2089322735128,0.0127152359463585,,
56.396484375,0.20268950668722,0.0125678909026012,,
56.640625,0.196306296759396,0.0123547723501583,,
56.884765625,0.189873683487778,0.0121477816145164,,
57.12890625,0.183323963366764,0.0119624835111867,,
57.373046875,0.176884576198044,0.0117421072754587,,
57.6171875,0.170366278447885,0.0115272275788167,,
57.861328125,0.16381201875185,0.0113419777260129,,
58.10546875,0.157070466120726,0.0111276167225256,,
58.349609375,0.150475031060623,0.0109320090901415,,
58.59375,0.143719575980995,0.0107053120355083,,
58.837890625,0.137112791983338,0.0104979956088158,,
59.08203125,0.130209516992055,0.0102681301029754,,
59.326171875,0.123370930944836,0.0100574683064809,,
59.5703125,0.116587670968198,0.0098604654297203,,
59.814453125,0.109753624496001,0.00962757622425103,,
60.05859375,0.102858861207884,0.00940737288624094,,
60.302734375,0.0959217876619458,0.00915730649351687,,
60.546875,0.0889938996623407,0.00894537409983798,,
60.791015625,0.0820372491991197,0.00870431447196651,,
61.03515625,0.0750636107949959,0.00845016286804201,,
61.279296875,0.0680740838782951,0.00822126237272158,,
61.5234375,0.0610760452584281,0.00799020668723971,,
61.767578125,0.054066657701006,0.00772899442301123,,
62.01171875,0.047084507593716,0.00749188731739414,,
62.255859375,0.0399970960906031,0.00724278995606742,,
62.5,0.0329465686345441,0.00700033106294207,,
62.744140625,0.0259244135223726,0.00673186513630553,,
62.98828125,0.0188741697897524,0.00650962321357218,,
63.232421875,0.0116939807221272,0.00627211804111605,,
63.4765625,0.00468292628950175,0.00599268316156998,,
63.720703125,-0.00241700451035151,0.00574073499833228,,
63.96484375,-0.00954278960857231,0.00547756456692383,,
64.208984375,-0.0165799111321445,0.00524542324460731,,
64.453125,-0.0237345650902709,0.00495787021406224,,
64.697265625,-0.030766650522803,0.00472491667455799,,
64.94140625,-0.0378168942554232,0.00443107499212525,,
65.185546875,-0.0448982766354599,0.0041927616233588,,
65.4296875,-0.051955116938034,0.00394629391569845,,
65.673828125,-0.0589043551264144,0.0036396336768596,,
65.91796875,-0.0659433208523393,0.0033777981766705,,
66.162109375,-0.0729478141804407,0.00310612761093232,,
66.40625,-0.0799160618392258,0.0028421811502306,,
66.650390625,-0.0869014038352032,0.0025772375119919,,
66.89453125,-0.0937904217236823,0.00231903688476054,,
67.138671875,-0.10069483160872,0.00205535982282923,,
67.3828125,-0.107644991898277,0.00179253920773403,,
67.626953125,-0.114365478064064,0.00150515907490734,,
67.87109375,-0.121301948697695,0.00123188820005726,,
68.115234375,-0.128148479001203,0.00100201867333949,,
68.359375,-0.135009479200093,0.000704039508302667,,
68.603515625,-0.141639528519738,0.000458335767304252,,
68.84765625,-0.148415979133843,0.000173818499019873,,
69.091796875,-0.154946157803005,-0.00010666582946639,,
69.3359375,-0.161729134056204,-0.000392212442305251,,
69.580078125,-0.168318327200651,-0.00063264481333869,,
69.82421875,-0.174763601630729,-0.000901351992605104,,
70.068359375,-0.181238525160169,-0.00116939773757796,,
70.3125,-0.187861197670404,-0.00146160292300435,,
70.556640625,-0.194301932525459,-0.00172933101868056,,
70.80078125,-0.200694859981064,-0.0020037800105408,,
71.044921875,-0.206760583380786,-0.00223189040349814,,
71.2890625,-0.213246217470044,-0.00250397713002259,,
71.533203125,-0.219455221206398,-0.00278624471753242,,
71.77734375,-0.225785303920292,-0.00304584662045615,,
72.021484375,-0.231705193472432,-0.00332888420594335,,
72.265625,-0.237778932059302,-0.00357111792994713,,
72.509765625,-0.24386820450445,-0.00387075369637646,,
72.75390625,-0.249860443533503,-0.00412283052768325,,
72.998046875,-0.255815585722923,-0.00437485910846425,,
73.2421875,-0.261649152418785,-0.00464070342318834,,
73.486328125,-0.267243894909973,-0.00490707849369842,,
73.73046875,-0.27304830902249,-0.00516362654041425,,
73.974609375,-0.27871086141557,-0.00542723725787253,,
74.21875,-0.284327166888113,-0.00567973024996604,,
74.462890625,-0.289960779490427,-0.00592344365676745,,
74.70703125,-0.295334217699292,-0.0061892397209653,,
74.951171875,-0.300617999301473,-0.00645968592960644,,
75.1953125,-0.306048394990692,-0.00667732595842274,,
75.439453125,-0.311121795662947,-0.00693237823883264,,
75.68359375,-0.316435013571911,-0.00716929033190716,,
75.927734375,-0.321500895573035,-0.00742639929098754,,
76.171875,-0.326180913697288,-0.00766142760310951,,
76.416015625,-0.331233744420224,-0.00791747706105683,,
76.66015625,-0.336333034856276,-0.00813383241961851,,
76.904296875,-0.341218823404573,-0.00838005485377158,,
77.1484375,-0.345697468818085,-0.00860995252662944,,
77.392578125,-0.350328048133114,-0.00885348901483507,,
77.63671875,-0.354739380160752,-0.00909778142794826,,
77.880859375,-0.359459687013326,-0.00932710009449389,,
78.125,-0.363934856814711,-0.00954807142004288,,
78.369140625,-0.368066508462477,-0.00978224730620525,,
78.61328125,-0.372193194950063,-0.0100220202533836,,
78.857421875,-0.37647373047238,-0.0102174027166462,,
79.1015625,-0.380359252036922,-0.0104570449853165,,
79.345703125,-0.384314143982268,-0.0106671438590076,,
79.58984375,-0.388139587108628,-0.0108671282161872,,
79.833984375,-0.391864875861065,-0.0110876974540193,,
80.078125,-0.395523205881927,-0.011317836379507,,
80.322265625,-0.399375319011542,-0.0115001268667165,,
80.56640625,-0.402663106221232,-0.0117095824000613,,
80.810546875,-0.405960823751284,-0.0119266293494955,,
81.0546875,-0.409043195191228,-0.0121083729974103,,
81.298828125,-0.412430285604525,-0.012324824857024,,
81.54296875,-0.415519182683564,-0.0124913695892506,,
81.787109375,-0.418531474434106,-0.0127226484334151,,
82.03125,-0.421336364350831,-0.0128990221998739,,
82.275390625,-0.424081388621952,-0.0130809910169103,,
82.51953125,-0.426847975874429,-0.0132671877862864,,
82.763671875,-0.429608037487811,-0.0134179887739685,,
83.0078125,-0.432261986535053,-0.0136226192547135,,
83.251953125,-0.434309051146541,-0.0138085285313725,,
83.49609375,-0.436537911551488,-0.0139260668126964,,
83.740234375,-0.438815501457062,-0.0141100139012984,,
83.984375,-0.441109050806072,-0.0142677428603375,,
84.228515625,-0.443013686251244,-0.0144140243820847,,
84.47265625,-0.444851362964842,-0.0145895919626722,,
84.716796875,-0.446702374680066,-0.0147368364845004,,
84.9609375,-0.447984804623784,-0.0149006329471835,,
85.205078125,-0.449813402187337,-0.0150122987374059,,
85.44921875,-0.451150874478197,-0.0151491372291281,,
85.693359375,-0.4525532485057,-0.0152932454667667,,
85.9375,-0.453736729900109,-0.0154316460692678,,
86.181640625,-0.454899144829183,-0.015552881547146,,
86.42578125,-0.456158309450913,-0.0156824824599688,,
86.669921875,-0.456872725070002,-0.0158375415565697,,
86.9140625,-0.457623528220126,-0.0159761854221396,,
87.158203125,-0.458570313335654,-0.0160345987151724,,
87.40234375,-0.459030441822651,-0.0161613206799438,,
87.646484375,-0.459270755575378,-0.0162843434377229,,
87.890625,-0.459703717543103,-0.0163653399873596,,
88.134765625,-0.459988363083154,-0.0164635277973213,,
88.37890625,-0.460172712387564,-0.0165751011073692,,
88.623046875,-0.46054467381593,-0.0166357520185447,,
88.8671875,-0.46031996485234,-0.0167380893737419,,
89.111328125,-0.460296415806914,-0.0168407845870067,,
89.35546875,-0.460114549082594,-0.0169243384145212,,
89.599609375,-0.459857495646973,-0.0169873515910322,,
89.84375,-0.459264017143705,-0.0170622082612364,,
90.087890625,-0.458759485938525,-0.0171508746340683,,
90.33203125,-0.457692189292334,-0.0171910351552045,,
90.576171875,-0.456967843352885,-0.0172623333491169,,
90.8203125,-0.455889339630859,-0.0173274715592102,,
91.064453125,-0.455202090531042,-0.0173934943622802,,
91.30859375,-0.454048187305135,-0.0174185203017627,,
91.552734375,-0.452489197939373,-0.0174893038233974,,
91.796875,-0.45128131632922,-0.0175107753074655,,
92.041015625,-0.449884049323618,-0.0175136703390248,,
92.28515625,-0.44825576050791,-0.0175840035224173,,
92.529296875,-0.446582359665422,-0.01760854695664,,
92.7734375,-0.444900163396328,-0.0176025960584338,,
