Time domain (s),Current (AC) (A),Potential (AC) (V),Frequency (Hz),Column 5
0,0.0527294881045544,0.000712380999050133,1.9953,0.4
0.00122357853455621,0.0583969795566312,0.000842112644064308,,
0.00244715706911241,0.0641684743996809,0.000994373688286476,,
0.00367073560366862,0.0698283389364197,0.00113288324794159,,
0.00489431413822483,0.0754588514050396,0.001267078017547,,
0.00611789267278103,0.0811675108660432,0.00141435240350107,,
0.00734147120733724,0.0867309700373164,0.00153447284277242,,
0.00856504974189345,0.0922043218262441,0.00172460282292164,,
0.00978862827644966,0.0979432578299531,0.00183244639748104,,
0.0110122068110059,0.103491232051904,0.00195898448706888,,
0.0122357853455621,0.10887880993311,0.00209813973825845,,
0.0134593638801183,0.11452437400359,0.00223591635076659,,
0.0146829424146745,0.119964906944699,0.00235454908184085,,
0.0159065209492307,0.125599839557436,0.00250790954678326,,
0.0171300994837869,0.13071377296106,0.00261300456954139,,
0.0183536780183431,0.136139745427433,0.0027693797159043,,
0.0195772565528993,0.141472605969055,0.00290639284180072,,
0.0208008350874555,0.146935268520577,0.00299177682164231,,
0.0220244136220117,0.15200996953394,0.00316714315211675,,
0.0232479921565679,0.157338872168739,0.00328701491289163,,
0.0244715706911241,0.162572987268598,0.00340823041010285,,
0.0256951492256803,0.167734820011732,0.00353893495519886,,
0.0269187277602366,0.17277439099081,0.00369304581841101,,
0.0281423062947928,0.177890404462254,0.00381095432789946,,
0.029365884829349,0.183034643298414,0.00395544525980762,,
0.0305894633639052,0.187922802674135,0.00404674953297324,,
0.0318130418984614,0.192874057440379,0.00418758009192688,,
0.0330366204330176,0.197834788071135,0.00431568878254396,,
0.0342601989675738,0.20269128419227,0.00440030927577428,,
0.03548377750213,0.207614313593798,0.00457680992921405,,
0.0367073560366862,0.212239257720865,0.00468041288099474,,
0.0379309345712424,0.217043781036345,0.00477844019912155,,
0.0391545131057986,0.221606496467814,0.00488777148187802,,
0.0403780916403548,0.22627442866315,0.00502518162081289,,
0.041601670174911,0.230952905646737,0.00513601370010841,,
0.0428252487094672,0.235296347262238,0.00525138307126616,,
0.0440488272440235,0.239770110904594,0.00537685664237886,,
0.0452724057785797,0.244148884783195,0.00546296048102546,,
0.0464959843131359,0.248587749509913,0.00559794491392607,,
0.0477195628476921,0.252714604063713,0.00571312232273602,,
0.0489431413822483,0.256755020243682,0.0058276889422566,,
0.0501667199168045,0.261021932697326,0.0059349784436753,,
0.0513902984513607,0.265084536267369,0.00601350849513649,,
0.0526138769859169,0.269236351635003,0.00615564788828138,,
0.0538374555204731,0.273037328897088,0.00623175223370875,,
0.0550610340550293,0.276865578159473,0.00634216548606314,,
0.0562846125895855,0.280936270882148,0.00644402768836994,,
0.0575081911241417,0.284481168683793,0.00652201675503239,,
0.0587317696586979,0.288469120930983,0.00661288475013411,,
0.0599553481932541,0.291986284495036,0.00673570575061966,,
0.0611789267278103,0.295426947787062,0.00681690582383032,,
0.0624025052623666,0.299081164708552,0.00691915195083315,,
0.0636260837969228,0.302370445287052,0.00697827635402204,,
0.064849662331479,0.305870968308549,0.00708764253902405,,
0.0660732408660352,0.308976740681643,0.00718901610989908,,
0.0672968194005914,0.312166178004808,0.0072560807738471,,
0.0685203979351476,0.315274723801661,0.00733145653490785,,
0.0697439764697038,0.318378878344229,0.00740764377316738,,
0.07096755500426,0.321434729089656,0.00749927961766117,,
0.0721911335388162,0.324252989866372,0.00756721683773653,,
0.0734147120733724,0.326936508472116,0.00765871307325039,,
0.0746382906079286,0.329721488163721,0.00772705166914411,,
0.0758618691424848,0.332480582566905,0.00782449873744628,,
0.077085447677041,0.335024274391453,0.00788908534199262,,
0.0783090262115972,0.337912795236737,0.00793658729756519,,
0.0795326047461535,0.340051798311077,0.00802248172274123,,
0.0807561832807097,0.342552964304649,0.00807935493112177,,
0.0819797618152659,0.34486969761823,0.00814614037710903,,
0.0832033403498221,0.347107619473318,0.00823081322370678,,
0.0844269188843783,0.349000018951729,0.00824778880316446,,
0.0856504974189345,0.35114849789058,0.00830039084930156,,
0.0868740759534907,0.352940591876364,0.00839759360188808,,
0.0880976544880469,0.354870663694173,0.00843649651682599,,
0.0893212330226031,0.356824309613935,0.00851121786079112,,
0.0905448115571593,0.358321265088003,0.0085103322163218,,
0.0917683900917155,0.359833474392747,0.00856010281782593,,
0.0929919686262717,0.361331354341402,0.00865689983181328,,
0.0942155471608279,0.363024760665085,0.00869283169313739,,
0.0954391256953841,0.364614394716443,0.00869835061064261,,
0.0966627042299403,0.365705043609777,0.00873549968776466,,
0.0978862827644966,0.367272721389707,0.00878841149132681,,
0.0991098612990528,0.368111219839594,0.00881554798688722,,
0.100333439833609,0.368981612662713,0.00886704624952328,,
0.101557018368165,0.370041060538756,0.00887927948642897,,
0.102780596902721,0.370562695324146,0.00889776022520605,,
0.104004175437278,0.371656579878533,0.00892676399087922,,
0.105227753971834,0.372123208426031,0.00897407398410399,,
0.10645133250639,0.373051843148095,0.00899957007414498,,
0.107674911040946,0.373135970335459,0.00900101851731616,,
0.108898489575502,0.373821468241293,0.00902813756175425,,
0.110122068110059,0.373798356376633,0.00907166066138654,,
0.111345646644615,0.374250193330748,0.00903766587466492,,
0.112569225179171,0.374660197809827,0.00907115457883245,,
0.113792803713727,0.374350961060668,0.00908186956807633,,
0.115016382248283,0.37468793204742,0.00911066392027893,,
0.11623996078284,0.374239792991651,0.00910181620114736,,
0.117463539317396,0.374385628857659,0.00909366652691812,,
0.118687117851952,0.374020692514668,0.00909816891653525,,
0.119910696386508,0.37347848816973,0.00908743211338825,,
0.121134274921064,0.37281517765397,0.00909021120465381,,
0.122357853455621,0.372479824497745,0.00910066442705926,,
0.123581431990177,0.371953567339422,0.00910277601288767,,
0.124805010524733,0.371264140416596,0.00909249730170725,,
0.126028589059289,0.37044736711949,0.00905899114641739,,
0.127252167593846,0.36928692039488,0.00907494147242538,,
0.128475746128402,0.36833078255387,0.0090383944590311,,
0.129699324662958,0.367311549322337,0.00903871294201775,,
0.130922903197514,0.366066050935776,0.00897702322381422,,
0.13214648173207,0.365001749568155,0.0089783146068827,,
0.133370060266627,0.363564884942204,0.00894280157249971,,
0.134593638801183,0.362286336589179,0.008902192810333,,
0.135817217335739,0.360737148300977,0.00888959309985404,,
0.137040795870295,0.359064542655489,0.00887922713306111,,
0.138264374404851,0.357689617826828,0.00885027572075581,,
0.139487952939408,0.355800685128116,0.00877994769689172,,
0.140711531473964,0.354158587143979,0.00877052409071633,,
0.14193511000852,0.351922052000771,0.00869937586409231,,
0.143158688543076,0.350023874556194,0.00868271440484047,,
0.144382267077632,0.348176543213871,0.00864009440080027,,
0.145605845612189,0.345807345967511,0.00858441223153372,,
0.146829424146745,0.343664413876179,0.00856582242324055,,
0.148053002681301,0.341333813443802,0.00848604025373678,,
0.149276581215857,0.33903418291007,0.00844764778413332,,
0.150500159750413,0.336327090202372,0.00838789514053273,,
0.15172373828497,0.333715449495722,0.00833861317045992,,
0.152947316819526,0.331108662280651,0.0082897980179153,,
0.154170895354082,0.328493323675655,0.00822995375592139,,
0.155394473888638,0.32563623496631,0.00817496963155673,,
0.156618052423194,0.322993162123722,0.00808787107892472,,
0.157841630957751,0.319783155241008,0.00803772964106653,,
0.159065209492307,0.316953107413316,0.00800195483984556,,
0.160288788026863,0.313831387853606,0.00789678128703564,,
0.161512366561419,0.310561983478715,0.00782695934572519,,
0.162735945095976,0.307361221341866,0.00775842878748367,,
0.163959523630532,0.303887739202021,0.00766181937306376,,
0.165183102165088,0.300773184320356,0.00762091394181352,,
0.166406680699644,0.297235451196755,0.00754955630171894,,
0.1676302592342,0.293851180854501,0.0074506258880005,,
0.168853837768757,0.290048123524596,0.00740439786437364,,
0.170077416303313,0.28664698152114,0.00728397203045761,,
0.171300994837869,0.282904708395292,0.00719618852126569,,
0.172524573372425,0.279063747607344,0.0071280767899653,,
0.173748151906981,0.275185576717292,0.00703174659350614,,
0.174971730441538,0.271264186640325,0.00697955028596819,,
0.176195308976094,0.267062218526378,0.0068734125586376,,
0.17741888751065,0.263009553058139,0.00677564700734878,,
0.178642466045206,0.25891736630133,0.00667949132211509,,
0.179866044579762,0.254806227815499,0.00657674347533943,,
0.181089623114319,0.250445250072687,0.00647292674730782,,
0.182313201648875,0.246200756127764,0.006380038784771,,
0.183536780183431,0.241966200284646,0.00624974434105452,,
0.184760358717987,0.237636625787941,0.00617960827953867,,
0.185983937252543,0.233144401543688,0.00605078845567775,,
0.1872075157871,0.228511368263989,0.00597096265836727,,
0.188431094321656,0.223920254128819,0.00586405708164461,,
0.189654672856212,0.219262260035287,0.00576069408279922,,
0.190878251390768,0.21452571449174,0.00563200514235707,,
0.192101829925324,0.209912615195311,0.00553932659329082,,
0.193325408459881,0.204974967539386,0.00545151254463461,,
0.194548986994437,0.200284876843807,0.00534436265219673,,
0.195772565528993,0.195427456248085,0.00520166482313034,,
0.196996144063549,0.190379131650266,0.00506448154878836,,
0.198219722598106,0.185533960342814,0.00496415504526615,,
0.199443301132662,0.180287595954684,0.00482810173110959,,
0.200666879667218,0.175337236773195,0.00470004975664073,,
0.201890458201774,0.170308759489154,0.00459291731532474,,
0.20311403673633,0.165040438829597,0.00446929356320247,,
0.204337615270887,0.160024008605009,0.00437608711767901,,
0.205561193805443,0.1547877845475,0.00423248183024016,,
0.206784772339999,0.149494011946985,0.00410308175655461,,
0.208008350874555,0.144244614126619,0.00398015604933377,,
0.209231929409111,0.138790676304006,0.00385874858977475,,
0.210455507943668,0.13346781164385,0.00374487565237525,,
0.211679086478224,0.128055215169149,0.00361198971696108,,
0.21290266501278,0.122764418221209,0.00348498044706425,,
0.214126243547336,0.1172217308383,0.00335943707146136,,
0.215349822081892,0.111660582853493,0.00322567421713904,,
0.216573400616449,0.106200867064715,0.00312438790187652,,
0.217796979151005,0.100649859410527,0.00294448864232066,,
0.219020557685561,0.0951566603078223,0.00284283149070408,,
0.220244136220117,0.0895744227465123,0.00268828434942847,,
0.221467714754673,0.0839686399730793,0.00254547745084599,,
0.22269129328923,0.0782976817413033,0.00242571475958719,,
0.223914871823786,0.0726401283910306,0.00225710201353868,,
0.225138450358342,0.0669534829811162,0.00214893995599263,,
0.226362028892898,0.0613273328769511,0.00203583923076556,,
0.227585607427454,0.0556314138313416,0.00185898955487485,,
0.228809185962011,0.0498913511242304,0.00172271810168656,,
0.230032764496567,0.0442257086213264,0.00160547709763526,,
0.231256343031123,0.0384757078124112,0.00144605673038845,,
0.232479921565679,0.0327296071306574,0.00135279793149756,,
0.233703500100236,0.0269953512795422,0.00117909382044568,,
0.234927078634792,0.0213056724373911,0.00104121250120226,,
0.236150657169348,0.015582019154189,0.000915320103148876,,
0.237374235703904,0.00977054078527645,0.000772936394288326,,
0.23859781423846,0.00398243428950199,0.000632036030844052,,
0.239821392773017,-0.00173963005300475,0.000483893451542983,,
0.241044971307573,-0.00752776543861003,0.000344393540683274,,
0.242268549842129,-0.0133138207563959,0.000211394172972668,,
0.243492128376685,-0.0190487988532817,7.29718689300718E-05,,
0.244715706911241,-0.0248695219680585,-8.26921441885453E-05,,
0.245939285445798,-0.0306063490141172,-0.0002023893937384,,
0.247162863980354,-0.0363547319925062,-0.000355505542965151,,
0.24838644251491,-0.0420333171396202,-0.000497627484987273,,
0.249610021049466,-0.047700808591697,-0.000618284546276993,,
0.250833599584022,-0.0534531205870783,-0.000780108805654933,,
0.252057178118579,-0.0591585154971986,-0.000885112210019745,,
0.253280756653135,-0.0649022761026555,-0.00104421409428035,,
0.254504335187691,-0.0704997386048107,-0.00119073371918477,,
0.255727913722247,-0.0761013034629431,-0.00133472511270982,,
0.256951492256803,-0.0818402683564829,-0.00146417535837262,,
0.25817507079136,-0.0875204713341231,-0.0015980254683079,,
0.259398649325916,-0.0930754080053028,-0.00172320455172725,,
0.260622227860472,-0.0985132253023148,-0.00188485211848954,,
0.261845806395028,-0.104123572669018,-0.00200079737669157,,
0.263069384929584,-0.109732591103504,-0.00214323343891953,,
0.264292963464141,-0.115208080739912,-0.00227045430367712,,
0.265516541998697,-0.120776133394287,-0.00242161374578842,,
0.266740120533253,-0.12615975336867,-0.00255120578182222,,
0.267963699067809,-0.13152754171576,-0.00267624089348084,,
0.269187277602366,-0.136899201300181,-0.00280253466735303,,
0.270410856136922,-0.142209845561898,-0.00296621310850131,,
0.271634434671478,-0.147623337621355,-0.00308784525126349,,
0.272858013206034,-0.152878051170593,-0.00319101410637046,,
0.27408159174059,-0.1579714439045,-0.00332472678871554,,
0.275305170275147,-0.163171382334492,-0.00345784613289402,,
0.276528748809703,-0.168235654118927,-0.00359256661756602,,
0.277752327344259,-0.173449690786363,-0.00371139131098852,,
0.278975905878815,-0.178536843316811,-0.00385314677943738,,
0.280199484413371,-0.18360019062666,-0.0039799815381083,,
0.281423062947928,-0.188628407902224,-0.00409910290061388,,
0.282646641482484,-0.193516162820313,-0.0042158334593303,,
0.28387022001704,-0.198487640468135,-0.00433954446706553,,
0.285093798551596,-0.203263996198561,-0.00448332208433966,,
0.286317377086152,-0.2082325848633,-0.0046183959542434,,
0.287540955620709,-0.212902568236625,-0.00471434440739671,,
0.288764534155265,-0.217455547795105,-0.00482475547836092,,
0.289988112689821,-0.222294825577069,-0.00494293448024896,,
0.291211691224377,-0.226809208321566,-0.0050689141339153,,
0.292435269758933,-0.231643054815334,-0.0051826256484313,,
0.29365884829349,-0.235766904826728,-0.00527024773473972,,
0.294882426828046,-0.240175955248034,-0.00544170501376318,,
0.296106005362602,-0.244705187365576,-0.00551749305759452,,
0.297329583897158,-0.249120015753047,-0.00564422529092079,,
0.298553162431714,-0.253279458036018,-0.00573047091993795,,
0.299776740966271,-0.257305544859898,-0.00585686940054542,,
0.301000319500827,-0.2616493620432,-0.0059568796024716,,
0.302223898035383,-0.265820186919517,-0.00607294701853167,,
0.303447476569939,-0.269634164605474,-0.00615362355806592,,
0.304671055104496,-0.273848555346676,-0.00627749380729448,,
0.305894633639052,-0.277666404269963,-0.00638703232213134,,
0.307118212173608,-0.281635231449146,-0.00646624296737208,,
0.308341790708164,-0.285316893709921,-0.00658625433712734,,
0.30956536924272,-0.288943145275172,-0.00663309315004357,,
0.310788947777277,-0.292463544500278,-0.00674249423729023,,
0.312012526311833,-0.296246494507928,-0.00685175789694714,,
0.313236104846389,-0.29974123956326,-0.00693621914868414,,
0.314459683380945,-0.303362637636932,-0.00701991473241925,,
0.315683261915501,-0.306526594129309,-0.00711177744150637,,
0.316906840450058,-0.309754859385104,-0.00718763747121765,,
0.318130418984614,-0.312846186842785,-0.00728143725490771,,
0.31935399751917,-0.3160688474714,-0.0073706452119775,,
0.320577576053726,-0.319297806083135,-0.00744212719131987,,
0.321801154588282,-0.321895810789635,-0.00752188100274998,,
0.323024733122839,-0.325301344047377,-0.00759082820654244,,
0.324248311657395,-0.327709831463661,-0.00767183849879594,,
0.325471890191951,-0.330592805461426,-0.00774050648462765,,
0.326695468726507,-0.333122167929884,-0.00780388896171802,,
0.327919047261063,-0.335791126060892,-0.00792662052520043,,
0.32914262579562,-0.338525953006183,-0.00796497809255881,,
0.330366204330176,-0.340682752216312,-0.00804030150025215,,
0.331589782864732,-0.343187847226877,-0.00810026137593312,,
0.332813361399288,-0.345370069488132,-0.00814444761822175,,
0.334036939933844,-0.34754535818999,-0.00822145942202157,,
0.335260518468401,-0.349948298758754,-0.00826142249265427,,
0.336484097002957,-0.351809497219874,-0.00832257122605862,,
0.337707675537513,-0.353890431734254,-0.00839319591900622,,
0.338931254072069,-0.355520511548768,-0.00843090779483013,,
0.340154832606626,-0.357290475924139,-0.00849043357383783,,
0.341378411141182,-0.359247819742247,-0.00854404342230186,,
0.342601989675738,-0.360758873453758,-0.00857863372858025,,
0.343825568210294,-0.362085032247985,-0.00862531548139334,,
0.34504914674485,-0.363620815654683,-0.00867098288770851,,
0.346272725279407,-0.365013016602177,-0.00872347586432953,,
0.347496303813963,-0.366430062804181,-0.00875056000652252,,
0.348719882348519,-0.367599985393302,-0.00878717246162619,,
0.349943460883075,-0.368494876792961,-0.0088172407457745,,
0.351167039417631,-0.369542017601072,-0.00887544023946862,,
0.352390617952188,-0.370695993003576,-0.00887912242632583,,
0.353614196486744,-0.37118977799205,-0.00890144241206325,,
0.3548377750213,-0.372175903477457,-0.00893274972591263,,
0.356061353555856,-0.373054443232869,-0.00897395182624594,,
0.357284932090412,-0.373465834423828,-0.00898977781300569,,
0.358508510624969,-0.373938472056138,-0.00903221894304007,,
0.359732089159525,-0.374266891652965,-0.00903394878556218,,
0.360955667694081,-0.374661815640354,-0.00901859179772124,,
0.362179246228637,-0.37487999164275,-0.00905949722897104,,
0.363402824763193,-0.374990697474474,-0.00906782141442619,,
0.36462640329775,-0.375002253406804,-0.00907958128963227,,
0.365849981832306,-0.375219736053261,-0.00907460990109676,,
0.367073560366862,-0.37497342135564,-0.00910050518556593,,
0.368297138901418,-0.374715435166366,-0.00909823653963482,,
0.369520717435974,-0.37431675550097,-0.00909814928402231,,
0.370744295970531,-0.373971522022602,-0.00909729417901728,,
0.371967874505087,-0.373268632438611,-0.00909589808921352,,
0.373191453039643,-0.373198892386998,-0.00906712118813369,,
0.374415031574199,-0.372189597257269,-0.00909076745918513,,
0.375638610108756,-0.371349423197194,-0.00905134537335117,,
0.376862188643312,-0.37065028929121,-0.00904394827878185,,
0.378085767177868,-0.370017428657141,-0.00903201171095969,,
0.379309345712424,-0.368653135286224,-0.00900454146268048,,
0.38053292424698,-0.367722709394649,-0.00899883494560783,,
0.381756502781537,-0.366354255888094,-0.00900274617844854,,
0.382980081316093,-0.364956912550713,-0.00897175298480501,,
0.384203659850649,-0.363870886030311,-0.00893653661950511,,
0.385427238385205,-0.362503588116989,-0.00890182633675929,,
0.386650816919761,-0.361115258406825,-0.00887694103600767,,
0.387874395454318,-0.359257757844051,-0.00886503937043059,,
0.389097973988874,-0.357601792741118,-0.00881872409119078,,
0.39032155252343,-0.355629888448274,-0.00877535805166163,,
0.391545131057986,-0.353857208428805,-0.00876007086831043,,
0.392768709592542,-0.352243075800907,-0.00870005645787142,,
0.393992288127099,-0.350028034691833,-0.00868738694290272,,
0.395215866661655,-0.347809757921707,-0.00861133495084276,,
0.396439445196211,-0.345724143254733,-0.00857578701421469,,
0.397663023730767,-0.343220666074695,-0.00853442567238805,,
0.398886602265323,-0.340955529998969,-0.00847734305053738,,
0.40011018079988,-0.338757765008729,-0.00844291416714249,,
0.401333759334436,-0.335984572368102,-0.00837815305137068,,
0.402557337868992,-0.333487797628815,-0.00831005877119262,,
0.403780916403548,-0.330956643990846,-0.00826854255065346,,
0.405004494938104,-0.328129774044544,-0.00819988983455344,,
0.406228073472661,-0.325356581403916,-0.0081381128607374,,
0.407451652007217,-0.322498799338631,-0.00807445116568628,,
0.408675230541773,-0.319490327915758,-0.0080561274870119,,
0.409898809076329,-0.31624865777846,-0.00797094855786007,,
0.411122387610886,-0.313283174423856,-0.00789739207632456,,
0.412345966145442,-0.309979333370621,-0.00781689004801578,,
