Time domain (s),Current (AC) (A),Potential (AC) (V),Frequency (Hz),Column 5
0,0.0713165343472084,-0.000657206254477849,0.012589,0.3
0.193931706251489,0.0755119995287296,-0.000504034968725975,,
0.387863412502979,0.0796400817383696,-0.000352178070399223,,
0.581795118754468,0.0839421380416591,-0.000183296844868508,,
0.775726825005958,0.0880035615679011,-3.65344520010247E-05,,
0.969658531257447,0.0921799055334674,0.000136623549407577,,
1.16359023750894,0.0962586878403552,0.000283965376426387,,
1.35752194376043,0.100432351938534,0.00045616016262251,,
1.55145365001192,0.104519246276433,0.000607906692539295,,
1.7453853562634,0.108451674023828,0.000752722587998633,,
1.93931706251489,0.112510417682682,0.000912533536946203,,
2.13324876876638,0.116448977739235,0.00108329353381587,,
2.32718047501787,0.12049437034705,0.00121727074976263,,
2.52111218126936,0.124359753123856,0.00137848889593428,,
2.71504388752085,0.128325570570324,0.0015351719038148,,
2.90897559377234,0.132075453477019,0.00166199524011112,,
3.10290730002383,0.135951435008629,0.00186072861210684,,
3.29683900627532,0.13991667302431,0.00199831035998121,,
3.49077071252681,0.143665034925191,0.00214067306669641,,
3.6847024187783,0.147406805800875,0.00230425660855937,,
3.87863412502979,0.151073636961504,0.00244360425098966,,
4.07256583128128,0.154844379376513,0.00262851147129117,,
4.26649753753277,0.158438009114446,0.00279019115808543,,
4.46042924378426,0.16194568995238,0.00292157973314922,,
4.65436095003575,0.165647866390986,0.00307351689941004,,
4.84829265628724,0.169054533128472,0.00321189881825523,,
5.04222436253872,0.172577858597642,0.00335883930560188,,
5.23615606879021,0.176064679927262,0.0035242940936846,,
5.4300877750417,0.179434649381602,0.00365679136959152,,
5.62401948129319,0.182607226081339,0.00382965087461917,,
5.81795118754468,0.186243154266687,0.00397182545336294,,
6.01188289379617,0.189325726050918,0.00410379597095067,,
6.20581460004766,0.192596805984361,0.0042509872955927,,
6.39974630629915,0.195756635206794,0.00440313265680814,,
6.59367801255064,0.198925155891025,0.00453188493190249,,
6.78760971880213,0.201877742035482,0.00466853356503982,,
6.98154142505362,0.204869536329827,0.00480572902347998,,
7.17547313130511,0.2078988004817,0.00494332832996536,,
7.3694048375566,0.210832458553799,0.00508449955952939,,
7.56333654380809,0.213930288682075,0.00523608806195064,,
7.75726825005958,0.216547577544739,0.00537664474014221,,
7.95119995631106,0.219465011554816,0.00551802667303436,,
8.14513166256256,0.222101807920626,0.00563842606620879,,
8.33906336881404,0.22474787517902,0.00574519245240612,,
8.53299507506553,0.227393169863032,0.00586113446684999,,
8.72692678131702,0.230035181105921,0.00603019629523338,,
8.92085848756851,0.232544309555103,0.00614279214016378,,
9.11479019382,0.234846388069906,0.00628742492439738,,
9.30872190007149,0.237157544333698,0.00639956926219698,,
9.50265360632298,0.239688304865577,0.00650296188677801,,
9.69658531257447,0.241849581699258,0.00664110801856577,,
9.89051701882596,0.244283963576981,0.00677513289359855,,
10.0844487250774,0.246236838471114,0.00689265518300086,,
10.2783804313289,0.248574069120299,0.00696941139523721,,
10.4723121375804,0.250729551646115,0.00713951921513978,,
10.6662438438319,0.252740949049685,0.00722262913605576,,
10.8601755500834,0.254429989792361,0.0073379315153983,,
11.0541072563349,0.256763937000422,0.00742319612867748,,
11.2480389625864,0.258404112413435,0.00753375517477339,,
11.4419706688379,0.259921641643304,0.00764358177596813,,
11.6359023750894,0.262101073974963,0.00776622114618597,,
11.8298340813409,0.263667082247303,0.00788990399955036,,
12.0237657875923,0.265019087415826,0.00797208833084806,,
12.2176974938438,0.266665443423895,0.00810119930327424,,
12.4116292000953,0.268233576275786,0.00817272806628511,,
12.6055609063468,0.26943261171667,0.00829136407327624,,
12.7994926125983,0.27094492606946,0.00834400980472783,,
12.9934243188498,0.272024985055514,0.00845119508920744,,
13.1873560251013,0.273327738607184,0.00853020382035208,,
13.3812877313528,0.274425759947619,0.00862568001990605,,
13.5752194376043,0.27550079720019,0.00870450313145277,,
13.7691511438557,0.276634356962199,0.00879782463864354,,
13.9630828501072,0.277361349455673,0.00887368787011011,,
14.1570145563587,0.278267386062179,0.00895920332068423,,
14.3509462626102,0.279122819046663,0.00903212673905474,,
14.5448779688617,0.279852322406878,0.00910141803339526,,
14.7388096751132,0.280752178418328,0.00916941500729429,,
14.9327413813647,0.281150633655851,0.00923557585219426,,
15.1266730876162,0.281720986693372,0.00929536542980447,,
15.3206047938677,0.282265072201905,0.00937364673279406,,
15.5145365001192,0.282745227180326,0.00941428237456599,,
15.7084682063706,0.282976806351334,0.00949525265335671,,
15.9023999126221,0.283286608678521,0.00956305648253863,,
16.0963316188736,0.283522243865035,0.00961982597911826,,
16.2902633251251,0.283693755377842,0.00966791901366726,,
16.4841950313766,0.28391162135357,0.00974563593274347,,
16.6781267376281,0.284007227433344,0.00977434426114332,,
16.8720584438796,0.28387550350121,0.00983131693593187,,
17.0659901501311,0.283628279698966,0.00985447423499641,,
17.2599218563826,0.283667680992449,0.00991860831455371,,
17.453853562634,0.283199307773354,0.00996211102660682,,
17.6477852688855,0.282801818253808,0.0100061379886056,,
17.841716975137,0.282525622912238,0.0100265385857994,,
18.0356486813885,0.28231123352123,0.0100701616997534,,
18.22958038764,0.281818524209101,0.0101061418013328,,
18.4235120938915,0.281176128610457,0.0101079277628724,,
18.617443800143,0.280634360825071,0.0101458142278927,,
18.8113755063945,0.279861593299462,0.0101647373934188,,
19.005307212646,0.279029144402843,0.0102034365712749,,
19.1992389188975,0.278374773901279,0.0102068479584854,,
19.3931706251489,0.277329480762415,0.0102571458528566,,
19.5871023314004,0.27641784299164,0.0102506140496978,,
19.7810340376519,0.275286794096373,0.0102933266242715,,
19.9749657439034,0.27416675438605,0.0102885908161441,,
20.1688974501549,0.273100794882467,0.0102821994818703,,
20.3628291564064,0.271808857372146,0.0102713432437476,,
20.5567608626579,0.27063782775261,0.0103190424637436,,
20.7506925689094,0.269303012364087,0.0103088083021121,,
20.9446242751609,0.267759988179612,0.0102784544810577,,
21.1385559814123,0.266368388574011,0.0102744736931877,,
21.3324876876638,0.264633572799201,0.0102906777824376,,
21.5264193939153,0.262967323000795,0.0103079529469365,,
21.7203511001668,0.261615317832272,0.0102784243805822,,
21.9142828064183,0.259844770492294,0.0102588816469371,,
22.1082145126698,0.258148390292989,0.0102365671611837,,
22.3021462189213,0.256204013717058,0.0102065645123419,,
22.4960779251728,0.254175619677083,0.010205240091425,,
22.6900096314243,0.25241086664497,0.010169844440743,,
22.8839413376757,0.250269869888817,0.010136061673867,,
23.0778730439272,0.248475952173783,0.010130974693527,,
23.2718047501787,0.24615108271471,0.0100677060026366,,
23.4657364564302,0.243756874704852,0.0100780680912886,,
23.6596681626817,0.241698543407574,0.0100305118485502,,
23.8535998689332,0.239181882358167,0.00999442137856166,,
24.0475315751847,0.23686667007887,0.00992628393577766,,
24.2414632814362,0.234469758058675,0.00990780976900885,,
24.4353949876877,0.232033637888593,0.00985512390359,,
24.6293266939392,0.229578782789747,0.00981168139248778,,
24.8232584001906,0.227044738816744,0.00974880902452346,,
25.0171901064421,0.224452558621496,0.00974310749281093,,
25.2111218126936,0.221551734960632,0.00968332042357378,,
25.4050535189451,0.218901225399542,0.0096287357198328,,
25.5989852251966,0.216110879875306,0.00951471762744038,,
25.7929169314481,0.213288858801409,0.00949527272034034,,
25.9868486376996,0.210451386239871,0.00945748659023815,,
26.1807803439511,0.207452638776088,0.00934195344058431,,
26.3747120502026,0.204406571131406,0.00928147155204062,,
26.568643756454,0.20156600827234,0.00920821702844066,,
26.7625754627055,0.198289906605414,0.00914405034003485,,
26.956507168957,0.195149198598936,0.00906872640875234,,
27.1504388752085,0.191971769166363,0.00900152458907799,,
27.34437058146,0.188784537696318,0.00891759443020801,,
27.5383022877115,0.185515196055235,0.00882492509998345,,
27.732233993963,0.182209543418197,0.00876841647419058,,
27.9261657002145,0.178756691218437,0.00870100144281594,,
28.120097406466,0.175541260783448,0.00859519827183108,,
28.3140291127175,0.172013493011582,0.00851957584416763,,
28.5079608189689,0.168534590569378,0.0084146054530021,,
28.7018925252204,0.1649257024874,0.0083085188358738,,
28.8958242314719,0.161397741571938,0.00824986555120955,,
29.0897559377234,0.157757177940297,0.00812353385601128,,
29.2836876439749,0.154176488823263,0.00803835954415799,,
29.4776193502264,0.150412120146905,0.00792290666243911,,
29.6715510564779,0.146703545826698,0.00784103086101373,,
29.8654827627294,0.143058950322502,0.00774436820105473,,
30.0594144689809,0.13930848798502,0.00764491623037689,,
30.2533461752323,0.135479392061219,0.00751931698007935,,
30.4472778814838,0.131545298450312,0.00742572456861001,,
30.6412095877353,0.127692421721315,0.0072776302297064,,
30.8351412939868,0.123771655018498,0.00718859302351227,,
31.0290730002383,0.119830728952901,0.00708178650334812,,
31.2230047064898,0.115832077095198,0.00697275003963194,,
31.4169364127413,0.111862783064011,0.00684348103971022,,
31.6108681189928,0.107814300158667,0.00674204243765653,,
31.8047998252443,0.103772166849026,0.00660466386799108,,
31.9987315314958,0.0997575082158457,0.0064791047516608,,
32.1926632377472,0.0956365964621888,0.00637648219757514,,
32.3865949439987,0.091493086907858,0.00621658847232043,,
32.5805266502502,0.0873561683787237,0.00611902279809984,,
32.7744583565017,0.0832269273075107,0.00599528225215762,,
32.9683900627532,0.0789831762271137,0.00585472055721992,,
33.1623217690047,0.074874239376378,0.00573681699512951,,
33.3562534752562,0.0706183202494643,0.00558866245527545,,
33.5501851815077,0.066329952998506,0.00545913007619436,,
33.7441168877592,0.0621315906630523,0.00535581521117479,,
33.9380485940106,0.0578880085833014,0.00522862063568175,,
34.1319803002621,0.0535573670278774,0.00505633554805929,,
34.3259120065136,0.0493250114196151,0.00494940862599336,,
34.5198437127651,0.044984881685062,0.00478956506819728,,
34.7137754190166,0.0406341049098068,0.00467415984556441,,
34.9077071252681,0.0363511939654215,0.00451186811577031,,
35.1016388315196,0.0320079497903909,0.00438851636763493,,
35.2955705377711,0.0276975641695453,0.00422722798702058,,
35.4895022440226,0.0233311669060038,0.00407159849577887,,
35.6834339502741,0.0189767445453834,0.0039370995382586,,
35.8773656565255,0.0146634376276558,0.00378793914085218,,
36.071297362777,0.0103231388924567,0.00365085405082155,,
36.2652290690285,0.00590169570419672,0.00349546536338297,,
36.45916077528,0.00154012703054276,0.00333431745165358,,
36.6530924815315,-0.00281733734170675,0.00320410279512995,,
36.847024187783,-0.00719846180440541,0.00306360380951576,,
37.0409558940345,-0.0115922854585084,0.00291418504969565,,
37.234887600286,-0.0159453075280614,0.00275523447266979,,
37.4288193065375,-0.0203042204772771,0.00260285583276954,,
37.6227510127889,-0.0246514965248639,0.00246492291268252,,
37.8166827190404,-0.0289790719257092,0.00230913539394484,,
38.0106144252919,-0.0333074199009367,0.00214536874085658,,
38.2045461315434,-0.03769177951886,0.00198750178094453,,
38.3984778377949,-0.0419339854504929,0.00182925103997134,,
38.5924095440464,-0.0463096536066186,0.00167607222910071,,
38.7863412502979,-0.0506022700166779,0.00152380395761043,,
38.9802729565494,-0.0548373296352773,0.00135361837814596,,
39.1742046628009,-0.0591983671640436,0.00118646792995003,,
39.3681363690523,-0.0635050347706758,0.00104363114074779,,
39.5620680753038,-0.0677104951332643,0.00091725931158182,,
39.7559997815553,-0.0719280269705717,0.00074766570813356,,
39.9499314878068,-0.0761578717120924,0.000587285358526479,,
40.1438631940583,-0.0803027332715918,0.000459037266395068,,
40.3377949003098,-0.0845275562796294,0.000266175995472739,,
40.5317266065613,-0.0885439773481191,0.000130041578789708,,
40.7256583128128,-0.092722059606045,-3.51397966413813E-05,,
40.9195900190643,-0.0969312379828469,-0.000211470889830423,,
41.1135217253157,-0.10107764469111,-0.000363315246292295,,
41.3074534315672,-0.105026658644769,-0.000515732765972832,,
41.5013851378187,-0.109130380618426,-0.000659664459967679,,
41.6953168440702,-0.112973165594559,-0.000822215806361992,,
41.8892485503217,-0.117141204385518,-0.00100898047683184,,
42.0831802565732,-0.121040001004347,-0.00113119844039433,,
42.2771119628247,-0.12503092711823,-0.00128483252095535,,
42.4710436690762,-0.12882441219161,-0.00147439402726324,,
42.6649753753277,-0.132707950466394,-0.00160485952108136,,
42.8589070815792,-0.136693130558311,-0.001762193451742,,
43.0528387878306,-0.140402839597141,-0.0018977672470708,,
43.2467704940821,-0.143875368300694,-0.00207083494705351,,
43.4407022003336,-0.147915159744239,-0.00221106302838914,,
43.6346339065851,-0.151627186506216,-0.00235413058790268,,
43.8285656128366,-0.155223520254486,-0.00251200758130654,,
44.0224973190881,-0.158890158271519,-0.00271367073290651,,
44.2164290253396,-0.162485719445407,-0.00283424320381442,,
44.4103607315911,-0.165929083466039,-0.0029730063953477,,
44.6042924378426,-0.169421264530434,-0.00316293036154702,,
44.7982241440941,-0.173076362217636,-0.00328448611465104,,
44.9921558503455,-0.176292975657147,-0.00340339302592074,,
45.186087556597,-0.179863814450811,-0.00356828468427617,,
45.3800192628485,-0.183097376240827,-0.00371842460131955,,
45.5739509691,-0.186484583761066,-0.00384147409051439,,
45.7678826753515,-0.189941274689787,-0.00398639910019671,,
45.961814381603,-0.192944271312672,-0.00415721929801682,,
46.1557460878545,-0.196233748173586,-0.00429476843704313,,
46.349677794106,-0.199378898482761,-0.00443768549417989,,
46.5436095003575,-0.202368326768061,-0.00455970278790607,,
46.7375412066089,-0.205247904633418,-0.00469701112312926,,
46.9314729128604,-0.208498704489333,-0.00484156489361487,,
47.1254046191119,-0.211275336818288,-0.00500981526334909,,
47.3193363253634,-0.214443278071732,-0.00514484599593468,,
47.5132680316149,-0.217114453997541,-0.00528222456560012,,
47.7071997378664,-0.219958686584922,-0.00538786720071638,,
47.9011314441179,-0.22273729863573,-0.0055384109658041,,
48.0950631503694,-0.22523150674216,-0.00566993875556632,,
48.2889948566209,-0.228019341399654,-0.00580955353971557,,
48.4829265628724,-0.230628711374902,-0.00593774268508307,,
48.6768582691238,-0.232950683680042,-0.00605178335283174,,
48.8707899753753,-0.235492115395573,-0.00617043064750167,,
49.0647216816268,-0.237956386244699,-0.00629897849020056,,
49.2586533878783,-0.24030926152512,-0.0064102398807222,,
49.4525850941298,-0.24247961610779,-0.00653353142790669,,
49.6465168003813,-0.245004968618994,-0.00665623099907497,,
49.8404485066328,-0.247073922814025,-0.00678699624346102,,
50.0343802128843,-0.249189859188662,-0.00691722344184909,,
50.2283119191358,-0.251169339613075,-0.00703435317088452,,
50.4222436253872,-0.253283682553049,-0.00712785528092796,,
50.6161753316387,-0.255153119413925,-0.00724631068506687,,
50.8101070378902,-0.257040904916374,-0.00736928116051416,,
51.0040387441417,-0.258817391421914,-0.00746996850486958,,
51.1979704503932,-0.260628547202846,-0.00756052954762998,,
51.3919021566447,-0.262423816923049,-0.00765867716437496,,
51.5858338628962,-0.263946367886401,-0.00775249031266378,,
51.7797655691477,-0.265725606688176,-0.00787411630021051,,
51.9736972753992,-0.267019861921644,-0.00795753475099881,,
52.1676289816506,-0.26863198322741,-0.00806120078823147,,
52.3615606879021,-0.269811559451047,-0.00818949904782196,,
52.5554923941536,-0.271180126682884,-0.00825763649060596,,
52.7494241004051,-0.272542416747867,-0.0083425198311966,,
52.9433558066566,-0.273785102641335,-0.00843817914197631,,
53.1372875129081,-0.274847585560199,-0.00852467787474609,,
53.3312192191596,-0.275651835491874,-0.00861713650164253,,
53.5251509254111,-0.27718752021972,-0.00869094161310491,,
53.7190826316626,-0.278144981308529,-0.00876158742883781,,
53.913014337914,-0.278926392010036,-0.00883768268480223,,
54.1069460441655,-0.279589647116994,-0.00893420487587582,,
54.300877750417,-0.280192641422155,-0.0089901202714664,,
54.4948094566685,-0.281135375311806,-0.00907622769805627,,
54.68874116292,-0.281883179027696,-0.00915489152792048,,
54.8826728691715,-0.282271445940556,-0.00921877477018285,,
55.076604575423,-0.282529244354654,-0.00927777044775491,,
55.2705362816745,-0.282899500627234,-0.00934273730713153,,
55.464467987926,-0.283411524298913,-0.00942820259024657,,
55.6583996941775,-0.283850974264582,-0.00946896114229334,,
55.8523314004289,-0.284081732575309,-0.00949885969365782,,
56.0462631066804,-0.284222775685925,-0.00956852222719462,,
56.2401948129319,-0.284263722128172,-0.00963188372788393,,
56.4341265191834,-0.28415686543396,-0.00967381369009779,,
56.6280582254349,-0.284211718215083,-0.00971995771886558,,
56.8219899316864,-0.284191293279858,-0.00977767036367405,,
57.0159216379379,-0.28398979622385,-0.00980097941930191,,
57.2098533441894,-0.2833820216147,-0.00984637971549063,,
57.4037850504409,-0.283186946583242,-0.0098898448019491,,
57.5977167566924,-0.282907274656953,-0.00992806237219845,,
57.7916484629438,-0.282231996361175,-0.00995953743596134,,
57.9855801691953,-0.281961064182583,-0.0100115309904463,,
58.1795118754468,-0.281240590285457,-0.0100179624586874,,
58.3734435816983,-0.280725910889339,-0.0100775814669367,,
58.5673752879498,-0.28013527777429,-0.0100678991473542,,
58.7613069942013,-0.279093268076551,-0.0100997253833297,,
58.9552387004528,-0.278352755531391,-0.0101393187961416,,
59.1491704067043,-0.277525328368255,-0.0101520500430436,,
59.3431021129558,-0.276387181445854,-0.0101534559860816,,
59.5370338192072,-0.275239860202666,-0.0101708126727016,,
59.7309655254587,-0.274344832781104,-0.0101783277580565,,
59.9248972317102,-0.273164145981792,-0.0101739431221417,,
60.1188289379617,-0.271943237028718,-0.0101832943364952,,
60.3127606442132,-0.270690942241374,-0.0102216022081709,,
60.5066923504647,-0.269134011718022,-0.0102080770612307,,
60.7006240567162,-0.267604893872423,-0.010192053574833,,
60.8945557629677,-0.266203443943451,-0.0101959377903444,,
61.0884874692192,-0.264716624545268,-0.0101725685337657,,
61.2824191754707,-0.263079539429782,-0.0101906990534406,,
61.4763508817221,-0.26153207294261,-0.0101820802839883,,
61.6702825879736,-0.259779101669823,-0.0101501035456355,,
61.8642142942251,-0.257802035540353,-0.0101352439442861,,
62.0581460004766,-0.256006234675263,-0.0101275783565544,,
62.2520777067281,-0.253981896650794,-0.0101004477947391,,
62.4460094129796,-0.251983246724526,-0.0100481331685165,,
62.6399411192311,-0.250207146506177,-0.0100491051630343,,
62.8338728254826,-0.248100529310023,-0.0100462569055511,,
63.0278045317341,-0.245926843000331,-0.0100119009754565,,
63.2217362379855,-0.243684977001426,-0.0099489420686254,,
63.415667944237,-0.24126493603567,-0.00996591873674335,,
63.6095996504885,-0.238898154416373,-0.00989927628423715,,
63.80353135674,-0.236676037350109,-0.00986723056562822,,
63.9974630629915,-0.234146049392612,-0.00980749115547708,,
64.191394769243,-0.231686751991069,-0.00978119337348105,,
64.3853264754945,-0.229087425482787,-0.00972090964639971,,
64.579258181746,-0.226508379052032,-0.00964267976505573,,
64.7731898879975,-0.22386308436802,-0.00963050913950791,,
64.967121594249,-0.221216582536536,-0.00955458570709045,,
65.1610533005004,-0.218359843901346,-0.00950546173125932,,
65.3549850067519,-0.21542135723936,-0.00947264217959587,,
65.5489167130034,-0.21264627005917,-0.0093824900016255,,
65.7428484192549,-0.209821158687744,-0.00930925554500961,,
65.9367801255064,-0.206826805240758,-0.00928378176352673,,
66.1307118317579,-0.203682427505966,-0.00922263766452458,,
66.3246435380094,-0.200743795986283,-0.00914979576827468,,
66.5185752442609,-0.197540316311266,-0.00908490792264605,,
66.7125069505123,-0.194426648408159,-0.00897962649323469,,
66.9064386567638,-0.191173675686795,-0.00891122817966394,,
