Time domain (s),Current (AC) (A),Potential (AC) (V),Frequency (Hz),Column 5
0,-0.223675926548541,-0.00258362966021286,5011.9,0.5
6.23516031844211E-06,-0.170810376560585,-0.00172563483671162,,
1.24703206368842E-05,-0.111310166747102,-0.000786838734441186,,
1.87054809553263E-05,-0.0479923162018284,0.000153259813986395,,
2.49406412737684E-05,0.0158675170425577,0.00105576639943772,,
3.11758015922105E-05,0.0796729817829692,0.00198012749980325,,
3.74109619106526E-05,0.141604914260195,0.00280620441828283,,
4.36461222290948E-05,0.198262215216145,0.00357942505922537,,
4.98812825475369E-05,0.246916174477431,0.0041265375031343,,
5.6116442865979E-05,0.286013335285351,0.00456342933343201,,
6.23516031844211E-05,0.314574958172072,0.0048432585613698,,
6.85867635028632E-05,0.330229895428052,0.00487865320021674,,
7.48219238213053E-05,0.333246372099318,0.0047633433003953,,
8.10570841397474E-05,0.323777953497161,0.00445708238961773,,
8.72922444581895E-05,0.30171888170974,0.0039921356918815,,
9.35274047766316E-05,0.267878335984729,0.00335260095981349,,
9.97625650950737E-05,0.223854530453313,0.00258041873172576,,
0.000105997725413516,0.171003663153319,0.00171414495795474,,
0.000112232885731958,0.11196932722647,0.000797602078606019,,
0.0001184680460504,0.0487886924293224,-0.000128523969205485,,
0.000124703206368842,-0.0148538441263148,-0.00104335860624705,,
0.000130938366687284,-0.079084574836171,-0.00200371329348803,,
0.000137173527005726,-0.141370948819413,-0.00280426226727792,,
0.000143408687324168,-0.198268208873791,-0.00353706632051587,,
0.000149643847642611,-0.247282922487608,-0.00415307196403836,,
0.000155879007961053,-0.286801554463977,-0.00457761802239043,,
0.000162114168279495,-0.314995010723327,-0.00482187009181612,,
0.000168349328597937,-0.331110289258883,-0.00488790854209631,,
0.000174584488916379,-0.333875954410183,-0.00476845916714019,,
0.000180819649234821,-0.324310431461071,-0.00445667836550401,,
0.000187054809553263,-0.301897769337951,-0.00399107955867084,,
0.000193289969871705,-0.26789833848717,-0.00333085808314193,,
0.000199525130190147,-0.22365351239687,-0.00258604848879118,,
0.00020576029050859,-0.170675678857979,-0.00173104663339929,,
0.000211995450827032,-0.111374359175148,-0.000797788142343325,,
0.000218230611145474,-0.0479172004213861,0.000156658578245317,,
0.000224465771463916,0.0158699996226478,0.00104902203198742,,
0.000230700931782358,0.0797533819124605,0.00196168769746841,,
0.0002369360921008,0.141547460263823,0.00283010209023038,,
0.000243171252419242,0.198329564067448,0.00354339603163822,,
0.000249406412737684,0.246785519833829,0.0041357485441238,,
0.000255641573056126,0.286295781968751,0.00458497019804716,,
0.000261876733374569,0.314138520592222,0.00480844160612515,,
0.000268111893693011,0.33044751130567,0.00489527843810889,,
0.000274347054011453,0.333400008341469,0.00477888405250759,,
0.000280582214329895,0.323940314235057,0.00446479074442818,,
0.000286817374648337,0.30148672500588,0.00399432592786875,,
0.000293052534966779,0.268020800616474,0.00336937150462413,,
0.000299287695285221,0.223761717423371,0.00259639540459267,,
0.000305522855603663,0.171150170844069,0.00171774219019927,,
0.000311758015922105,0.111890452110463,0.000814413380235024,,
0.000317993176240548,0.0487781237312242,-0.000149010472645372,,
0.00032422833655899,-0.0148873944229619,-0.00104232019339179,,
0.000330463496877432,-0.0791376311192407,-0.00195068867257042,,
0.000336698657195874,-0.141326546101229,-0.00283797878842229,,
0.000342933817514316,-0.198180396469459,-0.00355488768243051,,
0.000349168977832758,-0.247230433651416,-0.00417182364463686,,
0.0003554041381512,-0.286765876241538,-0.00457879819809248,,
0.000361639298469642,-0.315149285343216,-0.00482492685320635,,
0.000367874458788084,-0.330718538120656,-0.0049226492998109,,
0.000374109619106526,-0.334263591558547,-0.00478157931863787,,
0.000380344779424969,-0.324510598347197,-0.00447304134212922,,
0.000386579939743411,-0.301831732707553,-0.00399577899705195,,
0.000392815100061853,-0.268018424432674,-0.00333240861428186,,
0.000399050260380295,-0.223656349631259,-0.0026069088917402,,
0.000405285420698737,-0.170765690118962,-0.00171685617240547,,
0.000411520581017179,-0.111413158355414,-0.000822617905010592,,
0.000417755741335621,-0.0479643694430991,0.000150346587478811,,
0.000423990901654063,0.0158973080036396,0.00103202466662156,,
0.000430226061972505,0.0797527435347231,0.00197022890900556,,
0.000436461222290948,0.141550262032782,0.00281414313771977,,
0.00044269638260939,0.198096130608113,0.00355748017049606,,
0.000448931542927832,0.247009306696242,0.0041533377693761,,
0.000455166703246274,0.286180341994559,0.00460313356283004,,
0.000461401863564716,0.314455794327744,0.0048563326399429,,
0.000467637023883158,0.330323027646863,0.00490478363700619,,
0.0004738721842016,0.333467676381641,0.00476078093693433,,
0.000480107344520042,0.323932547305918,0.00446789180670848,,
0.000486342504838484,0.301626387868667,0.00398425722165419,,
0.000492577665156927,0.26789571404536,0.00335984504129971,,
0.000498812825475369,0.223713626300482,0.00256995308953956,,
0.000505047985793811,0.171112932142716,0.00172671932249147,,
0.000511283146112253,0.112059303022023,0.000805310433416473,,
0.000517518306430695,0.0488575662941094,-0.000145211228343545,,
0.000523753466749137,-0.0147933401029746,-0.00103076652135448,,
0.000529988627067579,-0.0790867736928223,-0.00197083317314162,,
0.000536223787386021,-0.141357897541224,-0.00280967406396559,,
0.000542458947704463,-0.198044705734817,-0.00357098485371754,,
0.000548694108022906,-0.247293420254846,-0.00413522224955409,,
0.000554929268341348,-0.286599827098936,-0.00458000672636372,,
0.00056116442865979,-0.314730580478295,-0.00483179526314759,,
0.000567399588978232,-0.330800534194491,-0.00490113855980079,,
0.000573634749296674,-0.334173012850686,-0.00477853850556809,,
0.000579869909615116,-0.324224463259091,-0.00445290924580721,,
0.000586105069933558,-0.302274270341339,-0.00399531295169187,,
0.000592340230252,-0.268038568796834,-0.00335263285645482,,
0.000598575390570442,-0.223706001233062,-0.00259203442500944,,
0.000604810550888885,-0.170873434094875,-0.00171135222986729,,
0.000611045711207327,-0.111402944311615,-0.000826727255540671,,
0.000617280871525769,-0.0480053674800166,0.000143894605900918,,
0.000623516031844211,0.0158715601015616,0.00103532774095871,,
0.000629751192162653,0.0797251514302924,0.00198328881129317,,
0.000635986352481095,0.141581578007348,0.00281215845786065,,
0.000642221512799537,0.198224621860494,0.00355606608609671,,
0.000648456673117979,0.247103396481659,0.00413570247119832,,
0.000654691833436421,0.286271594545587,0.00458664654371388,,
0.000660926993754863,0.314301519707856,0.00481528166349721,,
0.000667162154073306,0.330126549165442,0.0049087565407957,,
0.000673397314391748,0.333295101599945,0.00477198020185421,,
0.00067963247471019,0.323872929918325,0.00446730349089286,,
0.000685867635028632,0.301554073857183,0.00397146312470475,,
0.000692102795347074,0.267867802752061,0.00334300361506568,,
0.000698337955665516,0.223738452101383,0.00257448241250424,,
0.000704573115983958,0.171052995566254,0.00171550942535781,,
0.0007108082763024,0.111955992224843,0.00082931797157082,,
0.000717043436620842,0.0487567026115891,-0.000154796168842175,,
0.000723278596939285,-0.0148513615462246,-0.0010410939447647,,
0.000729513757257727,-0.0791516044986054,-0.00198124033815317,,
0.000735748917576169,-0.141418827149723,-0.00282899988409469,,
0.000741984077894611,-0.198050663927033,-0.00354930399829101,,
0.000748219238213053,-0.247175533165993,-0.00415558471050304,,
0.000754454398531495,-0.286764315762625,-0.0045999828835539,,
0.000760689558849937,-0.314926491512839,-0.00484197029149769,,
0.000766924719168379,-0.330766983897844,-0.00491202594645701,,
0.000773159879486821,-0.334027675519122,-0.0047752974524764,,
0.000779395039805264,-0.324434560465579,-0.00445584196470605,,
0.000785630200123706,-0.302103610692856,-0.0039994240742578,,
0.000791865360442148,-0.268127374233202,-0.00335457146338847,,
0.00079810052076059,-0.223643014629632,-0.00260186745049085,,
0.000804335681079032,-0.170784344935068,-0.00171696426657642,,
0.000810570841397474,-0.111401383832701,-0.000795849535409232,,
0.000816806001715916,-0.0480004023198363,0.00014603345285602,,
0.000823041162034358,0.0158498197930578,0.00107313589227731,,
0.0008292763223528,0.079677308565412,0.00198291668381989,,
0.000835511482671243,0.141636868612499,0.00282749365384438,,
0.000841746642989685,0.198178091216518,0.00356715548481024,,
0.000847981803308127,0.247002781057148,0.00414798622189849,,
0.000854216963626569,0.286166971527502,0.0045633513638661,,
0.000860452123945011,0.314276055529217,0.00484279428804557,,
0.000866687284263453,0.330299762324875,0.00487261764700175,,
0.000872922444581895,0.333344114824011,0.00474504171683643,,
0.000879157604900337,0.323690105627399,0.00446240558452615,,
0.000885392765218779,0.301604966749032,0.0039797314427612,,
0.000891627925537222,0.267746120862213,0.00335222883234021,,
0.000897863085855664,0.223896450591407,0.00258180091948512,,
0.000904098246174106,0.171132792783438,0.00174886976734889,,
0.000910333406492548,0.111897899850733,0.00082550277894855,,
0.00091656856681099,0.0488196892150195,-0.000128353853789065,,
0.000922803727129432,-0.0148135553979945,-0.00103090474013001,,
0.000929038887447874,-0.0790873411397,-0.00196591754641862,,
0.000935274047766316,-0.141397406030088,-0.00282397439116577,,
0.000941509208084758,-0.198258916931168,-0.00356906219510389,,
0.0009477443684032,-0.247325410072579,-0.0041457056120966,,
0.000953979528721643,-0.286739489961723,-0.00456713465984837,,
0.000960214689040085,-0.314882727172392,-0.00481904901115904,,
0.000966449849358527,-0.331175474718965,-0.00491067565533854,,
0.000972685009676969,-0.333991358918946,-0.00476110699148302,,
0.000978920169995411,-0.324504143638963,-0.00445236700291707,,
0.000985155330313853,-0.301944016258488,-0.00398196066353185,,
0.000991390490632295,-0.268006011532223,-0.0033371399493034,,
0.000997625650950737,-0.223602300316153,-0.00259006569347076,,
0.00100386081126918,-0.170824066216511,-0.00170880758676217,,
0.00101009597158762,-0.111387410453336,-0.000803728005636106,,
0.00101633113190606,-0.0479777044447263,0.000157294739021818,,
0.00102256629222451,0.0158324417324267,0.00105314733083794,,
0.00102880145254295,0.0797775693356247,0.00199375799755064,,
0.00103503661286139,0.141590905415401,0.00280522625463764,,
0.00104127177317983,0.198111629000962,0.00356059540906095,,
0.00104750693349827,0.246907804635984,0.00415008076796441,,
0.00105374209381672,0.286210132955641,0.00459429110524301,,
0.00105997725413516,0.314344964859433,0.0048322329559376,,
0.0010662124144536,0.330298201845961,0.00492547392453879,,
0.00107244757477204,0.333367415611428,0.00476121685768893,,
0.00107868273509048,0.323857112336607,0.00445230498167115,,
0.00108491789540893,0.301780662488555,0.00398895666003529,,
0.00109115305572737,0.267824002946184,0.00334458427081064,,
0.00109738821604581,0.223829988375851,0.00259307460989966,,
0.00110362337636425,0.171193899719085,0.00172934547923376,,
0.0011098585366827,0.111942586292356,0.000790219778343815,,
0.00111609369700114,0.0487871319504085,-0.000113635326190131,,
0.00112232885731958,-0.0148271741230605,-0.0010436846607953,,
0.00112856401763802,-0.0791199693351707,-0.00199114956116464,,
0.00113479917795646,-0.141356053338872,-0.00284895832092946,,
0.00114103433827491,-0.198198980354705,-0.00354030914564296,,
0.00114726949859335,-0.247252776872227,-0.00414429507176806,,
0.00115350465891179,-0.286531804404466,-0.00459677195506769,,
0.00115973981923023,-0.314677169540927,-0.00483750298977847,,
0.00116597497954867,-0.331118020722593,-0.00489471670282793,,
0.00117221013986712,-0.333928088592076,-0.00475989846321134,,
0.00117844530018556,-0.324364409845317,-0.00445599613180248,,
0.001184680460504,-0.302157589077102,-0.0039731660509057,,
0.00119091562082244,-0.267886209310158,-0.00333931069289939,,
0.00119715078114088,-0.223620245823662,-0.00257243039529298,,
0.00120338594145933,-0.17071845016639,-0.00173354520357893,,
0.00120962110177777,-0.111299598049004,-0.000807247268315159,,
0.00121585626209621,-0.047980541679115,0.000161000065437733,,
0.00122209142241465,0.0158876614067178,0.00104317431454515,,
0.0012283265827331,0.0797558644925507,0.00197505593394887,,
0.00123456174305154,0.141610482332683,0.00281604984801298,,
0.00124079690336998,0.19811443076992,0.00355091655067596,,
0.00124703206368842,0.246887341082955,0.00416400542361961,,
0.00125326722400686,0.286059617671317,0.00457692161240342,,
0.00125950238432531,0.314163984770861,0.00481782276253107,,
0.00126573754464375,0.330272453943883,0.0049014486660286,,
0.00127197270496219,0.333375182540567,0.00477060155816611,,
0.00127820786528063,0.323667762406588,0.0044519045016278,,
0.00128444302559907,0.301773214748285,0.00398524956158397,,
0.00129067818591752,0.267756051182573,0.00334449212496013,,
0.00129691334623596,0.223848962380826,0.00259706168997376,,
0.0013031485065544,0.171128749724434,0.00173072412292141,,
0.00130938366687284,0.111972731907737,0.00082644904595286,,
0.00131561882719128,0.0488457917713961,-0.000136496357318716,,
0.00132185398750973,-0.0148240531652329,-0.00103443995112951,,
0.00132808914782817,-0.0790613095141832,-0.00195200706704846,,
0.00133432430814661,-0.141444220397502,-0.00283044232106411,,
0.00134055946846505,-0.198131950692271,-0.00355760066891664,,
0.0013467946287835,-0.247244123307341,-0.00414900868643375,,
0.00135302978910194,-0.286737929482809,-0.00456060470870412,,
0.00135926494942038,-0.315000614261245,-0.00484733778729529,,
0.00136550010973882,-0.330955092537818,-0.00490876894504533,,
0.00137173527005726,-0.334279409140264,-0.00477156022942005,,
0.00137797043037571,-0.324437043045669,-0.00445821294832394,,
0.00138420559069415,-0.302066301060643,-0.00396327277621467,,
0.00139044075101259,-0.268062472496559,-0.00335075449873079,,
0.00139667591133103,-0.223773314618935,-0.00259144610919426,,
0.00140291107164947,-0.170855985103385,-0.00172338612354972,,
0.00140914623196792,-0.11142684801134,-0.00080172737745654,,
0.00141538139228636,-0.0479801870248164,0.000141831956475436,,
0.0014216165526048,0.0158178654407544,0.0010430502720542,,
0.00142785171292324,0.0797220304724648,0.00196618157972095,,
0.00143408687324168,0.141688683605523,0.00281243489541216,,
0.00144032203356013,0.19814737815426,0.0035755939182831,,
0.00144655719387857,0.246916174477431,0.00414284023054945,,
0.00145279235419701,0.286246130366948,0.00459412098982659,,
0.00145902751451545,0.314379401791827,0.00483732224214828,,
0.0014652626748339,0.33066445334012,0.00491770177644701,,
0.00147149783515234,0.333290420163203,0.00477294064514311,,
0.00147773299547078,0.323840656377152,0.00444036500587508,,
0.00148396815578922,0.301770448444756,0.00396335074578014,,
0.00149020331610766,0.267943805168249,0.003329323500322,,
0.00149643847642611,0.223870986412768,0.0025969518237674,,
0.00150267363674455,0.17101855863386,0.00172967153378201,,
0.00150890879706299,0.112063346081027,0.000803511817294211,,
0.00151514395738143,0.0487955017918554,-0.000140217632055073,,
0.00152137911769987,-0.0149032120046792,-0.00102473274017489,,
0.00152761427801832,-0.079121175159786,-0.00196162036011627,,
0.00153384943833676,-0.141382084964388,-0.00282011135358262,,
0.0015400845986552,-0.198188766310906,-0.00357501623468126,,
0.00154631975897364,-0.247362010396194,-0.00414803052278856,,
0.00155255491929209,-0.286660331122277,-0.00459061413139716,,
0.00155879007961053,-0.315206455616149,-0.00484180017608082,,
0.00156502523992897,-0.330916648011851,-0.0048904992581269,,
0.00157126040024741,-0.334245291396739,-0.0047723044843675,,
0.00157749556056585,-0.324449739669559,-0.0044740638066636,,
0.0015837307208843,-0.30186521207334,-0.00401270016488731,,
0.00158996588120274,-0.267996364935301,-0.00333389712417631,,
0.00159620104152118,-0.223531227594715,-0.00260610261554728,,
0.00160243620183962,-0.170715045485123,-0.0017127166972708,,
0.00160867136215806,-0.111303924831447,-0.000809061832757862,,
0.00161490652247651,-0.0480174257261689,0.000143568551352669,,
0.00162114168279495,0.0158526215620167,0.00105758096388042,,
0.00162737684311339,0.0797248322414237,0.00196297419530556,,
0.00163361200343183,0.141561114454319,0.00283677203218602,,
0.00163984716375027,0.198184297666744,0.00354899566409816,,
0.00164608232406872,0.247026401033434,0.00416309105325574,,
0.00165231748438716,0.286236200046587,0.00457167993113261,,
0.0016585526447056,0.314203103139996,0.00482610880094336,,
0.00166478780502404,0.330337923127404,0.00488591145798756,,
0.00167102296534249,0.333264353072257,0.00478585878458393,,
0.00167725812566093,0.324030006307172,0.00444222564324326,,
0.00168349328597937,0.301550988364786,0.00398309476630843,,
0.00168972844629781,0.267803503927725,0.00335907243378308,,
0.00169596360661625,0.223878434153039,0.00258456175093214,,
0.0017021987669347,0.171076260888242,0.00171876642676949,,
0.00170843392725314,0.11188612532802,0.000834683695333016,,
0.00171466908757158,0.0487787621089617,-0.000141085929493467,,
0.00172090424789002,-0.0148364660656837,-0.00104815019047866,,
0.00172713940820846,-0.0791134436960766,-0.00199189381611209,,
0.00173337456852691,-0.141425636512256,-0.00283520200865484,,
0.00173960972884535,-0.198051869751648,-0.00357152886864309,,
0.00174584488916379,-0.247365131354022,-0.00415820555113822,,
0.00175208004948223,-0.286767720443891,-0.00459768632543112,,
0.00175831520980067,-0.314988201360794,-0.00485130714701398,,
0.00176455037011912,-0.330981195094195,-0.00490714044433949,,
0.00177078553043756,-0.333912271010359,-0.00476901558631493,,
0.001777020690756,-0.324459953713358,-0.00447207912680447,,
0.00178325585107444,-0.302042681084357,-0.00398889286675441,,
0.00178949101139289,-0.267831592548174,-0.00337947742358624,,
0.00179572617171133,-0.223698553492792,-0.00258969356599703,,
0.00180196133202977,-0.170666315984496,-0.00172268794152775,,
0.00180819649234821,-0.111479620570971,-0.00081475538310416,,
0.00181443165266665,-0.0479327342796645,0.000162876651125909,,
0.0018206668129851,0.0158485785030127,0.00105536591939481,,
0.00182690197330354,0.0797220304724648,0.00198274656840347,,
0.00183313713362198,0.141639670381458,0.00282149354134109,,
0.00183937229394042,0.198315590688083,0.00354991003446159,,
0.00184560745425886,0.247008065406197,0.00415510626089377,,
0.00185184261457731,0.28631631645264,0.00456384753383077,,
0.00185807777489575,0.314446147730822,0.00481308079529619,,
0.00186431293521419,0.330183967696384,0.00488812650247317,,
0.00187054809553263,0.333399369963732,0.00476113888812302,,
0.00187678325585107,0.323655987883874,0.004447407075304,,
0.00188301841616952,0.301559641929671,0.0039914977590696,,
0.00188925357648796,0.267676856877697,0.00334627479276239,,
0.0018954887368064,0.223655250202933,0.00257755157814366,,
0.00190172389712484,0.171077821367155,0.0017279632914744,,
0.00190795905744329,0.11192396694168,0.00080034696173259,,
0.00191419421776173,0.0488262148541137,-0.000135938166108573,,
0.00192042937808017,-0.0148578871853188,-0.00104328240871654,,
0.00192666453839861,-0.0791032296522771,-0.00196993297906234,,
0.00193289969871705,-0.14141194685633,-0.00281732039753058,,
0.0019391348590355,-0.198069602466578,-0.00355677844440372,,
0.00194537001935394,-0.247371656993116,-0.00415118120206515,,
0.00195160517967238,-0.286814322018726,-0.0045854043467668,,
0.00195784033999082,-0.314899750578725,-0.00480448642269193,,
0.00196407550030926,-0.330963817033564,-0.00489797547627502,,
0.00197031066062771,-0.334247490253391,-0.00475423680950593,,
0.00197654582094615,-0.324110832021822,-0.0044524130758421,,
0.00198278098126459,-0.302026579779201,-0.00397546260902848,,
0.00198901614158303,-0.267953522696031,-0.00334694107814393,,
0.00199525130190147,-0.223621806302576,-0.00258259124735805,,
0.00200148646221992,-0.170803567198052,-0.0017053343970086,,
0.00200772162253836,-0.111357903215693,-0.000790235726664701,,
0.0020139567828568,-0.047968696225542,0.000140403695791047,,
