Time domain (s),Current (AC) (A),Potential (AC) (V),Frequency (Hz),Column 5
0,-0.4488234911091,-0.00744657331021559,316.23,0.5
9.88204787654555E-05,-0.458287582928815,-0.00781382369983286,,
0.000197640957530911,-0.450114149032546,-0.00782974139844894,,
0.000296461436296367,-0.424671249651375,-0.0075967258270766,,
0.000395281915061822,-0.383003554487242,-0.00703969517718184,,
0.000494102393827278,-0.326229146681897,-0.00624898294342024,,
0.000592922872592733,-0.257288323163267,-0.00517266235164593,,
0.000691743351358189,-0.178411788538651,-0.00391230030725387,,
0.000790563830123644,-0.0926076496378696,-0.00248989742297567,,
0.0008893843088891,-0.00367762321470573,-0.00104516091971885,,
0.000988204787654555,0.0857872218907387,0.000495603485020979,,
0.00108702526642001,0.172545026200441,0.00204004205868902,,
0.00118584574518547,0.252197544430381,0.00351581474418428,,
0.00128466622395092,0.321673470354731,0.00481991993419761,,
0.00138348670271638,0.378973688623172,0.00593779138046591,,
0.00148230718148183,0.421636330956582,0.0068349879118732,,
0.00158112766024729,0.448065736734723,0.00747198446192821,,
0.00167994813901274,0.457615867687277,0.00783658190177627,,
0.0017787686177782,0.449207439852759,0.00789116162569181,,
0.00187758909654365,0.424193530311168,0.00762318039836396,,
0.00197640957530911,0.3825347015045,0.00707270164638274,,
0.00207523005407457,0.326539043608009,0.00626470361333942,,
0.00217405053284002,0.257639608246025,0.00519256780007193,,
0.00227287101160548,0.178956608472152,0.00393829977000326,,
0.00237169149037093,0.0931512992121851,0.00252633108147071,,
0.00247051196913639,0.00438980451171338,0.000997288496631832,,
0.00256933244790184,-0.0856472043736535,-0.000527547109284043,,
0.0026681529266673,-0.172441963661269,-0.00203635401450164,,
0.00276697340543275,-0.251769051106819,-0.00351648769430923,,
0.00286579388419821,-0.321828028698058,-0.00480344861269622,,
0.00296461436296367,-0.379242871235806,-0.00591552297521103,,
0.00306343484172912,-0.421941475515093,-0.00681824602279546,,
0.00316225532049458,-0.44888931494692,-0.00748106165721696,,
0.00326107579926003,-0.458310068011346,-0.00779622986977246,,
0.00335989627802549,-0.450101948924674,-0.00783893237087163,,
0.00345871675679094,-0.424346457244722,-0.00760718083571277,,
0.0035575372355564,-0.382766716346641,-0.00704784411755588,,
0.00365635771432185,-0.326300077541616,-0.00626046055874019,,
0.00375517819308731,-0.257375497189861,-0.00518945835423912,,
0.00385399867185277,-0.178447821415388,-0.0039160410774306,,
0.00395281915061822,-0.0925942437053827,-0.00251431788110379,,
0.00405163962938368,-0.00378625382636523,-0.00104479461284734,,
0.00415046010814913,0.08573136383871,0.000520490151894926,,
0.00424928058691459,0.17238642479811,0.00204510375364642,,
0.00434810106568004,0.252272163694805,0.00351985521998355,,
0.0044469215444455,0.321616158220078,0.00483719185821885,,
0.00454574202321095,0.379080936083067,0.00594788146975622,,
0.00464456250197641,0.421644842659748,0.00684090432286499,,
0.00474338298074187,0.448177807493079,0.00749479538986142,,
0.00484220345950732,0.457485922352272,0.00783417315658808,,
0.00494102393827278,0.449615717881301,0.00787758607101452,,
0.00503984441703823,0.424294535855408,0.00762485375475608,,
0.00513866489580369,0.382657837476972,0.00707999448319629,,
0.00523748537456914,0.326605151169267,0.0062651670470335,,
0.0053363058533346,0.257646736797426,0.0052213617402459,,
0.00543512633210005,0.179005692627078,0.00394932227678568,,
0.00553394681086551,0.0931855942828592,0.00253606596409739,,
0.00563276728963096,0.00445562834953252,0.00102191985871647,,
0.00573158776839642,-0.0855547814634398,-0.00053417393360311,,
0.00583040824716188,-0.172408768018921,-0.00206634677716577,,
0.00592922872592733,-0.251828845821562,-0.00352005086115437,,
0.00602804920469279,-0.32176447464775,-0.00480226089041436,,
0.00612686968345824,-0.378919142792049,-0.00592886542551563,,
0.0062256901622237,-0.421957718681968,-0.0068250948512798,,
0.00632451064098915,-0.448536362988958,-0.00745742931387428,,
0.00642333111975461,-0.458064576305858,-0.00781800986586534,,
0.00652215159852006,-0.449716085047803,-0.00785046548723267,,
0.00662097207728552,-0.424515769206871,-0.00761315413527175,,
0.00671979255605098,-0.382694650593166,-0.00705523546871767,,
0.00681861303481643,-0.326310504377995,-0.00624985014718904,,
0.00691743351358189,-0.257088865585737,-0.00518852454922092,,
0.00701625399234734,-0.178305675972512,-0.00394626555694222,,
0.0071150744711128,-0.0926861700995784,-0.00252489499203046,,
0.00721389494987825,-0.00377320254817695,-0.00103076256210599,,
0.00731271542864371,0.0858170128518206,0.000518969423366045,,
0.00741153590740916,0.172542472689491,0.00204367182678311,,
0.00751035638617462,0.252099092397091,0.00349753270121322,,
0.00760917686494007,0.321922012087186,0.00484146543839126,,
0.00770799734370553,0.378714649123479,0.00595074532348194,,
0.00780681782247099,0.421303239639342,0.00683186597830554,,
0.00790563830123644,0.448133546636615,0.00748056492289795,,
0.0080044587800019,0.457542383316608,0.00783323241393985,,
0.00810327925876735,0.449354408594096,0.00787326809000932,,
0.00820209973753281,0.424083729340323,0.00762172627108448,,
0.00830092021629826,0.382540092249839,0.00705872648420858,,
0.00839974069506372,0.326485136154622,0.00626495614307698,,
0.00849856117382918,0.2577239095728,0.00518752830553071,,
0.00859738165259463,0.179011650819294,0.00393176174735022,,
0.00869620213136009,0.0932525530144339,0.00253022725456331,,
0.00879502261012554,0.00441080004619018,0.0010093960487696,,
0.008893843088891,-0.0855488232712234,-0.000539037212338389,,
0.00899266356765645,-0.172460689408235,-0.0020370422274123,,
0.00909148404642191,-0.252053625716012,-0.00349921715781409,,
0.00919030452518736,-0.321777525925939,-0.00479933043543923,,
0.00928912500395282,-0.379190098676175,-0.00591532317146282,,
0.00938794548271828,-0.42194466740378,-0.00682890222270593,,
0.00948676596148373,-0.448826328343489,-0.00747070516292903,,
0.00958558644024919,-0.458339575248989,-0.00780942940489604,,
0.00968440691901464,-0.449801769526344,-0.00783319356321144,,
0.0097832273977801,-0.424540807800352,-0.00760102160766563,,
0.00988204787654555,-0.382694650593166,-0.00707523804396581,,
0.00998086835531101,-0.326226593170947,-0.00627042854573956,,
0.0100796888340765,-0.257333789844347,-0.0051852832884145,,
0.0101785093128419,-0.178404128005802,-0.00395490151895261,,
0.0102773297916074,-0.0926569465853742,-0.00253951535380814,,
0.0103761502703728,-0.00376469084501068,-0.00102973163026565,,
0.0104749707491383,0.085859571367652,0.000546764344798945,,
0.0105737912279037,0.172622766422693,0.00204955493715042,,
0.0106726117066692,0.252411755626732,0.0034942387144179,,
0.0107714321854347,0.321764261855171,0.00480968831725281,,
0.0108702526642001,0.378992981817016,0.00594647174330953,,
0.0109690731429656,0.421693926814674,0.00683858437934282,,
0.011067893621731,0.448256115162209,0.00747434880628362,,
0.0111667141004965,0.457586076726195,0.00783667070344229,,
0.0112655345792619,0.44949485169634,0.00786883078176537,,
0.0113643550580274,0.424188707012707,0.007609948950142,,
0.0114631755367928,0.382758559297773,0.00708536420893235,,
0.0115619960155583,0.326628983938132,0.00628095154315078,,
0.0116608164943238,0.257595666578429,0.00521863108901899,,
0.0117596369730892,0.178748355468017,0.00394597001389707,,
0.0118584574518547,0.0932262022000483,0.00253892981782311,,
0.0119572779306201,0.00435944610375369,0.00100521127026321,,
0.0120560984093856,-0.0855482558243457,-0.000552489277199086,,
0.012154918888151,-0.172391177165711,-0.0020817649664111,,
0.0122537393669165,-0.252025253372124,-0.00351594517163178,,
0.0123525598456819,-0.321819233271453,-0.00480869901119352,,
0.0124513803244474,-0.379044264828593,-0.0059396867410233,,
0.0125502008032129,-0.421965095491379,-0.00684180066468087,,
0.0126490212819783,-0.449099554015126,-0.00747244789562274,,
0.0127478417607438,-0.458559177190678,-0.00783251645050864,,
0.0128466622395092,-0.449944482416098,-0.00788889440815943,,
0.0129454827182747,-0.424530593756552,-0.00760088840516682,,
0.0130443031970401,-0.382853464788077,-0.00707562655125438,,
0.0131431236758056,-0.326423426306667,-0.00623357724190932,,
0.013241944154571,-0.257248601881824,-0.00519539557812143,,
0.0133407646333365,-0.17839696398897,-0.00394653334946593,,
0.013439585112102,-0.0926308440289977,-0.00250700145634752,,
0.0135384055908674,-0.00373716967143975,-0.00105084422633794,,
0.0136372260696329,0.0859503628680922,0.000524486226861409,,
0.0137360465483983,0.1724695557657,0.00205266299545759,,
0.0138348670271638,0.252271312524489,0.00347771882950498,,
0.0139336875059292,0.321974217199939,0.00480895292845673,,
0.0140325079846947,0.378801752219214,0.00594982400619815,,
0.0141313284634601,0.421640303084726,0.00684920727862837,,
0.0142301489422256,0.448352581131427,0.00748315127141774,,
0.0143289694209911,0.457622109602932,0.00783456443892883,,
0.0144277898997565,0.449352989976902,0.00787138382966024,,
0.014526610378522,0.424153525306287,0.00760116868542449,,
0.0146254308572874,0.382665214286383,0.00706731804538618,,
0.0147242513360529,0.326316036985053,0.00625802961313537,,
0.0148230718148183,0.257742351596327,0.00518594097575242,,
0.0149218922935838,0.178962566664369,0.00395566049569052,,
0.0150207127723492,0.0932690089738887,0.0025387300140749,,
0.0151195332511147,0.00442271643062295,0.00103408568694707,,
0.0152183537298802,-0.085586274765155,-0.000538602916690945,,
0.0153171742086456,-0.17237613982345,-0.00208621614991511,,
0.0154159946874111,-0.251893038249608,-0.00349863994698563,,
0.0155148151661765,-0.321778377096255,-0.00480640126808796,,
0.015613635644942,-0.379117181752384,-0.00593176257986627,,
0.0157124561237074,-0.421887355269127,-0.00682984435288025,,
0.0158112766024729,-0.44894726545931,-0.00746034866864109,,
0.0159100970812383,-0.458358797511972,-0.0077913901789799,,
0.0160089175600038,-0.449983068803785,-0.00784888925766269,,
0.0161077380387693,-0.424583011661885,-0.00756558974296384,,
0.0162065585175347,-0.383002987040365,-0.00705848921725805,,
0.0163053789963002,-0.326171763616384,-0.00627183827218625,,
0.0164041994750656,-0.257279244013223,-0.00519986896204205,,
0.0165030199538311,-0.178400368670236,-0.00395445889814905,,
0.0166018404325965,-0.0926777293272719,-0.00253918096003503,,
0.016700660911362,-0.00373830456519525,-0.00103388310814712,,
0.0167994813901274,0.0858865250943451,0.000502907422042842,,
0.0168983018688929,0.172600919717899,0.00203874333432497,,
0.0169971223476584,0.252146509676813,0.00350548322536515,,
0.0170959428264238,0.321679995993825,0.00481357339013666,,
0.0171947633051893,0.378849417756945,0.00595317626908676,,
0.0172935837839547,0.421724001499195,0.00685070580674063,,
0.0173924042627202,0.447948558954468,0.00748508270765136,,
0.0174912247414856,0.457232273597917,0.00781665702798584,,
0.0175900452202511,0.449528898509005,0.00786247868760004,,
0.0176888656990165,0.424143594985926,0.00763152775496057,,
0.017787686177782,0.382532715440428,0.00706119905559399,,
0.0178865066565474,0.32639235859011,0.00624756489181699,,
0.0179853271353129,0.257581764129924,0.005176475273176,,
0.0180841476140784,0.178996046030156,0.00391250288605383,,
0.0181829680928438,0.0932982679535227,0.00251897164340775,,
0.0182817885716093,0.00442385132437845,0.00104014640064642,,
0.0183806090503747,-0.0856271309403531,-0.000531543184250527,,
0.0184794295291402,-0.172269743533872,-0.00205445845414065,,
0.0185782500079056,-0.251835442391516,-0.00351572316746696,,
0.0186770704866711,-0.321568989198365,-0.00479578946901071,,
0.0187758909654366,-0.379181019526131,-0.00593836581624307,,
0.018874711444202,-0.422068654546569,-0.00684871609441418,,
0.0189735319229675,-0.448848458771722,-0.00746846430839065,,
0.0190723524017329,-0.458399369963732,-0.00782117203768751,,
0.0191711728804984,-0.450276438839583,-0.00785054318869038,,
0.0192699933592638,-0.42447321069104,-0.0076271736982787,,
0.0193688138380293,-0.382748487115693,-0.00707363961397922,,
0.0194676343167947,-0.326155946034667,-0.00623469697541568,,
0.0195664547955602,-0.25742110573266,-0.00520173379702626,,
0.0196652752743256,-0.178511020811398,-0.00393831919536813,,
0.0197640957530911,-0.0926763107100775,-0.00252939196389335,,
0.0198629162318566,-0.00377689095288233,-0.00106802734869316,,
0.019961736710622,0.0859236928648379,0.000511088275515714,,
0.0200605571893875,0.17251750502687,0.00202214019784996,,
0.0201593776681529,0.251985071040093,0.00351106663010992,,
0.0202581981469184,0.321779866644309,0.00484382145759055,,
0.0203570186256838,0.378959786174668,0.00594448480603482,,
0.0204558391044493,0.421645410106626,0.00684606314464453,,
0.0205546595832148,0.448007005982876,0.00746309319512806,,
0.0206534800619802,0.457814757817928,0.00783175608624376,,
0.0207523005407457,0.449538545105927,0.00787093704627884,,
0.0208511210195111,0.424267014681837,0.00761212181590487,,
0.0209499414982766,0.382631734920596,0.00708972659077078,,
0.021048761977042,0.326535638926742,0.00624376584554698,,
0.0211475824558075,0.257569564022052,0.00521495692009166,,
0.0212464029345729,0.178862447755875,0.00392780729816478,,
0.0213452234133384,0.0932664909283686,0.00252992754894077,,
0.0214440438921038,0.004445414305733,0.00101381670670131,,
0.0215428643708693,-0.0856103203265997,-0.000544430526016715,,
0.0216416848496348,-0.17236365599214,-0.0020529155251956,,
0.0217405053284002,-0.251972693605072,-0.00350814172523917,,
0.0218393258071657,-0.321948611159581,-0.00484470669919768,,
0.0219381462859311,-0.379218471020062,-0.00596028872751653,,
0.0220369667646966,-0.422495658322077,-0.00682731489292765,,
0.022135787243462,-0.449059549010245,-0.0074662206788001,,
0.0222346077222275,-0.457934134454835,-0.0078074521803031,,
0.0223334282009929,-0.450049743811921,-0.00787497474702636,,
0.0224322486797584,-0.424439163878375,-0.00761085639216619,,
0.0225310691585239,-0.382892618622642,-0.00705464715768089,,
0.0226298896372893,-0.326108564220375,-0.00622392977342257,,
0.0227287101160548,-0.257292082498832,-0.00521172398444225,,
0.0228275305948202,-0.178358377601283,-0.00393374590957363,,
0.0229263510735857,-0.0926768781569552,-0.00254354472939955,,
0.0230251715523511,-0.00370454147596905,-0.00103289380208782,,
0.0231239920311166,0.0858697854114515,0.000513728737550956,,
0.023222812509882,0.172548998328585,0.00204893610054091,,
0.0233216329886475,0.252112179140709,0.00347587619493739,,
0.023420453467413,0.321778164303676,0.00483113391957213,,
0.0235192739461784,0.379093703637817,0.00593197487134844,,
0.0236180944249439,0.421703573411596,0.00683657524165149,,
0.0237169149037093,0.448307752828084,0.00747128514880924,,
0.0238157353824748,0.457519685441498,0.00783546078074426,,
0.0239145558612402,0.449629904053245,0.00787735574169357,,
0.0240133763400057,0.424112101684211,0.00764000831405598,,
0.0241121968187711,0.382576408850015,0.00708016098632003,,
0.0242110172975366,0.326474070940506,0.00626058543608243,,
0.0243098377763021,0.257666881161586,0.00520189197499343,,
0.0244086582550675,0.178923129106365,0.00395753365583129,,
0.024507478733833,0.0932979842300838,0.0025123670195053,,
0.0246062992125984,0.00440626047116817,0.00101097505339176,,
0.0247051196913639,-0.0855723013857904,-0.0005364494762925,,
0.0248039401701293,-0.172208742994514,-0.00206174019074634,,
0.0249027606488948,-0.251810758452334,-0.00351779890640769,,
0.0250015811276602,-0.321784335288472,-0.00479553277669531,,
0.0251004016064257,-0.379328271990907,-0.00593686728813037,,
0.0251992220851912,-0.422185477672526,-0.00682905762562136,,
0.0252980425639566,-0.449013585813147,-0.00745790662282841,,
0.0253968630427221,-0.458057270427307,-0.0078041776188722,,
0.0254956835214875,-0.450156991271816,-0.00786960224623856,,
0.025594504000253,-0.424449377922174,-0.00758506922089897,,
0.0256933244790184,-0.382979225202359,-0.00706235070219918,,
0.0257921449577839,-0.326279862246596,-0.00625137087571792,,
0.0258909654365493,-0.257226542384452,-0.00518809164109957,,
0.0259897859153148,-0.178470732083078,-0.00392269010216673,,
0.0260886063940803,-0.0925860157256553,-0.00252759234263245,,
0.0261874268728457,-0.00375504424808891,-0.001032073774204,,
0.0262862473516112,0.0858769139628532,0.000517737300251397,,
0.0263850678303766,0.172468137148506,0.00206850299261596,,
0.0264838883091421,0.252166370317535,0.00353392195887592,,
0.0265827087879075,0.321657014395276,0.00482225375298029,,
0.026681529266673,0.37890616244472,0.00594628303976963,,
0.0267803497454384,0.421692791920918,0.00682363239884376,,
0.0268791702242039,0.448094676525489,0.00749252817232815,,
0.0269779907029694,0.457440242878613,0.00781205321661815,,
0.0270768111817348,0.44951754957145,0.00787307106131285,,
0.0271756316605003,0.423872355378361,0.00759750561670502,,
0.0272744521392657,0.382573004168748,0.00709856513158158,,
0.0273732726180312,0.326390088802599,0.00624921882284513,,
0.0274720930967966,0.257649006584937,0.00519590896275179,,
0.0275709135755621,0.179049953483542,0.00395245253550947,,
0.0276697340543275,0.0931935740045776,0.00252083647839196,,
0.027768554533093,0.00435405535841505,0.00101291758983368,,
0.0278673750118585,-0.0855933678511269,-0.00053374102548176,,
0.0279661954906239,-0.172303506623098,-0.00206536995884044,,
0.0280650159693894,-0.25183196677939,-0.00351224880228784,,
0.0281638364481548,-0.321829163591814,-0.00484728194750961,,
0.0282626569269203,-0.379244573576439,-0.00595906770461019,,
0.0283614774056857,-0.422264636511972,-0.0068386815061654,,
0.0284602978844512,-0.449013302089708,-0.00744800523707845,,
0.0285591183632166,-0.458140614187477,-0.00781117075006366,,
0.0286579388419821,-0.450309350758492,-0.00786306422358507,,
0.0287567593207476,-0.424615427064776,-0.0076099336873563,,
0.028855579799513,-0.382758772090352,-0.00705236051478364,,
0.0289544002782785,-0.326432292664132,-0.00624808382655262,,
0.0290532207570439,-0.257234983156758,-0.00518472827800265,,
0.0291520412358094,-0.178335750657033,-0.00393051574897552,,
0.0292508617145748,-0.0926073659144307,-0.00252489499203046,,
0.0293496821933403,-0.00377518861224908,-0.00105847978208073,,
0.0294485026721057,0.0858314827472033,0.000492173520675099,,
0.0295473231508712,0.172699939198067,0.00203782479209291,,
0.0296461436296367,0.252251168160329,0.00350006354869192,,
0.0297449641084021,0.321844271864934,0.0048095440145457,,
0.0298437845871676,0.378989009688872,0.00594203166001384,,
0.029942605065933,0.421888844817181,0.00684039093823374,,
0.0300414255446985,0.448335557725094,0.00748227435496673,,
0.0301402460234639,0.457759431747348,0.00782576197379425,,
0.0302390665022294,0.449592452559313,0.00786250088801665,,
0.0303378869809948,0.424486900346965,0.00761495236900611,,
0.0304367074597603,0.382753735999312,0.00707191075654556,,
0.0305355279385258,0.326574509037868,0.00623123371044398,,
0.0306343484172912,0.257729264852709,0.00522773325977566,,
0.0307331688960567,0.178980157517579,0.0039406169384737,,
0.0308319893748221,0.0933478840898961,0.00253248892199176,,
0.0309308098535876,0.00438044163823049,0.00102301877933231,,
0.031029630332353,-0.0855888282761049,-0.000528235322194703,,
0.0311284508111185,-0.172252365473241,-0.00206016396117592,,
0.0312272712898839,-0.251968437753489,-0.0035162115766294,,
0.0313260917686494,-0.321775256138428,-0.00481354980219439,,
0.0314249122474149,-0.379184636999976,-0.00593496915252167,,
0.0315237327261803,-0.422200018498768,-0.00684707326359479,,
0.0316225532049458,-0.448921375695513,-0.00746321252236726,,
0.0317213736837112,-0.458384970999209,-0.00781402350358107,,
0.0318201941624767,-0.449827304635842,-0.00785870184174664,,
0.0319190146412421,-0.424497114390765,-0.00760823674302147,,
0.0320178351200076,-0.382839916993871,-0.00705169450228915,,
0.032116655598773,-0.326340366269936,-0.00624629808055222,,
0.0322154760775385,-0.257294919733221,-0.0051756594078709,,
0.032314296556304,-0.178503360278548,-0.00394676645383907,,
0.0324131170350694,-0.0926302765821199,-0.00254385553522996,,
0.0325119375138349,-0.00376156988718305,-0.0010461599384608,,
