Time domain (s),Current (AC) (A),Potential (AC) (V),Frequency (Hz),Column 5
0,0.359653086289071,0.0111603092354815,0.012589,0.4
0.193931706251489,0.361328234239673,0.0113097888429672,,
0.387863412502979,0.362886667273738,0.0114010124908601,,
0.581795118754468,0.363844885182568,0.0115363691450296,,
0.775726825005958,0.365722955304889,0.0116565658800196,,
0.969658531257447,0.366718614434469,0.0117763060891574,,
1.16359023750894,0.367679374648411,0.0118863288194491,,
1.35752194376043,0.368868711203846,0.0119836960009483,,
1.55145365001192,0.369809364095533,0.0120718348384425,,
1.7453853562634,0.370545476984974,0.0121589497536689,,
1.93931706251489,0.371109175364047,0.0122362461021823,,
2.13324876876638,0.372099749883401,0.0123361633066539,,
2.32718047501787,0.372608442024581,0.0124201510197954,,
2.52111218126936,0.373637613357918,0.0125272650282309,,
2.71504388752085,0.373871274309637,0.0126156745203372,,
2.90897559377234,0.374060098243914,0.0126481791609878,,
3.10290730002383,0.37440770068841,0.012729101629124,,
3.29683900627532,0.374524415604946,0.0128505766364992,,
3.49077071252681,0.374834114591398,0.0128929161483575,,
3.6847024187783,0.374706768217118,0.0129389698241109,,
3.87863412502979,0.374609467266897,0.0130411174834584,,
4.07256583128128,0.374360090247209,0.0130970745092971,,
4.26649753753277,0.374016879056999,0.0131410705578183,,
4.46042924378426,0.373655640612353,0.0131712925692096,,
4.65436095003575,0.373369515727855,0.0132430845203091,,
4.84829265628724,0.372872148400358,0.0132703880271476,,
5.04222436253872,0.371954145136039,0.0133246852554252,,
5.23615606879021,0.371268878348851,0.0133658149737768,,
5.4300877750417,0.370638848918203,0.0133937641386055,,
5.62401948129319,0.36984842314681,0.013455055995113,,
5.81795118754468,0.368666251269419,0.0134802953529216,,
6.01188289379617,0.367885532481183,0.0135011814106427,,
6.20581460004766,0.366385110227416,0.0135250479299969,,
6.39974630629915,0.365270887232128,0.013507608642457,,
6.59367801255064,0.364233395627513,0.0135578525733502,,
6.78760971880213,0.362724421983821,0.0135758266483164,,
6.98154142505362,0.360720392199099,0.0135855049963753,,
7.17547313130511,0.359254175505029,0.0136040790767469,,
7.3694048375566,0.357870237049151,0.0135904093883839,,
7.56333654380809,0.35621681425133,0.0136106530490134,,
7.75726825005958,0.354278422162244,0.013651870811636,,
7.95119995631106,0.352312295835566,0.0136424924662797,,
8.14513166256256,0.350461959950836,0.0136174357188121,,
8.33906336881404,0.348541826234832,0.0136030355890857,,
8.53299507506553,0.346488337059736,0.0135724483570128,,
8.72692678131702,0.344066675880597,0.0135568612600716,,
8.92085848756851,0.341690313956192,0.0135394480597233,,
9.11479019382,0.339325507964117,0.0135213696359906,,
9.30872190007149,0.337002072209785,0.013496094408294,,
9.50265360632298,0.33454065862343,0.0134688300322425,,
9.69658531257447,0.33176145689799,0.0134302079451776,,
9.89051701882596,0.329046506156307,0.0133998294106372,,
10.0844487250774,0.326140651412528,0.0133557714050361,,
10.2783804313289,0.323313377008594,0.01332195914391,,
10.4723121375804,0.320518690333832,0.0132594020586132,,
10.6662438438319,0.317183648263305,0.0132482236970413,,
10.8601755500834,0.314354293791552,0.0131556532978854,,
11.0541072563349,0.311285038164622,0.0131177975220713,,
11.2480389625864,0.308431185116329,0.0130746656117702,,
11.4419706688379,0.304763563313335,0.0129968475194264,,
11.6359023750894,0.30144747297183,0.0129479470788971,,
11.8298340813409,0.298176219647766,0.0129123380624541,,
12.0237657875923,0.29440182103004,0.0128285166551585,,
12.2176974938438,0.290889510957566,0.0127465637429567,,
12.4116292000953,0.287090151526007,0.0126462911005008,,
12.6055609063468,0.283468522333688,0.0125961254311822,,
12.7994926125983,0.279497210629054,0.0125084561631357,,
12.9934243188498,0.27566618794291,0.0124186118754945,,
13.1873560251013,0.271872375358869,0.0122992890614215,,
13.3812877313528,0.267758463449279,0.0122464331504761,,
13.5752194376043,0.263979673577268,0.0121353832370175,,
13.7691511438557,0.259885868989933,0.0120665391385613,,
13.9630828501072,0.255468267178702,0.0119349423008717,,
14.1570145563587,0.25146344327031,0.0118702199786771,,
14.3509462626102,0.247099923222386,0.0117468145191291,,
14.5448779688617,0.242782858022429,0.0116630224599241,,
14.7388096751132,0.23836776962648,0.0115175504972376,,
14.9327413813647,0.234082627689585,0.0114337845252241,,
15.1266730876162,0.229280213331756,0.0113333847077093,,
15.3206047938677,0.224929202580578,0.0112147923349988,,
15.5145365001192,0.220322516826593,0.0110860650883775,,
15.7084682063706,0.215432508501699,0.0109609248305924,,
15.9023999126221,0.210799041874539,0.0108200800835041,,
16.0963316188736,0.205955459507782,0.0106688917649729,,
16.2902633251251,0.201311852550001,0.0105341253335118,,
16.4841950313766,0.196276239477746,0.0104388288228403,,
16.6781267376281,0.191311088702874,0.0102863752755198,,
16.8720584438796,0.186414869064353,0.0101440305149185,,
17.0659901501311,0.181443738094501,0.0100016759716199,,
17.2599218563826,0.17617215288406,0.00988775320619384,,
17.453853562634,0.17123571860103,0.00975401721879843,,
17.6477852688855,0.166041298128725,0.00956600030762012,,
17.841716975137,0.161009382954815,0.00943090778626487,,
18.0356486813885,0.155604673403929,0.00928722279619842,,
18.22958038764,0.150362902498901,0.00912584742937339,,
18.4235120938915,0.145202023120185,0.00897045907300509,,
18.617443800143,0.139876356146439,0.0088169587771243,,
18.8113755063945,0.134555542664271,0.00862862555874866,,
19.005307212646,0.129094440163614,0.0085043983526667,,
19.1992389188975,0.123605603425363,0.0083369446702144,,
19.3931706251489,0.118215223230567,0.00814380814769766,,
19.5871023314004,0.112771223509759,0.00795999453525509,,
19.7810340376519,0.107180232329708,0.00782127915517572,,
19.9749657439034,0.101709393956063,0.00761676861715044,,
20.1688974501549,0.0961177383099033,0.00750014582740066,,
20.3628291564064,0.0905406142486495,0.00729355157495171,,
20.5567608626579,0.0850180341879947,0.00712392613380386,,
20.7506925689094,0.0794281697113467,0.00692798849909648,,
20.9446242751609,0.0737833567764681,0.00675642608397764,,
21.1385559814123,0.0680104752215388,0.00661898571538444,,
21.3324876876638,0.0624460626858483,0.00639777937477781,,
21.5264193939153,0.0566946462752226,0.00623763010595457,,
21.7203511001668,0.0509927470346322,0.0060117932888506,,
21.9142828064183,0.0453250244639087,0.00582995252026786,,
22.1082145126698,0.039617549485969,0.00564064103220963,,
22.3021462189213,0.0338663930838207,0.00544370882332457,,
22.4960779251728,0.0281646960720462,0.00524256027210823,,
22.6900096314243,0.0223934323476431,0.00504703677156604,,
22.8839413376757,0.0166394736319047,0.00486636992660205,,
23.0778730439272,0.0108619985938742,0.0046946118575466,,
23.2718047501787,0.00507941005578742,0.00448620128438737,,
23.4657364564302,-0.000709418685757683,0.00429448651380904,,
23.6596681626817,-0.00648617147801761,0.00408214981832344,,
23.8535998689332,-0.0122789870162167,0.00386998268958294,,
24.0475315751847,-0.0179658924346084,0.00366407322591167,,
24.2414632814362,-0.0237840732442725,0.00345725397143593,,
24.4353949876877,-0.0295209002903312,0.00325609889842138,,
24.6293266939392,-0.0352303975564288,0.00305076661386261,,
24.8232584001906,-0.0410460938406418,0.00287351719098972,,
25.0171901064421,-0.046716358716478,0.00265180215014782,,
25.2111218126936,-0.0523829256939684,0.00242313487276258,,
25.4050535189451,-0.0581165170789746,0.00223811472771196,,
25.5989852251966,-0.0637957955820284,0.00204235644244566,,
25.7929169314481,-0.0694940258141039,0.00182235989534663,,
25.9868486376996,-0.0752421776738463,0.00164168000678666,,
26.1807803439511,-0.0807555129886368,0.00141186489297418,,
26.3747120502026,-0.0864611967970653,0.00120655869560693,,
26.568643756454,-0.0919730876203146,0.000981175143456081,,
26.7625754627055,-0.0975936042074687,0.000779498326611172,,
26.956507168957,-0.103124562319063,0.000575679099161341,,
27.1504388752085,-0.108635586447387,0.000360629335756535,,
27.34437058146,-0.114126098795826,0.000143714338157075,,
27.5383022877115,-0.119700160535012,-5.01395821270734E-05,,
27.732233993963,-0.124993933135527,-0.000239610854233518,,
27.9261657002145,-0.130395927042315,-0.000453147560529388,,
28.120097406466,-0.135730780982263,-0.000661569546835494,,
28.3140291127175,-0.141188647821869,-0.000904469017651177,,
28.5079608189689,-0.146517377117682,-0.00107621404311109,,
28.7018925252204,-0.151673807462451,-0.00130698133941465,,
28.8958242314719,-0.15710347782717,-0.00150695270611312,,
29.0897559377234,-0.162225818171565,-0.00169991966188521,,
29.2836876439749,-0.167391724380845,-0.00191999120966013,,
29.4776193502264,-0.172406305656259,-0.00211281468587865,,
29.6715510564779,-0.177610230882906,-0.00234742984293312,,
29.8654827627294,-0.182596326785126,-0.00251596614383409,,
30.0594144689809,-0.187676025739221,-0.00274022468585011,,
30.2533461752323,-0.192591977132197,-0.00296713107780677,,
30.4472778814838,-0.197489843491075,-0.00314588051419307,,
30.6412095877353,-0.202518291885286,-0.00336180582896395,,
30.8351412939868,-0.207185964072144,-0.00357138869529283,,
31.0290730002383,-0.211925514158097,-0.00374010760653487,,
31.2230047064898,-0.216808357804946,-0.00396894445066476,,
31.4169364127413,-0.221317020362939,-0.00415818093804754,,
31.6108681189928,-0.22596412299025,-0.0043722133009827,,
31.8047998252443,-0.230612381210794,-0.00454421756790779,,
31.9987315314958,-0.235133061938411,-0.00475188791700765,,
32.1926632377472,-0.239481328155659,-0.00495507942141105,,
32.3865949439987,-0.243780597219828,-0.00514926106203895,,
32.5805266502502,-0.248348137253044,-0.00536153090909597,,
32.7744583565017,-0.252731129046945,-0.00554423255499925,,
32.9683900627532,-0.256886411194278,-0.00573519079702312,,
33.1623217690047,-0.260995007374996,-0.00593558118923587,,
33.3562534752562,-0.265110132657481,-0.00611027243688911,,
33.5501851815077,-0.269018811208885,-0.00626638960417081,,
33.7441168877592,-0.2729292809298,-0.00647165830120011,,
33.9380485940106,-0.276906832837892,-0.00665537571712393,,
34.1319803002621,-0.280912870119179,-0.00686208084013717,,
34.3259120065136,-0.284545997464166,-0.00703789383702613,,
34.5198437127651,-0.288461609574968,-0.00721497369315438,,
34.7137754190166,-0.29187939212098,-0.00737835777372764,,
34.9077071252681,-0.295731966620921,-0.0075696796059832,,
35.1016388315196,-0.299334124067263,-0.00773931319937793,,
35.2955705377711,-0.302270486472395,-0.00789839126289893,,
35.4895022440226,-0.305667237221566,-0.00808132932397543,,
35.6834339502741,-0.309039489394196,-0.00826185268938584,,
35.8773656565255,-0.312308662650441,-0.00840863227254829,,
36.071297362777,-0.315471116871615,-0.00855811188003397,,
36.2652290690285,-0.318792002925038,-0.00874295267564351,,
36.45916077528,-0.321464890073038,-0.00891116288665028,,
36.6530924815315,-0.324623299717897,-0.00905610332280915,,
36.847024187783,-0.327102336101056,-0.00919697415708898,,
37.0409558940345,-0.330218971050541,-0.00938721500134543,,
37.234887600286,-0.332845172231927,-0.00950261169309341,,
37.4288193065375,-0.335600337618119,-0.00965215488810856,,
37.6227510127889,-0.338079951797895,-0.00981781018479433,,
37.8166827190404,-0.340465385129179,-0.00993882866631735,,
38.0106144252919,-0.3428066170193,-0.0101112894590947,,
38.2045461315434,-0.344953709246271,-0.0102402270336976,,
38.3984778377949,-0.347406109205409,-0.0103407148954839,,
38.5924095440464,-0.349672689772676,-0.0105281513666506,,
38.7863412502979,-0.351779567355138,-0.0106605960380652,,
38.9802729565494,-0.353544851577916,-0.0107903928595392,,
39.1742046628009,-0.355299677681935,-0.0108910877884085,,
39.3681363690523,-0.357274644296847,-0.0110043991352828,,
39.5620680753038,-0.358577922345059,-0.01112004365535,,
39.7559997815553,-0.360374234246144,-0.0112698363091339,,
39.9499314878068,-0.361889852550926,-0.0114044445869963,,
40.1438631940583,-0.363602903959571,-0.0114962470444517,,
40.3377949003098,-0.36453662329186,-0.0116069349981274,,
40.5317266065613,-0.36625614602261,-0.0117138794398182,,
40.7256583128128,-0.367381231594289,-0.0118403354703265,,
40.9195900190643,-0.368449230860256,-0.0119288378980529,,
41.1135217253157,-0.369616784483249,-0.0120292866290517,,
41.3074534315672,-0.370567837714033,-0.0121555486360729,,
41.5013851378187,-0.371145981008519,-0.0122538582173664,,
41.6953168440702,-0.372080335917086,-0.0123245414628257,,
41.8892485503217,-0.372714121025742,-0.0124345381059259,,
42.0831802565732,-0.3733060158797,-0.0125102692229473,,
42.2771119628247,-0.373856251597608,-0.012586352517054,,
42.4710436690762,-0.374297919331272,-0.012670261968621,,
42.6649753753277,-0.374503152689458,-0.0127390946539312,,
42.8589070815792,-0.374824176489594,-0.0128443809285099,,
43.0528387878306,-0.374949442796055,-0.0128989422896018,,
43.2467704940821,-0.37504373920387,-0.0129839995775964,,
43.4407022003336,-0.375062228695599,-0.0130151868150743,,
43.6346339065851,-0.375140173459167,-0.0130896005289229,,
43.8285656128366,-0.374573470537688,-0.0131467168043358,,
44.0224973190881,-0.374280180975145,-0.0132022205652218,,
44.2164290253396,-0.374192355889435,-0.0132564802931618,,
44.4103607315911,-0.373521822915969,-0.0133096981638898,,
44.6042924378426,-0.372846956467878,-0.0133770683360246,,
44.7982241440941,-0.372682457771156,-0.0134033381378984,,
44.9921558503455,-0.371755903116912,-0.0134455064525625,,
45.186087556597,-0.370934218548566,-0.0134833214671395,,
45.3800192628485,-0.369951039825903,-0.0135045433974521,,
45.5739509691,-0.368945211475873,-0.0135532465535952,,
45.7678826753515,-0.367950245702233,-0.0135652613357458,,
45.961814381603,-0.366914834165438,-0.0136041312511304,,
46.1557460878545,-0.365483978624299,-0.0136138242732344,,
46.349677794106,-0.363928723471624,-0.0136705639148191,,
46.5436095003575,-0.362731817780512,-0.0136717492515848,,
46.7375412066089,-0.360929092336984,-0.013701919088593,,
46.9314729128604,-0.35961980520396,-0.0136810493353661,,
47.1254046191119,-0.358004112525198,-0.0137049598768559,,
47.3193363253634,-0.356403847016097,-0.0137063799983452,,
47.5132680316149,-0.354496771503626,-0.013692188566151,,
47.7071997378664,-0.352279650326732,-0.0137004190750796,,
47.9011314441179,-0.350309652762723,-0.013697888617501,,
48.0950631503694,-0.348399457148523,-0.0137039669331283,,
48.2889948566209,-0.346130334276143,-0.0136630638472535,,
48.4829265628724,-0.343782862182564,-0.0136507376492538,,
48.6768582691238,-0.341729199668483,-0.0136442272645172,,
48.8707899753753,-0.339280208709383,-0.0136448680311592,,
49.0647216816268,-0.336571498171158,-0.0135941398567732,,
49.2586533878783,-0.334211545670662,-0.0135452524598394,,
49.4525850941298,-0.331315166791394,-0.0135125260780611,,
49.6465168003813,-0.328693645762601,-0.0134817692792435,,
49.8404485066328,-0.325867469172239,-0.0134431211049866,,
50.0343802128843,-0.323141829193151,-0.0134073164346074,,
50.2283119191358,-0.319933266801979,-0.013376024848363,,
50.4222436253872,-0.316954378565872,-0.0132984823019799,,
50.6161753316387,-0.314012238194575,-0.0132723282620182,,
50.8101070378902,-0.310682742971566,-0.0132192147400563,,
51.0040387441417,-0.307561254530503,-0.0131536315405416,,
51.1979704503932,-0.304083323356712,-0.0130950250343127,,
51.3919021566447,-0.300975990932753,-0.0130327565385722,,
51.5858338628962,-0.297154733009428,-0.0129769429922866,,
51.7797655691477,-0.293722794446311,-0.0129065597495295,,
51.9736972753992,-0.290033158592229,-0.0128226633415585,,
52.1676289816506,-0.286342251585589,-0.0127199580684918,,
52.3615606879021,-0.282972310599425,-0.0126677054238509,,
52.5554923941536,-0.279065423217532,-0.0125931726871906,,
52.7494241004051,-0.275071057427899,-0.0125199345274103,,
52.9433558066566,-0.271143196028827,-0.0124358685526942,,
53.1372875129081,-0.267094286238595,-0.0123080021833935,,
53.3312192191596,-0.263052830024716,-0.0122387537334685,,
53.5251509254111,-0.258908872691067,-0.0121544660176243,,
53.7190826316626,-0.254729611984149,-0.0120659521767519,,
53.913014337914,-0.250351820359796,-0.0119646164812406,,
54.1069460441655,-0.245930000633265,-0.0118330326871465,,
54.300877750417,-0.241639514077668,-0.0117379709611996,,
54.4948094566685,-0.237312106318275,-0.0116036610555903,,
54.68874116292,-0.232685284352204,-0.0115053400611504,,
54.8826728691715,-0.228237637116915,-0.0113750981269711,,
55.076604575423,-0.223806630424181,-0.0112672145463852,,
55.2705362816745,-0.218881260946357,-0.0111790920133856,,
55.464467987926,-0.214348099811823,-0.0110304080652415,,
55.6583996941775,-0.209436828571442,-0.0108950285847795,,
55.8523314004289,-0.204571781060382,-0.0107575490853988,,
56.0462631066804,-0.199823448465858,-0.0106542568505228,,
56.2401948129319,-0.194764492410295,-0.0105031598371617,,
56.4341265191834,-0.190220468699371,-0.0103624063952439,,
56.6280582254349,-0.18515180566065,-0.0102532184550812,,
56.8219899316864,-0.179977810298739,-0.0101169389665112,,
57.0159216379379,-0.174992985549076,-0.0099639636753599,,
57.2098533441894,-0.169934953968099,-0.00978837078914907,,
57.4037850504409,-0.164740562385625,-0.0096688506906899,,
57.5977167566924,-0.159603257108863,-0.00951476832434794,,
57.7916484629438,-0.154312489050754,-0.00936258869253814,,
57.9855801691953,-0.149021489873999,-0.00920493075050643,,
58.1795118754468,-0.143756144867017,-0.00906066858132748,,
58.3734435816983,-0.138531707860484,-0.0088585433908781,,
58.5673752879498,-0.133023457155919,-0.00872710470678673,,
58.7613069942013,-0.127813811742769,-0.00857045112162913,,
58.9552387004528,-0.12240725324271,-0.00839881044493573,,
59.1491704067043,-0.116722659010784,-0.00826697882252248,,
59.3431021129558,-0.111376884714783,-0.00807275968155663,,
59.5370338192072,-0.105824028111423,-0.00788695365986092,,
59.7309655254587,-0.100273540474191,-0.00770599985579024,,
59.9248972317102,-0.0947028299553802,-0.00756700566885105,,
60.1188289379617,-0.089088958029316,-0.00734089656668546,,
60.3127606442132,-0.0835814006806906,-0.00718995770692343,,
60.5066923504647,-0.0778787791943296,-0.00702572416217606,,
60.7006240567162,-0.0722491912002962,-0.00684105293331161,,
60.8945557629677,-0.0666018070704741,-0.00663212061632157,,
61.0884874692192,-0.0608834695161439,-0.00643183620332444,,
61.2824191754707,-0.0551850081654218,-0.00628145495728116,,
61.4763508817221,-0.049512200984473,-0.00606176330423303,,
61.6702825879736,-0.0438199798372093,-0.00588788075951729,,
61.8642142942251,-0.038135154486637,-0.00571589931888417,,
62.0581460004766,-0.0322850793037412,-0.00550375990778518,,
62.2520777067281,-0.0265967871734698,-0.00531758703495822,,
62.4460094129796,-0.0208093451438043,-0.00514422623407285,,
62.6399411192311,-0.0150808383690234,-0.00492190955737648,,
62.8338728254826,-0.00932945084822855,-0.00474816886176477,,
63.0278045317341,-0.0035427021745029,-0.00453339138342157,,
63.2217362379855,0.00223153720247519,-0.00434234346667672,,
63.415667944237,0.00798711374873982,-0.00411831807893526,,
63.6095996504885,0.0138230906941926,-0.00392450491988772,,
63.80353135674,0.019572398147168,-0.00373295808560492,,
63.9974630629915,0.025310843023753,-0.00353744925910826,,
64.191394769243,0.0309901215268068,-0.00334038661426561,,
64.3853264754945,0.0367692432851944,-0.00312670642841617,,
64.579258181746,0.0425000612464414,-0.00293483513468873,,
64.7731898879975,0.0481407429355119,-0.0027083070070093,,
64.967121594249,0.0538754899137511,-0.00250447636641304,,
65.1610533005004,0.0595228740435733,-0.00230095551121678,,
65.3549850067519,0.06521625078407,-0.00212097997682825,,
65.5489167130034,0.0709184100331378,-0.00186322548088347,,
65.7428484192549,0.07653990887454,-0.00166664544908413,,
65.9367801255064,0.0821787416144377,-0.00148173943549601,,
66.1307118317579,0.0878726094820585,-0.00126575216364566,,
66.3246435380094,0.0933925894579389,-0.00105441819458463,,
66.5185752442609,0.0989963210533833,-0.000823468287940443,,
66.7125069505123,0.104552182199149,-0.000641849260485383,,
