Time domain (s),Current (AC) (A),Potential (AC) (V),Frequency (Hz),Column 5
0,-0.0264888458385858,-0.00192552972000781,0.19953,0.5
0.0122357853455621,-0.0194215786996331,-0.00170528215234889,,
0.0244715706911241,-0.0122911121646708,-0.00162602262164757,,
0.0367073560366862,-0.00524760686372394,-0.00138592800429649,,
0.0489431413822483,0.00185200474726058,-0.00118633166176352,,
0.0611789267278103,0.00890792294865826,-0.00100746696189979,,
0.0734147120733724,0.0159697993422723,-0.000805088172367796,,
0.0856504974189345,0.0230512171877389,-0.000585805615228807,,
0.0978862827644966,0.0301173494329362,-0.000409337358155959,,
0.110122068110059,0.037202242890529,-0.000216735331453943,,
0.122357853455621,0.044230072471478,-5.21387142145002E-05,,
0.134593638801183,0.0512287140036527,0.000129637100717339,,
0.146829424146745,0.058249131309761,0.000330841794117021,,
0.159065209492307,0.0652233371607625,0.000529360541569268,,
0.171300994837869,0.0722483295073228,0.000694361256963649,,
0.183536780183431,0.0792078172049326,0.000890917816358971,,
0.195772565528993,0.0861964574858869,0.0010762320031974,,
0.208008350874555,0.0931178907772575,0.00126786700894099,,
0.220244136220117,0.100074541240479,0.00147648217895791,,
0.232479921565679,0.106992569850583,0.00162585776568447,,
0.244715706911241,0.113823176176083,0.00180655196465862,,
0.256951492256803,0.120652966796697,0.00200616439070034,,
0.269187277602366,0.127482189970433,0.00220151468694541,,
0.281423062947928,0.134184837025001,0.00238332266889518,,
0.29365884829349,0.140952492212501,0.0025517612342667,,
0.305894633639052,0.147709685098192,0.00274360934650009,,
0.318130418984614,0.154332393073857,0.00295763259630544,,
0.330366204330176,0.16106142640824,0.00310878541073967,,
0.342601989675738,0.167545925603742,0.00329680162703383,,
0.3548377750213,0.174220519503291,0.0034842026491213,,
0.367073560366862,0.180634619820522,0.00363591838635857,,
0.379309345712424,0.187121140545526,0.00385494762823591,,
0.391545131057986,0.193633728361477,0.00399862161114051,,
0.403780916403548,0.199939233532479,0.00417324026471677,,
0.41601670174911,0.206219983833438,0.00436822064026288,,
0.428252487094672,0.212546449073487,0.0045660638803513,,
0.440488272440234,0.218920047869819,0.00472817358506328,,
0.452724057785797,0.224962470482123,0.00487454959742362,,
0.464959843131359,0.231230204970324,0.00505437528692987,,
0.477195628476921,0.237391259445508,0.00524099223797014,,
0.489431413822483,0.24313892887025,0.00541144526280224,,
0.501667199168045,0.24914705641188,0.00558374387025351,,
0.513902984513607,0.255170185830341,0.00573070290980304,,
0.526138769859169,0.261109971488632,0.00590793111265997,,
0.538374555204731,0.266813947503787,0.00608238491027224,,
0.550610340550293,0.272649003747703,0.00623236362857371,,
0.562846125895855,0.278266444114001,0.0064084941319642,,
0.575081911241417,0.283781779507734,0.00654629763420633,,
0.587317696586979,0.289159721826192,0.00669897838196309,,
0.599553481932541,0.294864549011664,0.00686619862155347,,
0.611789267278103,0.300074846243175,0.00702917281485593,,
0.624025052623666,0.305346427737484,0.00720322854562916,,
0.636260837969228,0.310632195403737,0.00731751795820257,,
0.64849662331479,0.31561267664976,0.00748821223566454,,
0.660732408660352,0.320856736970498,0.00763145196383519,,
0.672968194005914,0.325684007559527,0.00777379101552045,,
0.685203979351476,0.330802378396843,0.00791688599211327,,
0.697439764697038,0.33556722982932,0.0080775602436769,,
0.7096755500426,0.340430817018526,0.00820437870950075,,
0.721911335388162,0.345098918758347,0.00835340850079058,,
0.734147120733724,0.349444426948166,0.0084641756249666,,
0.746382906079286,0.354137212627168,0.0086073510191027,,
0.758618691424848,0.358689555203928,0.00873736608227382,,
0.77085447677041,0.363118761808215,0.00889673756963516,,
0.783090262115972,0.367132597297988,0.00900564302768325,,
0.795326047461534,0.371294536422855,0.00911702132518855,,
0.807561832807097,0.375378167878591,0.00924554866380811,,
0.819797618152659,0.379730201707504,0.00937245960980659,,
0.832033403498221,0.38354911919477,0.00949105940270245,,
0.844269188843783,0.387210853896899,0.00959825598795483,,
0.856504974189345,0.391019273616926,0.00973290712249852,,
0.868740759534907,0.394658310443945,0.00985340074853935,,
0.880976544880469,0.398471553462433,0.00997084252881164,,
0.893212330226031,0.401682735343627,0.0100679426914994,,
0.905448115571593,0.405204026943513,0.0101711023160771,,
0.917683900917155,0.408226816461293,0.0102630678186233,,
0.929919686262717,0.411416435361133,0.0103592311169316,,
0.942155471608279,0.414579667981157,0.0104540594840206,,
0.954391256953841,0.417683318679018,0.0105659685373118,,
0.966627042299403,0.42071575479372,0.0106483321851854,,
0.978862827644966,0.423253377231024,0.0107552030793872,,
0.991098612990528,0.426232757062657,0.0108571926287095,,
1.00333439833609,0.428526944789405,0.0109319930066332,,
1.01557018368165,0.431030520414043,0.0110288961463398,,
1.02780596902721,0.4337261768068,0.0110954858930903,,
1.04004175437278,0.436264650414421,0.0111575883409234,,
1.05227753971834,0.437938618703787,0.011247668052079,,
1.0645133250639,0.439728629879653,0.0113290385432925,,
1.07674911040946,0.442082115805126,0.0113873533248348,,
1.08898489575502,0.443645148229892,0.0114640555776582,,
1.10122068110059,0.445812227856024,0.0115006294763624,,
1.11345646644615,0.447255528989584,0.0115709948267719,,
1.12569225179171,0.448687481185589,0.0116507207792242,,
1.13792803713727,0.450234908821217,0.0116955455178736,,
1.15016382248283,0.451758787411418,0.0117573061911473,,
1.1623996078284,0.452963760856323,0.0118197102047679,,
1.17463539317396,0.454267753781395,0.0118684754030403,,
1.18687117851952,0.455065016644636,0.0119142450478233,,
1.19910696386508,0.456146854117068,0.011976508330743,,
1.21134274921064,0.456988661560212,0.0120024791763598,,
1.22357853455621,0.457655127918131,0.0120609266468485,,
1.23581431990177,0.458548005580273,0.012036338982977,,
1.24805010524733,0.458658373997995,0.0121192856580397,,
1.26028589059289,0.458935288074338,0.0121358838389818,,
1.27252167593846,0.459285970244788,0.0121409461233344,,
1.28475746128402,0.459642610607455,0.012183728256383,,
1.29699324662958,0.459709569339029,0.0122069528428956,,
1.30922903197514,0.459745034768889,0.0122048941537862,,
1.3214648173207,0.459397757279705,0.012229437588009,,
1.33370060266627,0.459257030454023,0.0122305674544929,,
1.34593638801183,0.45885158965987,0.0122443630840503,,
1.35817217335739,0.458275914802391,0.0122465826082458,,
1.37040795870295,0.457853450601905,0.0122681666768747,,
1.38264374404851,0.45731721330243,0.0122544313604744,,
1.39487952939408,0.456380642230702,0.0122767874375191,,
1.40711531473964,0.455252557837732,0.0122487418192843,,
1.4193511000852,0.454630919783156,0.0122294054209919,,
1.43158688543076,0.453544259012262,0.012214419611793,,
1.44382267077632,0.452197140124481,0.0122361604946311,,
1.45605845612189,0.450960673377861,0.012219160225972,,
1.46829424146745,0.449391115314001,0.0121948258773621,,
1.48053002681301,0.447926818645964,0.0121745164267955,,
1.49276581215857,0.446065309163501,0.012117769787348,,
1.50500159750413,0.444521569932579,0.0121211030945187,,
1.5172373828497,0.44294917463433,0.0120547505795212,,
1.52947316819526,0.440690452337441,0.0119917554969575,,
1.54170895354082,0.438653034322876,0.0119861222480475,,
1.55394473888638,0.436545536618907,0.0119545221743977,,
1.56618052423194,0.434442578489961,0.0119282578047479,,
1.57841630957751,0.432133069697514,0.0118618329139615,,
1.59065209492307,0.42959062396175,0.0118410047702402,,
1.60288788026863,0.427346371560243,0.0117632249223361,,
1.61512366561419,0.424149375850993,0.0117217616369976,,
1.62735945095976,0.421580543835413,0.0116946287578799,,
1.63959523630532,0.418676350715082,0.0116012639900793,,
1.65183102165088,0.415759390040002,0.0115528847960151,,
1.66406680699644,0.412429611761358,0.0114930219767637,,
1.676302592342,0.409411929265477,0.0114247313989719,,
1.68853837768757,0.406295511012867,0.0113519374387541,,
1.70077416303313,0.402983323587433,0.0112553238022035,,
1.71300994837869,0.399664043076027,0.0112093772388246,,
1.72524573372425,0.395993796670732,0.011105779338636,,
1.73748151906981,0.392403276551761,0.0110603112596399,,
1.74971730441538,0.388607340663045,0.0109579075599697,,
1.76195308976094,0.384958373515665,0.01088549960396,,
1.7741888751065,0.380881551422462,0.0107956732080656,,
1.78642466045206,0.376996242650499,0.0106994898053716,,
1.79866044579762,0.372989500246698,0.0105873274368191,,
1.81089623114319,0.36874698366519,0.0104594152924062,,
1.82313201648875,0.36433111206253,0.0103365694532225,,
1.83536780183431,0.360197545281552,0.0103392553991699,,
1.84760358717987,0.355669319197097,0.0102103299937109,,
1.85983937252543,0.35134594143551,0.0101098442524492,,
1.872075157871,0.346588466812444,0.0100146580272922,,
1.88431094321656,0.341931430286739,0.00990406782171149,,
1.89654672856212,0.337336529194149,0.00976307576387692,,
1.90878251390768,0.332464146578338,0.00966324944647035,,
1.92101829925325,0.327782142390012,0.0095782320196669,,
1.93325408459881,0.322503184086293,0.00944547873914559,,
1.94548986994437,0.317274161107815,0.00930690322848804,,
1.95772565528993,0.312655994693237,0.00917111016482908,,
1.96996144063549,0.307168215938505,0.00906941413954021,,
1.98219722598106,0.301932951044372,0.00894809623367987,,
1.99443301132662,0.296492270380493,0.00878774365228985,,
2.00666879667218,0.291054710674442,0.00867860096248885,,
2.01890458201774,0.285658290867028,0.00855797464750108,,
2.0311403673633,0.280124832638636,0.00838824538055905,,
2.04337615270887,0.274358472932358,0.00825637669301482,,
2.05561193805443,0.268743834335019,0.00814665499690204,,
2.06784772339999,0.263074472579406,0.00799171049530001,,
2.08008350874555,0.257287968508968,0.0078427209127816,,
2.09231929409111,0.251369178385154,0.00771826672273201,,
2.10455507943668,0.245402722723609,0.00753794244445682,,
2.11679086478224,0.239284829676564,0.00739491180189855,,
2.1290266501278,0.233394447362067,0.00721461566976389,,
2.14126243547336,0.227184876178835,0.00709270267408302,,
2.15349822081892,0.221007082020758,0.00691712303086423,,
2.16573400616449,0.214740766149751,0.00678233518649662,,
2.17796979151005,0.208386779736132,0.00660035430682937,,
2.19020557685561,0.202391419749251,0.00644944274502546,,
2.20244136220117,0.195874576081717,0.00630208563863643,,
2.21467714754673,0.189433486572363,0.00612666683050422,,
2.2269129328923,0.183040949236486,0.00595442451533312,,
2.23914871823786,0.176400082960734,0.00579373418026119,,
2.25138450358342,0.16987809680587,0.00562546851260759,,
2.26362028892898,0.16337295673019,0.00547716247920738,,
2.27585607427454,0.156633070974269,0.0053168420648344,,
2.28809185962011,0.150090124750359,0.00512128268297651,,
2.30032764496567,0.143328995201953,0.00495785815143135,,
2.31256343031123,0.136592585058159,0.00475953642696014,,
2.32479921565679,0.129787442911298,0.00464180112265478,,
2.33703500100236,0.123034825066058,0.00441941444834359,,
2.34927078634792,0.116227164873676,0.00424843066772551,,
2.36150657169348,0.109322471265199,0.00405366339866964,,
2.37374235703904,0.102448987234999,0.00390083387845719,,
2.3859781423846,0.0955312423483335,0.00374452227861921,,
2.39821392773017,0.0886458419337001,0.00354722185694811,,
2.41044971307573,0.0816872408718367,0.00334818843721818,,
2.42268549842129,0.0746812579956812,0.00317220268540552,,
2.43492128376685,0.0677186848056736,0.00301365145698584,,
2.44715706911241,0.0607529906578383,0.00280598521398012,,
2.45939285445798,0.0536394765983489,0.00262663800885665,,
2.47162863980354,0.0466647033004697,0.00246226052942289,,
2.4838644251491,0.0395801290317455,0.0023301345057396,,
2.49610021049466,0.0326167401368512,0.00209774388903883,,
2.50833599584022,0.0255505724262241,0.00191315346009047,,
2.52057178118579,0.0184237233651075,0.00171373403615283,,
2.53280756653135,0.0114373174062344,0.00156041396892626,,
2.54504335187691,0.0042707470636752,0.00135939423587672,,
2.55727913722247,-0.00281829584921121,0.00113910243856896,,
2.56951492256803,-0.00987343381115198,0.000988866384128873,,
2.5817507079136,-0.016987799040958,0.000814762402829849,,
2.59398649325916,-0.0240457033064278,0.000595113945868864,,
2.60622227860472,-0.0311572313018451,0.000413832698828553,,
2.61845806395028,-0.0381456233247904,0.000213882519104924,,
2.63069384929584,-0.0452131032563223,4.76232691575262E-05,,
2.64292963464141,-0.05228668324179,-0.000140290414769151,,
2.65516541998697,-0.0592120886613049,-0.00036670198712363,,
2.66740120533253,-0.0663023373988065,-0.000535914571349938,,
2.67963699067809,-0.0732929992092628,-0.000725603472545355,,
2.69187277602366,-0.0803196229655966,-0.000882803686236944,,
2.70410856136922,-0.0871846662234907,-0.00106851996079227,,
2.71634434671478,-0.094159155797931,-0.00129992948346436,,
2.72858013206034,-0.101104067203869,-0.00146147224449589,,
2.7408159174059,-0.107970812802396,-0.00164596617239221,,
2.75305170275147,-0.114888273965622,-0.00183091043853167,,
2.76528748809703,-0.121718632033114,-0.00201979717473222,,
2.77752327344259,-0.128481180198714,-0.00221337426414703,,
2.78975905878815,-0.135309197547835,-0.00239806119414743,,
2.80199484413371,-0.14205287810475,-0.00258326480686399,,
2.81423062947928,-0.148719456817151,-0.00274316705001176,,
2.82646641482484,-0.155415046251176,-0.00293572082618798,,
2.8387022001704,-0.161995443969019,-0.00311197999764756,,
2.85093798551596,-0.168722526704759,-0.00331274641543589,,
2.86317377086152,-0.175248662314917,-0.00348260636088593,,
2.87540955620709,-0.181685850626986,-0.0036558579162258,,
2.88764534155265,-0.188119279603491,-0.00380200875946457,,
2.89988112689821,-0.194546679456919,-0.00400993635948588,,
2.91211691224377,-0.200789800936798,-0.00418683887129268,,
2.92435269758933,-0.207106335856486,-0.00435981700698473,,
2.9365884829349,-0.213511959935981,-0.0045615524561704,,
2.94882426828046,-0.219820266875941,-0.00468499338517425,,
2.96106005362602,-0.225834920056665,-0.00486594894116443,,
2.97329583897158,-0.231972425486423,-0.00506892282051696,,
2.98553162431715,-0.238184337388025,-0.00521624775988894,,
2.99776740966271,-0.244193528892551,-0.00539554671448661,,
3.01000319500827,-0.250183427203233,-0.00553543906241627,,
3.02223898035383,-0.255890027660198,-0.00571615738665354,,
3.03447476569939,-0.261682738180862,-0.00586409148891587,,
3.04671055104496,-0.267656889840686,-0.00604120308633505,,
3.05894633639052,-0.273195171367538,-0.0061899755414867,,
3.07118212173608,-0.278828216522975,-0.00638540625527506,,
3.08341790708164,-0.284568721930886,-0.00651849728947829,,
3.0956536924272,-0.289787956450722,-0.00668299941610417,,
3.10788947777277,-0.295435116847242,-0.00684660086624467,,
3.12012526311833,-0.300663856102281,-0.00701181066725187,,
3.13236104846389,-0.306153620921085,-0.00712355687501764,,
3.14459683380945,-0.311606217969397,-0.00729513976633367,,
3.15683261915501,-0.31661932741089,-0.00743871523774775,,
3.16906840450058,-0.321692018774547,-0.00760168943105022,,
3.18130418984614,-0.326743714603728,-0.00772501777549373,,
3.1935399751917,-0.331564459553663,-0.00787745727062061,,
3.20577576053726,-0.336558275801313,-0.00803319388502421,,
3.21801154588282,-0.341397959290794,-0.0081731525774269,,
3.23024733122839,-0.346159760696303,-0.00830187090771206,,
3.24248311657395,-0.35072777899306,-0.0084630899881315,,
3.25471890191951,-0.355255650423216,-0.00860557379139504,,
3.26695468726507,-0.35949128671133,-0.0087095054243882,,
3.27919047261063,-0.364028946600128,-0.00881908236892315,,
3.2914262579562,-0.368364240746147,-0.00897192395176694,,
3.30366204330176,-0.372486458589571,-0.00908170998191427,,
3.31589782864732,-0.376602718240779,-0.00922102533397062,,
3.32813361399288,-0.380432133495283,-0.00936555174283438,,
3.34036939933844,-0.384621877517159,-0.00945339986716309,,
3.35260518468401,-0.38829808211467,-0.00956177054854779,,
3.36484097002957,-0.39201514288738,-0.00969331756591885,,
3.37707675537513,-0.395563955660836,-0.00978861235475925,,
3.38931254072069,-0.399218810069572,-0.00992041670826938,,
3.40154832606626,-0.402455030544247,-0.0099979231365257,,
3.41378411141182,-0.406088109179049,-0.0101569709432758,,
3.42601989675738,-0.409488534593973,-0.010216916190509,,
3.43825568210294,-0.412616798300156,-0.0103152849399426,,
3.4504914674485,-0.415622919065903,-0.010418764224255,,
3.46272725279407,-0.418751253702946,-0.0105199294937579,,
3.47496303813963,-0.421755672128059,-0.0106207087590531,,
3.48719882348519,-0.424461187910317,-0.0107268438327335,,
3.49943460883075,-0.426758212871454,-0.0108149633662706,,
3.51167039417631,-0.429759723131319,-0.0108727051728166,,
3.52390617952188,-0.432048732905308,-0.0109677446359568,,
3.53614196486744,-0.434605152020437,-0.0110527922193389,,
3.548377750213,-0.436636895566225,-0.011103921693385,,
3.56061353555856,-0.439195300745427,-0.0112047471987671,,
3.57284932090412,-0.440959138434057,-0.0112631001786427,,
3.58508510624969,-0.442850438877601,-0.0113182646029251,,
3.59732089159525,-0.445065751488342,-0.01138806904097,,
3.60955667694081,-0.446651765511657,-0.011473520722507,,
3.62179246228637,-0.448121452925033,-0.0115606129219281,,
3.63402824763193,-0.45005751074106,-0.0115890163982306,,
3.6462640329775,-0.451363206006766,-0.0116518546665847,,
3.65849981832306,-0.452534132639005,-0.0116677612566547,,
3.67073560366862,-0.453999635131658,-0.0117637134589113,,
3.68297138901418,-0.455182123494031,-0.0118164673673329,,
3.69520717435974,-0.455922216084339,-0.0118535398548056,,
3.70744295970531,-0.457034908480749,-0.0118858375506434,,
3.71967874505087,-0.457902818480269,-0.0119445926182356,,
3.73191453039643,-0.458561624305339,-0.0119956396642995,,
3.74415031574199,-0.459341296315369,-0.0120140874487387,,
3.75638610108756,-0.459696518060841,-0.0120379553755972,,
3.76862188643312,-0.460131466092637,-0.0120791452412883,,
3.78085767177868,-0.460064507361063,-0.0120778585605952,,
3.79309345712424,-0.460467962091144,-0.0121014209007897,,
3.8053292424698,-0.460446399109789,-0.012121621787673,,
3.81756502781537,-0.460224030864571,-0.0121703226519103,,
3.82980081316093,-0.459959529688679,-0.0121659157705363,,
3.84203659850649,-0.459689708698308,-0.0121922766412381,,
3.85427238385205,-0.459655378162204,-0.0121711911613782,,
3.86650816919761,-0.459198654356474,-0.0121982114559356,,
3.87874395454318,-0.458558503347511,-0.0121841383858539,,
3.89097973988874,-0.457730030905994,-0.0122118502712834,,
3.9032155252343,-0.456892479314433,-0.0121895585282736,,
3.91545131057986,-0.455921293983162,-0.0122081510642906,,
3.92768709592542,-0.454828887812631,-0.012208890905689,,
3.93992288127099,-0.453736268849521,-0.0121684247978879,,
3.95215866661655,-0.452716850533641,-0.0121560244127075,,
3.96439445196211,-0.451245531710492,-0.0121660444386058,,
3.97663023730767,-0.449768680280285,-0.0121389276429964,,
3.98886602265323,-0.448244305174066,-0.0120958720902999,,
4.0011018079988,-0.446391874841647,-0.0120844849661652,,
4.01333759334436,-0.44472812059608,-0.0120443405285373,,
4.02557337868992,-0.442820647916519,-0.0120054526150239,,
4.03780916403548,-0.440705773403141,-0.0119701312195568,,
4.05004494938104,-0.438619554957088,-0.0119621558096976,,
4.06228073472661,-0.436374096730967,-0.0119103990788139,,
4.07451652007217,-0.434452437879462,-0.0118433770877679,,
4.08675230541773,-0.432206270344744,-0.0118177078079387,,
4.09898809076329,-0.429493590545654,-0.0117627806154088,,
4.11122387610886,-0.426941214489529,-0.0117298918506275,,
4.12345966145442,-0.424180017982392,-0.0116670053317471,,
4.13569544679998,-0.421390803785665,-0.0115908660017272,,
4.14793123214554,-0.418633295683233,-0.0115623016903381,,
4.1601670174911,-0.415501769157503,-0.0114997529251397,,
4.17240280283667,-0.412243205462017,-0.0114017078563178,,
4.18463858818223,-0.40930269574151,-0.0113459604048463,,
4.19687437352779,-0.405798427547957,-0.0112788278396785,,
4.20911015887335,-0.402271177755855,-0.0112304486456138,,
4.22134594421891,-0.399100284602982,-0.0111504191169356,,
