Time domain (s),Current (AC) (A),Potential (AC) (V),Frequency (Hz),Column 5
0,-0.155854278951501,-0.00216747033522813,7943.3,0.3
3.93413316883411E-06,-0.148940559092766,-0.00192747053749232,,
7.86826633766822E-06,-0.136198006951238,-0.00161872801711427,,
1.18023995065023E-05,-0.118354580738369,-0.00124718279588754,,
1.57365326753364E-05,-0.0958281466230291,-0.000819990992162456,,
1.96706658441706E-05,-0.0696373439279034,-0.000367967162051563,,
2.36047990130047E-05,-0.0408579341940456,9.72304313870964E-05,,
2.75389321818388E-05,-0.0109747570977857,0.000539638227463612,,
3.14730653506729E-05,0.0185443684639,0.000955384307803175,,
3.5407198519507E-05,0.0481886993613707,0.00137714433677782,,
3.93413316883411E-05,0.0763377366854048,0.00174211006902514,,
4.32754648571752E-05,0.101736578210119,0.00202621831732097,,
4.72095980260093E-05,0.123125227547298,0.00222748044960275,,
5.11437311948435E-05,0.139772756902711,0.00234022258071143,,
5.50778643636776E-05,0.150839015778866,0.0023770048811822,,
5.90119975325117E-05,0.156261377364923,0.00229504588727814,,
6.29461307013458E-05,0.155572144444369,0.00215527610256228,,
6.68802638701799E-05,0.148540631135327,0.00190456060901045,,
7.0814397039014E-05,0.136215341588934,0.00159441532679683,,
7.47485302078481E-05,0.118174377763764,0.00123770722285332,,
7.86826633766822E-05,0.0958562248732254,0.000807231219151827,,
8.26167965455164E-05,0.0698357506863841,0.000386191976891048,,
8.65509297143505E-05,0.0412764280796022,-9.58091878411338E-05,,
9.04850628831846E-05,0.0115760855394356,-0.000546762926906919,,
9.44191960520187E-05,-0.0179899256300586,-0.000942058994448658,,
9.83533292208528E-05,-0.0479012051194641,-0.0013620614127432,,
0.000102287462389687,-0.0763219471964724,-0.00174143733475907,,
0.000106221595558521,-0.101818302093966,-0.00204061002537914,,
0.000110155728727355,-0.123382784531902,-0.00223077758677714,,
0.000114089861896189,-0.140091009262201,-0.00233460783702633,,
0.000118023995065023,-0.151257702808018,-0.00236155971561969,,
0.000121958128233857,-0.156587355468233,-0.00232071883149709,,
0.000125892261402692,-0.155807200200097,-0.00217085988095533,,
0.000129826394571526,-0.148874407411306,-0.00192855356573407,,
0.00013376052774036,-0.1362125410068,-0.00160480944084851,,
0.000137694660909194,-0.118319332032189,-0.00124003776656245,,
0.000141628794078028,-0.0958255391844898,-0.000830749195912528,,
0.000145562927246862,-0.0696764072200939,-0.000360426624119725,,
0.000149497060415696,-0.0408623282108433,0.000125250552854173,,
0.00015343119358453,-0.0109645687731229,0.000560653780606657,,
0.000157365326753364,0.0185535669276359,0.000969149485871235,,
0.000161299459922199,0.0481119489251076,0.00137930669692032,,
0.000165233593091033,0.0764266310252352,0.00174111944933575,,
0.000169167726259867,0.101682160002086,0.00201670762903694,,
0.000173101859428701,0.123152146935922,0.00221644686836431,,
0.000177035992597535,0.139711578668835,0.0023425106164856,,
0.000180970125766369,0.151040367977178,0.00238526250948601,,
0.000184904258935203,0.156244235870822,0.00229597736549314,,
0.000188838392104037,0.155482042957067,0.00216791019994078,,
0.000192772525272871,0.14861438784586,0.00191228596404835,,
0.000196706658441706,0.136040691492701,0.00160793654628444,,
0.00020064079161054,0.118274667575729,0.00125150197165835,,
0.000204574924779374,0.0958504547083097,0.000813228534247035,,
0.000208509057948208,0.0697765038884634,0.000337108249833129,,
0.000212443191117042,0.0412080311038446,-9.95018336222842E-05,,
0.000216377324285876,0.0116109479584239,-0.000536980557477307,,
0.00022031145745471,-0.0179624026676993,-0.000946132363468521,,
0.000224245590623544,-0.0478894716460373,-0.00135450793761382,,
0.000228179723792378,-0.076257582093271,-0.00173556015078269,,
0.000232113856961213,-0.101807775768011,-0.00201043678462476,,
0.000236047990130047,-0.123320012863363,-0.00223068702639528,,
0.000239982123298881,-0.140048903958381,-0.00236198849130576,,
0.000243916256467715,-0.151258282238805,-0.00236936084567141,,
0.000247850389636549,-0.156561812227728,-0.00229965707407764,,
0.000251784522805383,-0.155790686422681,-0.00215233011789051,,
0.000255718655974217,-0.148953934286755,-0.0019132137459219,,
0.000259652789143051,-0.136256626032473,-0.00159162274032276,,
0.000263586922311885,-0.11839147116511,-0.00124039076723559,,
0.00026752105548072,-0.0958087839775799,-0.000815915774971199,,
0.000271455188649554,-0.0695533747497583,-0.000364272668099019,,
0.000275389321818388,-0.0408577410504501,0.000105059284004838,,
0.000279323454987222,-0.0110309618840771,0.000543269883599873,,
0.000283257588156056,0.0185318382731417,0.000945936457335428,,
0.00028719172132489,0.0481582068162306,0.00137114517351122,,
0.000291125854493724,0.0763763895474549,0.00172010204802175,,
0.000295059987662558,0.101763497598742,0.0020308720120541,,
0.000298994120831392,0.123111876496259,0.00221633967444257,,
0.000302928254000227,0.139786735670435,0.00243101952863301,,
0.000306862387169061,0.150957243802263,0.00237731167757849,,
0.000310796520337895,0.156253796478799,0.00232314548010093,,
0.000314730653506729,0.155441362087264,0.00217996766794748,,
0.000318664786675563,0.148613397984933,0.00192917824755279,,
0.000322598919844397,0.13602613329419,0.00161631985022037,,
0.000326533053013231,0.118345044273341,0.00123816187293446,,
0.000330467186182065,0.0958733905102757,0.000799187978691052,,
0.000334401319350899,0.069821578775064,0.000360062534420003,,
0.000338335452519734,0.0412756072193213,-0.000107027586186081,,
0.000342269585688568,0.0115262303488463,-0.00053818741318068,,
0.000346203718857402,-0.0179907464903394,-0.000962418446864621,,
0.000350137852026236,-0.0478519535026108,-0.00136447327597899,,
0.00035407198519507,-0.076358644479618,-0.00172693658460865,,
0.000358006118363904,-0.10184906021155,-0.00205913978844396,,
0.000361940251532738,-0.123262407786005,-0.00221914704628556,,
0.000365874384701572,-0.140185070193211,-0.00231879673359314,,
0.000369808517870407,-0.151310913868579,-0.00241098165798181,,
0.000373742651039241,-0.156591556341435,-0.00232177228900232,,
0.000377676784208075,-0.155772096351614,-0.00214855984892459,,
0.000381610917376909,-0.148949588555856,-0.00191815760351188,,
0.000385545050545743,-0.136323212287023,-0.00162644967581027,,
0.000389479183714577,-0.118305522265111,-0.00121055389361446,,
0.000393413316883411,-0.0958588564547141,-0.000823393475086753,,
0.000397347450052245,-0.0696427036626786,-0.000353619810099293,,
0.000401281583221079,-0.0408718888188207,0.00011366806481039,,
0.000405215716389913,-0.0109751433849767,0.000538830576709781,,
0.000409149849558748,0.0184925335514568,0.000943432185546822,,
0.000413083982727582,0.0481811426181966,0.00136755602530947,,
0.000417018115896416,0.0763457038587193,0.00174735887484045,,
0.00042095224906525,0.101705892521383,0.00202000476621134,,
0.000424886382234084,0.123086164255108,0.00224167440335687,,
0.000428820515402918,0.139816045211053,0.00235280123295745,,
0.000432754648571752,0.150824071293164,0.00237615102615152,,
0.000436688781740586,0.156166278287087,0.00230983864845635,,
0.000440622914909421,0.155540058464566,0.00214810150250067,,
0.000444557048078255,0.148764122418274,0.00189694614423574,,
0.000448491181247089,0.136134583423065,0.00163129003582041,,
0.000452425314415923,0.118240167300982,0.00124009875620734,,
0.000456359447584757,0.0958271326191527,0.000802791912261291,,
0.000460293580753591,0.0698128148844181,0.000377551777177576,,
0.000464227713922425,0.0412756072193213,-7.27015050561164E-05,,
0.000468161847091259,0.0116045742197723,-0.00053096845701317,,
0.000472095980260093,-0.0180060531202831,-0.000960098992182079,,
0.000476030113428928,-0.0478455797639592,-0.0013526135622759,,
0.000479964246597762,-0.0762375917311364,-0.00174302491370115,,
0.000483898379766596,-0.101723806589866,-0.00203131557310954,,
0.00048783251293543,-0.123319819719768,-0.00224066899829989,,
0.000491766646104264,-0.140043544223606,-0.00233477417242156,,
0.000495700779273098,-0.151327282788298,-0.00236401963130284,,
0.000499634912441932,-0.156585568889975,-0.00231412455714874,,
0.000503569045610766,-0.15590628286459,-0.00217749666323819,,
0.0005075031787796,-0.148967309480743,-0.00193120938754987,,
0.000511437311948435,-0.136397958858483,-0.00161596500137717,,
0.000515371445117269,-0.118385097426458,-0.00120940802755642,,
0.000519305578286103,-0.0958165580072989,-0.000785450523189457,,
0.000523239711454937,-0.0696823946715545,-0.000342830187440857,,
0.000527173844623771,-0.0408722751060117,9.18725834790912E-05,,
0.000531107977792605,-0.0109557807395275,0.000544310403907566,,
0.000535042110961439,0.0185774925905288,0.000940305080110448,,
0.000538976244130273,0.0481047784691245,0.00135542463046034,,
0.000542910377299107,0.07628768835122,0.00173642879118141,,
0.000546844510467942,0.101775665645259,0.00202908667880841,,
0.000550778643636776,0.123145555910725,0.00223517253756178,,
0.00055471277680561,0.139628623494566,0.00235467897475639,,
0.000558646909974444,0.151048359293442,0.0023706102093084,,
0.000562581043143278,0.156118644247846,0.00231423359924099,,
0.000566515176312112,0.155412462976787,0.00216249505872979,,
0.000570449309480946,0.148624962457714,0.00190756943149895,,
0.00057438344264978,0.136170266702334,0.00161389135344514,,
0.000578317575818614,0.118116772686405,0.00123570380542226,,
0.000582251708987449,0.0958500684211187,0.000828997129745712,,
0.000586185842156283,0.0698753934093611,0.000338176492706843,,
0.000590119975325117,0.0412514884128328,-0.000104249785080057,,
0.000594054108493951,0.0115776789740985,-0.000508807037812087,,
0.000597988241662785,-0.017977323010452,-0.000960328165393598,,
0.000601922374831619,-0.0479159806045201,-0.00137144827356606,,
0.000605856508000453,-0.0762737095834955,-0.00175831668106596,,
0.000609790641169287,-0.101783874248068,-0.00201426619506506,,
0.000613724774338121,-0.123394373147632,-0.00222879265105691,,
0.000617658907506956,-0.139984683712877,-0.00235669348121403,,
0.00062159304067579,-0.151334670530826,-0.00235646430800251,,
0.000625527173844624,-0.156586003463065,-0.00231188272565097,,
0.000629461307013458,-0.155767316047625,-0.00214648435282205,,
0.000633395440182292,-0.148968902915406,-0.0019346747082909,,
0.000637329573351126,-0.136298103619608,-0.00161584302208695,,
0.00064126370651996,-0.118351780156234,-0.00124966858596531,,
0.000645197839688794,-0.0957432117269065,-0.00083212423518253,,
0.000649131972857628,-0.0695819117159939,-0.000342800616703887,,
0.000653066106026463,-0.0408838637217419,9.18577981106061E-05,,
0.000657000239195297,-0.0109946508881225,0.000553251855504477,,
0.000660934372364131,0.0185100854756982,0.000968983150475555,,
0.000664868505532965,0.0481639769811463,0.00136071779238112,,
0.000668802638701799,0.0763614692047023,0.00174885589340024,,
0.000672736771870633,0.101663811360513,0.00202179009945702,,
0.000676670905039467,0.123251036456819,0.0022288998449782,,
0.000680605038208301,0.139717348833751,0.00236658119639399,,
0.000684539171377135,0.150911589484876,0.00238601286693729,,
0.000688473304545969,0.156284095880344,0.00232070589429911,,
0.000692407437714804,0.155515529227937,0.00215014927603718,,
0.000696341570883638,0.148648115546225,0.00192501246997967,,
0.000700275704052472,0.136155539503177,0.00159182049462592,,
0.000704209837221306,0.118248134474297,0.00121095309856356,,
0.00070814397039014,0.0958670167716241,0.000802226371916515,,
0.000712078103558974,0.0697972426820306,0.000370011239245738,,
0.000716012236727808,0.0412873648356976,-8.91853427558154E-05,,
0.000719946369896642,0.0115487557206719,-0.000529532428098278,,
0.000723880503065477,-0.017921311367756,-0.000932274776847652,,
0.000727814636234311,-0.0478412340330604,-0.00137856188398278,,
0.000731748769403145,-0.0763062059934389,-0.00173755987187141,,
0.000735682902571979,-0.101793000282955,-0.00195662173964894,,
0.000739617035740813,-0.123321799441622,-0.00221907127127219,,
0.000743551168909647,-0.140008054087933,-0.00234726041611477,,
0.000747485302078481,-0.151292613512905,-0.00236742211422758,,
0.000751419435247315,-0.156668330920648,-0.00231971157826827,,
0.000755353568416149,-0.155806813912906,-0.00216519708482243,,
0.000759287701584984,-0.148965329758889,-0.00190628495261125,,
0.000763221834753818,-0.136231517365058,-0.00159293494177648,,
0.000767155967922652,-0.118429182452132,-0.00123808424975058,,
0.000771090101091486,-0.0958482818428603,-0.000818037475350142,,
0.00077502423426032,-0.069558155053747,-0.000366242818451212,,
0.000778958367429154,-0.0408180500415742,0.000115314785226417,,
0.000782892500597988,-0.0109743225246958,0.000546827612893708,,
0.000786826633766822,0.0185461791851079,0.000963015406117318,,
0.000790760766935656,0.0482048509945447,0.00136578917377461,,
0.000794694900104491,0.0763644387874831,0.00173656555583968,,
0.000798629033273325,0.101775255215119,0.00201640083264065,,
0.000802563166442159,0.123165497986961,0.00221717874410476,,
0.000806497299610993,0.139690236301532,0.00234146085532272,,
0.000810431432779827,0.150896451855579,0.00238213540404963,,
0.000814365565948661,0.156259590786664,0.00231085883888227,,
0.000818299699117495,0.155380956427771,0.00215019363214264,,
0.000822233832286329,0.148736816742459,0.00192988055255627,,
0.000826167965455163,0.136134003992278,0.00161375458878688,,
0.000830102098623998,0.118180341072275,0.00120977396542621,,
0.000834036231792832,0.0958737767974667,0.000806255384830923,,
0.000837970364961666,0.0698550891888838,0.000353057966095971,,
0.0008419044981305,0.0412782146578606,-8.98118727459263E-05,,
0.000845838631299334,0.0116069643717667,-0.000524329826559367,,
0.000849772764468168,-0.0179939333596652,-0.000940593394796352,,
0.000853706897637002,-0.0478521949321052,-0.00136485399921771,,
0.000857641030805836,-0.0763058197062479,-0.00173295053324329,,
0.00086157516397467,-0.101788026835371,-0.00203597111601406,,
0.000865509297143505,-0.12334251409224,-0.00222232220416974,,
0.000869443430312339,-0.140027368447483,-0.00234400948321722,,
0.000873377563481173,-0.151275472018804,-0.00238626976271528,,
0.000877311696650007,-0.156656935448513,-0.00231124141029238,,
0.000881245829818841,-0.155850078078299,-0.0021630143947986,,
0.000885179962987675,-0.14888454745007,-0.00192080233630154,,
0.000889114096156509,-0.136261985767248,-0.00160512917444189,,
0.000893048229325343,-0.118400210912806,-0.00122770676923878,,
0.000896982362494177,-0.0957910630526925,-0.000809948030612961,,
0.000900916495663012,-0.0696277833199259,-0.000352034079328156,,
0.000904850628831846,-0.040844945287248,0.000107197617923216,,
0.00090878476200068,-0.0109847039929541,0.000561555688084692,,
0.000912718895169514,0.0184929439815973,0.000953245973884798,,
0.000916653028338348,0.0480955800053887,0.00135018691367117,,
0.000920587161507182,0.076405505944477,0.00174395454374476,,
0.000924521294676016,0.101785636683377,0.00201763910725195,,
0.00092845542784485,0.123082180668451,0.00224831673015302,,
0.000932389561013684,0.139807836608244,0.00236058203312739,,
0.000936323694182519,0.151061903488077,0.00237027753851748,,
0.000940257827351353,0.156241869861777,0.00231371241500167,,
0.000944191960520187,0.15550039159864,0.00217371345707429,,
0.000948126093689021,0.148533460679344,0.00191713556491457,,
0.000952060226857855,0.136105104881801,0.00162361273323031,,
0.000955994360026689,0.118283045179184,0.00122256700551571,,
0.000959928493195523,0.0958028206690687,0.00080767662837733,,
0.000963862626364357,0.069837126834502,0.000376575942856672,,
0.000967796759533191,0.0412361334969903,-8.09757668993605E-05,,
0.000971730892702026,0.011586418721795,-0.000534036420975603,,
0.00097566502587086,-0.0179869319043283,-0.000941905596250514,,
0.000979599159039694,-0.0478888439293519,-0.00137663793790743,,
0.000983533292208528,-0.0762792624618662,-0.00174914420808658,,
0.000987467425377362,-0.101834284726494,-0.00203436875170349,,
0.000991401558546196,-0.12331243197724,-0.00224146186368523,,
0.00099533569171503,-0.139907136559282,-0.00235722575447994,,
0.000999269824883864,-0.151342830847736,-0.00239291024134003,,
0.0010032039580527,-0.156535351555144,-0.00230815681279051,,
0.00100713809122153,-0.155791265853468,-0.00214564343498891,,
0.00101107222439037,-0.148974697223271,-0.00191623550560793,,
0.0010150063575592,-0.136226543917474,-0.00162143004320647,,
0.00101894049072803,-0.118373170809436,-0.0012187782548394,,
0.00102287462389687,-0.0957248630853337,-0.000798424684042676,,
0.0010268087570657,-0.0695650116513874,-0.000352536781857093,,
0.00103074289023454,-0.040836012395956,0.000114017369141184,,
0.00103467702340337,-0.0110024249178415,0.000532343496282728,,
0.00103861115657221,0.0185802690297142,0.000979039049222585,,
0.00104254528974104,0.0481725477281967,0.00136424410276703,,
0.00104647942290987,0.0763443035676519,0.00172889194959147,,
0.00105041355607871,0.101663207786777,0.00201316653328254,,
0.00105434768924754,0.12303152876053,0.00223804459539156,,
0.00105828182241638,0.139689825871391,0.00234454360465364,,
0.00106221595558521,0.150999324963134,0.00238546211196056,,
0.00106615008875404,0.156220913781665,0.00233152139135262,,
0.00107008422192288,0.15545872086791,0.00214800909394786,,
0.00107401835509171,0.148499974408474,0.00193755785514682,,
0.00107795248826055,0.136136997718008,0.00160207784401889,,
0.00108188662142938,0.118222422233146,0.00125403396601298,,
0.00108582075459821,0.0957808747280297,0.000789817751408073,,
0.00108975488776705,0.0699085175359899,0.000364976821273455,,
0.00109368902093588,0.0412678331896023,-7.70983040121465E-05,,
0.00109762315410472,0.0115379879652226,-0.00052025276119716,,
0.00110155728727355,-0.0179340588450592,-0.000951368232086303,,
0.00110549142044239,-0.0478922722281721,-0.00138066695082184,,
0.00110942555361122,-0.0762647284063046,-0.00173710152544793,,
0.00111335968678005,-0.101765091033405,-0.00201061975355987,,
0.00111729381994889,-0.123425082979317,-0.00223984471400618,,
0.00112122795311772,-0.139977923687034,-0.00235562339016937,,
0.00112516208628656,-0.151272478293074,-0.00239440541172886,,
0.00112909621945539,-0.156564033379076,-0.00232212344150406,,
0.00113303035262422,-0.155905124003017,-0.00217800121393807,,
0.00113696448579306,-0.148876773420351,-0.00192957560433138,,
0.00114089861896189,-0.136327413160225,-0.00159406417429553,,
0.00114483275213073,-0.118337632387863,-0.00121212483901711,,
0.00114876688529956,-0.0957778810022994,-0.000816098743906313,,
0.00115270101846839,-0.069595093766387,-0.000367645580286791,,
0.00115663515163723,-0.0408603484889894,0.000117101966643052,,
0.00116056928480606,-0.0110297547366053,0.000541379204603842,,
0.0011645034179749,0.0185178595054172,0.000951322027809454,,
0.00116843755114373,0.0482196023366512,0.00142967305469499,,
0.00117237168431257,0.0764752790683526,0.00170735706038005,,
0.0011763058174814,0.101728997323996,0.00203304176488084,,
0.00118023995065023,0.123167091421624,0.00223553847543201,,
0.00118417408381907,0.139833162562204,0.0023497443580216,,
0.0011881082169879,0.150874723201085,0.00239510586856095,,
0.00119204235015674,0.156348122982253,0.00230287843623778,,
0.00119597648332557,0.15546987491055,0.00215329116684204,,
0.0011999106164944,0.148712287505831,0.00191227117867987,,
0.00120384474966324,0.136040474206156,0.00159530244890638,,
0.00120777888283207,0.118271263419858,0.00124229807977061,,
0.00121171301600091,0.0957982335086755,0.000812008741346126,,
0.00121564714916974,0.069837126834502,0.000356551009403017,,
0.00121958128233857,0.0412650326074675,-8.56294616329301E-05,,
0.00122351541550741,0.0115200256108408,-0.00052190132978458,,
0.00122744954867624,-0.0179677624024746,-0.000949475704919323,,
0.00123138368184508,-0.0478611278233972,-0.00138463497409136,,
0.00123531781501391,-0.0762918650814728,-0.0017282192153254,,
0.00123925194818275,-0.101850219073123,-0.0020345517206386,,
0.00124318608135158,-0.123369071336621,-0.00222207824558973,,
0.00124712021452041,-0.140077006351527,-0.00236024936233692,,
0.00125105434768925,-0.151374168396107,-0.00237928182793068,,
0.00125498848085808,-0.156579388294919,-0.00231286040814238,,
