Time domain (s),Current (AC) (A),Potential (AC) (V),Frequency (Hz),Column 5
0,0.0472109099091356,0.00106699823846634,3981.1,0.3
7.84958930948733E-06,0.0895182902156352,0.00166167763016523,,
1.56991786189747E-05,0.128639259912371,0.0021671864020818,,
2.3548767928462E-05,0.16279484577001,0.00261961018521495,,
3.13983572379493E-05,0.190554674606156,0.00293141660315221,,
3.92479465474366E-05,0.210803873301664,0.00314700943070889,,
4.7097535856924E-05,0.222953740177441,0.00326542933618157,,
5.49471251664113E-05,0.226445776384139,0.00323998195582664,,
6.27967144758986E-05,0.220942270345022,0.00305057740787884,,
7.0646303785386E-05,0.207220142173001,0.00279590878619862,,
7.84958930948733E-05,0.185544384881106,0.0024286323332734,,
8.63454824043606E-05,0.156506766303009,0.00193489529930524,,
9.41950717138479E-05,0.121614506629171,0.00139864658782063,,
0.000102044661023335,0.0822165931594333,0.000814292557040908,,
0.000109894250332823,0.0397224429960821,0.000176248420556302,,
0.00011774383964231,-0.00325543530220696,-0.000416845859989579,,
0.000125593428951797,-0.0466892773435802,-0.00104200543374899,,
0.000133443018261285,-0.089406749789232,-0.00165287096512756,,
0.000141292607570772,-0.128754977069027,-0.00215829708692805,,
0.000149142196880259,-0.163053899617479,-0.00261114297601051,,
0.000156991786189747,-0.190920416147191,-0.00292626425395692,,
0.000164841375499234,-0.211320532419635,-0.00314411372485912,,
0.000172690964808721,-0.223672403353359,-0.00325702263866967,,
0.000180540554118209,-0.226842034613264,-0.00322790618352276,,
0.000188390143427696,-0.221477905821251,-0.0030773855633579,,
0.000196239732737183,-0.207434193562717,-0.00278986794825675,,
0.000204089322046671,-0.185617079301863,-0.00242412937784664,,
0.000211938911356158,-0.156474366464864,-0.00194523689506854,,
0.000219788500665645,-0.121409484702544,-0.00141981239698818,,
0.000227638089975133,-0.0816850136987095,-0.000796673323385733,,
0.00023548767928462,-0.0390419015373265,-0.000167307449080223,,
0.000243337268594107,0.00406876298287106,0.000443934435505167,,
0.000251186857903595,0.047188770824501,0.00105745510185962,,
0.000259036447213082,0.0896379185301,0.00163732536384709,,
0.000266886036522569,0.128680737499505,0.00215655995859754,,
0.000274735625832057,0.162759959208073,0.00260737501625874,,
0.000282585215141544,0.190381617944585,0.00294194563757122,,
0.000290434804451031,0.210710584945036,0.00318450011367943,,
0.000298284393760518,0.22306458045831,0.00323480156462796,,
0.000306133983070006,0.226294062089872,0.00320683040394565,,
0.000313983572379493,0.221058880790807,0.00308837507699478,,
0.00032183316168898,0.207179678589743,0.00280370741500002,,
0.000329682750998468,0.185483375647876,0.0024161757800778,,
0.000337532340307955,0.156535061839751,0.0019258155937063,,
0.000345381929617442,0.121823439713607,0.00141244620540082,,
0.00035323151892693,0.0821300648286478,0.000791562299248927,,
0.000361081108236417,0.039731206886728,0.000183890604495307,,
0.000368930697545904,-0.00328334455175717,-0.000416456223728545,,
0.000376780286855392,-0.0466900499179623,-0.00105643673435862,,
0.000384629876164879,-0.0894925055456355,-0.00165050805734701,,
0.000392479465474366,-0.128872022087902,-0.00218687779221582,,
0.000400329054783854,-0.162948250070739,-0.00259090993243749,,
0.000408178644093341,-0.190997625299493,-0.00294589956008418,,
0.000416028233402828,-0.211257567607501,-0.00318014327185079,,
0.000423877822712316,-0.223554972047293,-0.00325508626452375,,
0.000431727412021803,-0.226710020965737,-0.00321023529354525,,
0.00043957700133129,-0.221458108602712,-0.00305573861244346,,
0.000447426590640778,-0.207528495923222,-0.00280750341675562,,
0.000455276179950265,-0.185567441397819,-0.00241531828512409,,
0.000463125769259752,-0.156315892144753,-0.00192390873745829,,
0.00047097535856924,-0.121366606824343,-0.00139636190247128,,
0.000478824947878727,-0.0816825994037657,-0.00079314003092712,,
0.000486674537188214,-0.039034320651203,-0.000158130334415585,,
0.000494524126497702,0.00406079580955655,0.000420472133828564,,
0.000502373715807189,0.0472085197571412,0.00103973255555978,,
0.000510223305116676,0.0895687489799604,0.00162719777284881,,
0.000518072894426164,0.128652804107005,0.00216009620284607,,
0.000525922483735651,0.162779273567623,0.0025982333230723,,
0.000533772073045138,0.190496248668516,0.00292484591893105,,
0.000541621662354626,0.210694022881722,0.00313211469909191,,
0.000549471251664113,0.222740219932612,0.00325872582141695,,
0.0005573208409736,0.226307413140911,0.00322744865609481,,
0.000565170430283088,0.221014433620892,0.00306447443452473,,
0.000573020019592575,0.207260605756259,0.0028001859297011,,
0.000580869608902062,0.18554636460296,0.00240871660711006,,
0.00058871919821155,0.156545853738149,0.00196972937140494,,
0.000596568787521037,0.121643429882598,0.00143558823787782,,
0.000604418376830524,0.0821881044790966,0.00080019038100021,,
0.000612267966140012,0.0397375806253796,0.00019671317963299,,
0.000620117555449499,-0.0032496651372913,-0.000424378827704075,,
0.000627967144758986,-0.0467373218129617,-0.00107348774846638,,
0.000635816734068474,-0.0894216701319847,-0.00163873336760867,,
0.000643666323377961,-0.128870863226329,-0.00214525607934091,,
0.000651515912687448,-0.16305771420349,-0.00258741353735203,,
0.000659365501996936,-0.190938426787472,-0.00294407092626781,,
0.000667215091306423,-0.211252787303513,-0.00317959276304247,,
0.00067506468061591,-0.223114363220051,-0.00322960051090027,,
0.000682914269925398,-0.226792589852815,-0.00321333024520998,,
0.000690763859234885,-0.221567186448273,-0.0030626251381789,,
0.000698613448544372,-0.207489625774627,-0.00281034303859773,,
0.00070646303785386,-0.185661985187818,-0.00243322236650023,,
0.000714312627163347,-0.156481754207392,-0.00197144288541651,,
0.000722162216472834,-0.12130142086086,-0.00139384992930358,,
0.000730011805782322,-0.0816522758592717,-0.000804449813763153,,
0.000737861395091809,-0.0391150546741233,-0.000169404695773423,,
0.000745710984401296,0.00403288656000633,0.000443776514747807,,
0.000753560573710783,0.0471919818367763,0.00105169025626939,,
0.000761410163020271,0.0895799030226007,0.00163643687510007,,
0.000769259752329758,0.128752900775375,0.00218357769115629,,
0.000777109341639245,0.162748781022483,0.00261428515631312,,
0.000784958930948733,0.190382414661917,0.00294067931972242,,
0.00079280852025822,0.210691053298941,0.00314837315762251,,
0.000800658109567707,0.222728462316236,0.00325260676104389,,
0.000808507698877195,0.226360624201472,0.0032108743560495,,
0.000816357288186682,0.221022014507015,0.00308576569476138,,
0.000824206877496169,0.207258239747214,0.00275847713902522,,
0.000832056466805657,0.185557156501358,0.00240353621591138,,
0.000839906056115144,0.156547833460003,0.00193970966856183,,
0.000847755645424631,0.121679137304816,0.00140570136557816,,
0.000855605234734119,0.0822185970242366,0.000812086094122755,,
0.000863454824043606,0.0397194492703518,0.000171690857017737,,
0.000871304413353093,-0.00322395289613993,-0.000441063819869303,,
0.000879154002662581,-0.0467766265346466,-0.00108037427420182,,
0.000887003591972068,-0.0894196904101308,-0.0016494705032124,,
0.000894853181281555,-0.128822818756947,-0.00218046650464698,,
0.000902702770591043,-0.162873117212088,-0.00259643125536435,,
0.00091055235990053,-0.190766528987474,-0.0029483967743027,,
0.000918401949210017,-0.21128470428267,-0.00316496812019729,,
0.000926251538519505,-0.223462842552238,-0.00325386717531284,,
0.000934101127828992,-0.226867384710174,-0.00322564068480746,,
0.000941950717138479,-0.221454149159004,-0.00306614662347826,,
0.000949800306447967,-0.207486197475806,-0.00278836991490428,,
0.000957649895757454,-0.185504283442089,-0.00239897274879253,,
0.000965499485066941,-0.15648696908447,-0.00195363621310563,,
0.000973349074376429,-0.121446954560072,-0.00141838373069758,,
0.000981198663685916,-0.0816999340414621,-0.000803462440056357,,
0.000989048252995403,-0.0391106606573256,-0.000160019479923612,,
0.000996897842304891,0.00406975284379802,0.000441009211757049,,
0.00100474743161438,0.0472565642265227,0.00103165350672185,,
0.00101259702092387,0.0895918537825725,0.00163867728360145,,
0.00102044661023335,0.128737352715937,0.00216029102097659,,
0.00102829619954284,0.16283093947942,0.00259782892786165,,
0.00103614578885233,0.190468942992702,0.00294700500538569,,
0.00104399537816181,0.210940860396775,0.00315815243741824,,
0.0010518449674713,0.222887178065841,0.00324965792297727,,
0.00105969455678079,0.226288291924956,0.00323793341366629,,
0.00106754414609028,0.221109918985919,0.00305448852943924,,
0.00107539373539976,0.207106501309996,0.00279349717388566,,
0.00108324332470925,0.185534631129533,0.00241060870440801,,
0.00109109291401874,0.156525114944582,0.0019585155217392,,
0.00109894250332823,0.121645409604452,0.00138657967088651,,
0.00110679209263771,0.0821233048028052,0.000815718271541588,,
0.0011146416819472,0.0397509558193682,0.000178565575593925,,
0.00112249127125669,-0.0032408771036959,-0.00044777914179317,,
0.00113034086056618,-0.0466910639218387,-0.00105378012348778,,
0.00113819044987566,-0.0894361076157486,-0.00162360839638254,,
0.00114604003918515,-0.128822577327453,-0.00216122231067617,,
0.00115388962849464,-0.163055879339333,-0.0026208691235885,,
0.00116173921780412,-0.190906075235225,-0.00292585100337694,,
0.00116958880711361,-0.211407302179915,-0.00314618588133886,,
0.0011774383964231,-0.223214025315331,-0.0032342569593995,,
0.00118528798573259,-0.226778828371635,-0.00321982713468483,,
0.00119313757504207,-0.221262164425074,-0.00307337555683729,,
0.00120098716435156,-0.207652494111535,-0.00281197685428358,,
0.00120883675366105,-0.185587769761246,-0.002437269270394,,
0.00121668634297054,-0.156449644084639,-0.00195605963257828,,
0.00122453593228002,-0.121244153784794,-0.00139498341660849,,
0.00123238552158951,-0.0817103637956193,-0.000796710220758889,,
0.001240235110899,-0.0390747842344609,-0.000164066383817385,,
0.00124808470020849,0.00401912507882673,0.000434025276955907,,
0.00125593428951797,0.0472137104912704,0.00104349018404726,,
0.00126378387882746,0.0895466098953258,0.00163761759104286,,
0.00127163346813695,0.128550534573186,0.00217896109182059,,
0.00127948305744643,0.162665439561023,0.00260120872724778,,
0.00128733264675592,0.190397769577759,0.00292157828755979,,
0.00129518223606541,0.210741101633126,0.00313960929353785,,
0.0013030318253749,0.222814990647021,0.00326800034514685,,
0.00131088141468438,0.226314994027034,0.00322470939510788,,
0.00131873100399387,0.221210401941479,0.00308203463238232,,
0.00132658059330336,0.207321445988842,0.00280510065981243,,
0.00133443018261285,0.185369927928467,0.00241288453438759,,
0.00134227977192233,0.156674632230451,0.00193565390929873,,
0.00135012936123182,0.121790557016472,0.00142421499155976,,
0.00135797895054131,0.0821227012290693,0.000767928793760753,,
0.0013658285398508,0.0397222498524866,0.000188132326519597,,
0.00137367812916028,-0.00327916782150441,-0.000420100208306629,,
0.00138152771846977,-0.0467385289604336,-0.00105441328241218,,
0.00138937730777926,-0.089492698689231,-0.00165216548735181,,
0.00139722689708874,-0.128820597605599,-0.00215299567234561,,
0.00140507648639823,-0.163031591532198,-0.00259624972028849,,
0.00141292607570772,-0.190877345125394,-0.00294742268365011,,
0.00142077566501721,-0.211151290344076,-0.00316974559208028,,
0.00142862525432669,-0.223406637765947,-0.00326233881220173,,
0.00143647484363618,-0.226727403889333,-0.00323026023593354,,
0.00144432443294567,-0.221455356306476,-0.00306429437534295,,
0.00145217402225516,-0.207371180464684,-0.00278634498706243,,
0.00146002361156464,-0.185540980725235,-0.00240572644398496,,
0.00146787320087413,-0.15651405747374,-0.00194825952788147,,
0.00147572279018362,-0.121342850162096,-0.0013994332398175,,
0.00148357237949311,-0.0817272638602258,-0.000797099857019923,,
0.00149142196880259,-0.039047502701596,-0.000194499337240472,,
0.00149927155811208,0.00405162148877015,0.000426151377513229,,
0.00150712114742157,0.0472832904715504,0.00107998021025635,,
0.00151497073673105,0.0896550841671503,0.00163458315107023,,
0.00152282032604054,0.128678130060966,0.00217058686399696,,
0.00153066991535003,0.162693541954169,0.00258110703832326,,
0.00153851950465952,0.190515394027421,0.00292778294983842,,
0.001546369093969,0.210545109169589,0.00316710816784349,,
0.00155421868327849,0.222893938091683,0.00326535554143526,,
0.00156206827258798,0.226394738189028,0.00322852310760302,,
0.00156991786189747,0.221019020781285,0.00305920844142005,,
0.00157776745120695,0.207232913793253,0.00280001472588953,,
0.00158561704051644,0.185561333231611,0.00243796884459035,,
0.00159346662982593,0.156575356422363,0.00195717540914409,,
0.00160131621913541,0.121722570470855,0.00140535010258525,,
0.0016091658084449,0.08229018086932,0.000819385870438616,,
0.00161701539775439,0.0397070880802396,0.000178723496351285,,
0.00162486498706388,-0.0032424705383588,-0.000404657919670814,,
0.00163271457637336,-0.046716607162344,-0.00106326127250744,,
0.00164056416568285,-0.089461602570355,-0.00165221419188422,,
0.00164841375499234,-0.12871789349869,-0.00215977150596158,,
0.00165626334430183,-0.163009428304614,-0.00260585336858732,,
0.00166411293361131,-0.190854457609327,-0.00293402746128013,,
0.0016719625229208,-0.211318745841377,-0.00316889252481189,,
0.00167981211223029,-0.223495338962182,-0.00325988735072569,,
0.00168766170153978,-0.226655602757704,-0.003217780068419,,
0.00169551129084926,-0.221498813615465,-0.00307454594151535,,
0.00170336088015875,-0.207573981239963,-0.00279192682168183,,
0.00171121046946824,-0.185652810867031,-0.00241102785856739,,
0.00171906005877772,-0.156528784672897,-0.00193620589400156,,
0.00172690964808721,-0.121379354301646,-0.00140095636338344,,
0.0017347592373967,-0.0816985337503947,-0.000803840269157696,,
0.00174260882670619,-0.0391019209096291,-0.000149549481301747,,
0.00175045841601567,0.00406258238781496,0.000394365028440813,,
0.00175830800532516,0.0472258785377871,0.00106459843331264,,
0.00176615759463465,0.0896086331324318,0.00164876945312153,,
0.00177400718394414,0.128651596959534,0.0021599840348312,,
0.00178185677325362,0.162830722192875,0.00258928644801637,,
0.00178970636256311,0.190567615227055,0.00292386002111877,,
0.0017975559518726,0.210961188760202,0.00314793629272403,,
0.00180540554118209,0.222772716342556,0.00325170351334769,,
0.00181325513049157,0.226255795515013,0.00320722004020668,,
0.00182110471980106,0.22097416318123,0.00306715465971452,,
0.00182895430911055,0.207233131079798,0.00278714492211396,,
0.00183680389842003,0.185390666722035,0.00243895769419211,,
0.00184465348772952,0.156511739750594,0.0019544951839543,,
0.00185250307703901,0.121698451664367,0.00140570136557816,,
0.0018603526663485,0.0821396495795747,0.000796425373037923,,
0.00186820225565798,0.0397184594094248,0.000183951116187409,,
0.00187605184496747,-0.00328633827748747,-0.00041943015200907,,
0.00188390143427696,-0.0466659552544232,-0.00104763744879577,,
0.00189175102358645,-0.0894271264385576,-0.00163689292663305,,
0.00189960061289593,-0.128855653168183,-0.00215596960062614,,
0.00190745020220542,-0.163071089397479,-0.00259197110089104,,
0.00191529979151491,-0.190897528631124,-0.00295795319396408,,
0.0019231493808244,-0.211307784942332,-0.00317524182479367,,
0.00193099897013388,-0.223351350411734,-0.00327720697770983,,
0.00193884855944337,-0.226877524748937,-0.00323523252594704,,
0.00194669814875286,-0.221536524902487,-0.00306578207743069,,
0.00195454773806234,-0.207431586124178,-0.00279546159003496,,
0.00196239732737183,-0.185609305272144,-0.00240865166773307,,
0.00197024691668132,-0.156452058379583,-0.00194061734394246,,
0.00197809650599081,-0.121429764780072,-0.00139680024326516,,
0.00198594609530029,-0.0817036037697767,-0.000814918336490056,,
0.00199379568460978,-0.0390524761491803,-0.000149050628816205,,
0.00200164527391927,0.00407574029525862,0.000427699591293074,,
0.00200949486322876,0.047219697942731,0.00105483391246652,,
0.00201734445253824,0.0896024283944263,0.00163164612016287,,
0.00202519404184773,0.128631896312792,0.00216545370143573,,
0.00203304363115722,0.162762132073522,0.00258719067721813,,
0.00204089322046671,0.190485505056016,0.00293858354892418,,
0.00204874280977619,0.21080189357981,0.00315622491864165,,
0.00205659239908568,0.222784884389072,0.0032604555702731,,
0.00206444198839517,0.2264517638356,0.00321098357227401,,
0.00207229157770465,0.221063878381341,0.00307507726369005,,
0.00208014116701414,0.20736707616328,0.00280864575943029,,
0.00208799075632363,0.185425360140377,0.00240495307504229,,
0.00209584034563312,0.156618596444806,0.00194342597199126,,
0.0021036899349426,0.121679330448412,0.00140537371690419,,
0.00211153952425209,0.0821731358504451,0.000795827635591717,,
0.00211938911356158,0.0397916366891711,0.000173726116123873,,
0.00212723870287107,-0.00322972306105559,-0.000418076756359742,,
0.00213508829218055,-0.0466930436436926,-0.00104713859631023,,
0.00214293788149004,-0.0894198835537263,-0.00168375554239875,,
0.00215078747079953,-0.128758550225543,-0.00220039403797001,,
0.00215863706010902,-0.16290995935293,-0.00259579809644039,,
0.0021664866494185,-0.19083369467281,-0.00294442366515568,,
0.00217433623872799,-0.211274902245198,-0.00316125034087245,,
0.00218218582803748,-0.223310355683588,-0.00326330109569506,,
0.00219003541734696,-0.226951064172925,-0.00321396340413438,,
0.00219788500665645,-0.221557625840295,-0.00305099656203867,,
0.00220573459596594,-0.207470263129177,-0.00279819199565257,,
0.00221358418527543,-0.18564899628102,-0.00240885829302284,,
0.00222143377458491,-0.15642511484801,-0.00193187857007171,,
0.0022292833638944,-0.121424791332488,-0.00139365511117262,,
0.00223713295320389,-0.0816263946174743,-0.000789262854950401,,
0.00224498254251338,-0.0390338860781131,-0.000162457658345438,,
0.00225283213182286,0.0040585988011577,0.000435304877858922,,
0.00226068172113235,0.0472201083728714,0.00105520288619898,,
0.00226853131044184,0.0896201734622631,0.00162232141600516,,
0.00227638089975133,0.128616927684141,0.00218249438427875,,
0.00228423048906081,0.162691948519506,0.00261735501776439,,
0.0022920800783703,0.190527755217533,0.00293547531420524,,
0.00229992966767979,0.210806673883799,0.00315084970931245,,
0.00230777925698927,0.222879573036768,0.00326935226490122,,
0.00231562884629876,0.226321971339422,0.00323241061484403,,
0.00232347843560825,0.221123680467098,0.00307472304890721,,
0.00233132802491774,0.207235497088843,0.00277957653292127,,
0.00233917761422722,0.185453679820067,0.00243426139653025,,
0.00234702720353671,0.156632768356126,0.00194194122169344,,
0.0023548767928462,0.121621483941559,0.00140955640313134,,
0.00236272638215569,0.0821530006306138,0.000789867971870972,,
0.00237057597146517,0.0397348041861943,0.000164804331281854,,
0.00237842556077466,-0.00321634786706699,-0.00042652330303472,,
0.00238627515008415,-0.0466908707782431,-0.0010791669921506,,
0.00239412473939363,-0.0894015831980523,-0.00164018417232326,,
0.00240197432870312,-0.128763716816723,-0.00215514014767626,,
0.00240982391801261,-0.162984754210289,-0.00259657884485742,,
0.0024176735073221,-0.190958320577808,-0.00292857993309958,,
0.00242552309663158,-0.211196389373626,-0.00314915980961938,,
0.00243337268594107,-0.22320205041241,-0.00324592095701837,,
0.00244122227525056,-0.226906013429274,-0.00323937536301111,,
0.00244907186456005,-0.221312961190692,-0.00304316103586366,,
0.00245692145386953,-0.207688563677995,-0.00282170300186158,,
0.00246477104317902,-0.185670531791919,-0.00241469693335938,,
0.00247262063248851,-0.156498316270706,-0.00192016734381495,,
0.002480470221798,-0.121501565911701,-0.0013826124653189,,
0.00248831981110748,-0.081668886208485,-0.000802365850124165,,
0.00249616940041697,-0.0390686036394048,-0.000183251541991503,,
0.00250401898972646,0.0040512110586297,0.000435890808145434,,
0.00251186857903595,0.0471977761446414,0.0010533845836469,,
0.00251971816834543,0.0895471893261123,0.00162284683460001,,
0.00252756775765492,0.128745923462987,0.00215992499903406,,
