Time domain (s),Current (AC) (A),Potential (AC) (V),Frequency (Hz),Column 5
0,0.267360534919485,0.00790511686696593,0.15849,0.4
0.0154041658779734,0.263102404974413,0.00776447103471289,,
0.0308083317559467,0.25905066398076,0.0076927671278848,,
0.0462124976339201,0.254876661223052,0.00757600411948056,,
0.0616166635118935,0.250767602805041,0.00747022055781299,,
0.0770208293898669,0.246354623366742,0.00737659362739995,,
0.0924249952678402,0.242017913081824,0.00727485684131901,,
0.107829161145814,0.23749419892197,0.00717578420967335,,
0.123233327023787,0.233119614068839,0.00709100409808894,,
0.13863749290176,0.228651628392648,0.00695691593360781,,
0.154041658779734,0.224231022039012,0.00683684963457587,,
0.169445824657707,0.219218058594124,0.00672788343554132,,
0.18484999053568,0.214658058806753,0.00662495642134653,,
0.200254156413654,0.209946271848223,0.00648381493245465,,
0.215658322291627,0.204981814429292,0.00637160087807409,,
0.231062488169601,0.200128582859039,0.0062627357669065,,
0.246466654047574,0.195403131010529,0.0061064082716431,,
0.261870819925547,0.190494864312554,0.00602346404616316,,
0.277274985803521,0.185593271165499,0.00590024119695531,,
0.292679151681494,0.180501987389242,0.00576096494225808,,
0.308083317559468,0.175504508893677,0.00562567676696624,,
0.323487483437441,0.170367665854208,0.00550255174472714,,
0.338891649315414,0.16520427306021,0.00539158009284302,,
0.354295815193388,0.160077801470007,0.00524750053400469,,
0.369699981071361,0.154763459309944,0.00511355584907713,,
0.385104146949334,0.149562596405365,0.00498576774135095,,
0.400508312827308,0.14421771769412,0.00487724502457265,,
0.415912478705281,0.13875826191382,0.00470955655739624,,
0.431316644583254,0.133511175279919,0.00459769141920274,,
0.446720810461228,0.128153180585479,0.00445601514288407,,
0.462124976339201,0.122612775499205,0.00429957025525907,,
0.477529142217175,0.117196712244805,0.00415931246998014,,
0.492933308095148,0.111691263853829,0.00402678953699098,,
0.508337473973121,0.106300652540387,0.00391399178169971,,
0.523741639851095,0.100746842572609,0.00375549578864032,,
0.539145805729068,0.0951381130364322,0.00360853359513724,,
0.554549971607041,0.0895715915430914,0.00344991042701892,,
0.569954137485015,0.0838858417179326,0.0033091961158882,,
0.585358303362988,0.0783607193521652,0.00318198192637631,,
0.600762469240962,0.0726617957641499,0.00301652391407625,,
0.616166635118935,0.0669834417356825,0.00286936280573791,,
0.631570800996908,0.0613441467584916,0.00272420062845091,,
0.646974966874882,0.0556720329334827,0.00258108955659786,,
0.662379132752855,0.0499268856161461,0.0024549058111516,,
0.677783298630828,0.0442797326049706,0.00228082598204971,,
0.693187464508802,0.0385401321351526,0.00214272365097123,,
0.708591630386775,0.0327090086812786,0.0019992538802347,,
0.723995796264749,0.0270940100518122,0.00183598393112483,,
0.739399962142722,0.0212954454372788,0.00170035988324191,,
0.754804128020695,0.0155870459847526,0.00152648875167261,,
0.770208293898669,0.00983242280290525,0.00136219161939577,,
0.785612459776642,0.00405260768857779,0.00123465133998923,,
0.801016625654615,-0.00175910179898132,0.0010640932817445,,
0.816420791532589,-0.00751378276049036,0.000932352964501337,,
0.831824957410562,-0.0132988558240281,0.000764221015069122,,
0.847229123288536,-0.01908722232828,0.000599584749302551,,
0.862633289166509,-0.024824338272647,0.000468317262405815,,
0.878037455044482,-0.0305638809628033,0.000310274534299104,,
0.893441620922456,-0.036351785229762,0.000139899086395001,,
0.908845786800429,-0.0420049473257493,-1.37642544326688E-05,,
0.924249952678402,-0.0477706642026337,-0.000154007365666509,,
0.939654118556376,-0.053458320756627,-0.000307207658844622,,
0.955058284434349,-0.0592547186338484,-0.000459268267842816,,
0.970462450312323,-0.0649113475095348,-0.00059557221315476,,
0.985866616190296,-0.0705746788259728,-0.000763068287293667,,
1.00127078206827,-0.0761903997012098,-0.000914450629311947,,
1.01667494794624,-0.0818812341365939,-0.00107499120600796,,
1.03207911382422,-0.0874107477566469,-0.00122216209704318,,
1.04748327970219,-0.0930056679536894,-0.00138523150086822,,
1.06288744558016,-0.0986218510662197,-0.00154460141484414,,
1.07829161145814,-0.104052908142818,-0.00167396779765783,,
1.09369577733611,-0.109694052069182,-0.00183740242216457,,
1.10909994321408,-0.115151687790141,-0.00199220381672305,,
1.12450410909206,-0.120619030494256,-0.00214440953572437,,
1.13990827497003,-0.125961106891912,-0.00228651951160197,,
1.155312440848,-0.131524594953016,-0.00244460789229395,,
1.17071660672598,-0.136807967214433,-0.00258797005336486,,
1.18612077260395,-0.142179395680208,-0.00273173493545587,,
1.20152493848192,-0.147514307399818,-0.00287776125096251,,
1.2169291043599,-0.152725108406201,-0.00299946941261142,,
1.23233327023787,-0.157982537599537,-0.00318335639528033,,
1.24773743611584,-0.163073445807993,-0.00331779836729673,,
1.26314160199382,-0.168303891899338,-0.0034654649149708,,
1.27854576787179,-0.173345918514037,-0.00360176886028318,,
1.29394993374976,-0.178586360486847,-0.00374922997132376,,
1.30935409962774,-0.183630062711734,-0.00389992100276659,,
1.32475826550571,-0.188651577546546,-0.00402581615865705,,
1.34016243138368,-0.19351044263381,-0.00416498154279044,,
1.35556659726166,-0.198256175143559,-0.00431387255801718,,
1.37097076313963,-0.203357425911451,-0.00444644603493982,,
1.3863749290176,-0.208170471727025,-0.00456894170368338,,
1.40177909489558,-0.21290031482982,-0.00471689358001548,,
1.41718326077355,-0.217662745661787,-0.00486187314696185,,
1.43258742665152,-0.222299679068647,-0.0049943569491635,,
1.4479915925295,-0.226867739118819,-0.00512068417416378,,
1.46339575840747,-0.231350689727377,-0.0052542897256016,,
1.47879992428544,-0.235998543490289,-0.00535861240454327,,
1.49420409016342,-0.240404589369189,-0.00551474587631962,,
1.50960825604139,-0.244659714771856,-0.00564077146816722,,
1.52501242191936,-0.249163003821316,-0.00575278986861161,,
1.54041658779734,-0.253290378392071,-0.00589287971759456,,
1.55582075367531,-0.257620155117591,-0.006023574916727,,
1.57122491955328,-0.261701652636994,-0.0061266584540709,,
1.58662908543126,-0.265725254935423,-0.00626730754722304,,
1.60203325130923,-0.269997483117938,-0.00637649548738572,,
1.6174374171872,-0.273767490481379,-0.00648555299159037,,
1.63284158306518,-0.277809986729167,-0.00661144977793038,,
1.64824574894315,-0.281500027040882,-0.00670865065358317,,
1.66364991482112,-0.285383744778452,-0.00684359969538528,,
1.6790540806991,-0.289265382448203,-0.00694910771109214,,
1.69445824657707,-0.292386813109604,-0.00704992329322218,,
1.70986241245504,-0.296297398389843,-0.00717505213786085,,
1.72526657833302,-0.299580438764883,-0.00727538184604848,,
1.74067074421099,-0.302957313310446,-0.00738708720019421,,
1.75607491008896,-0.306315871703266,-0.00748063586903269,,
1.77147907596694,-0.309615148163231,-0.00760204565842892,,
1.78688324184491,-0.31284670685974,-0.00768175507215885,,
1.80228740772288,-0.316119289116022,-0.00776652540104639,,
1.81769157360086,-0.319025374978448,-0.00786368714591212,,
1.83309573947883,-0.322097866266431,-0.00797457075352437,,
1.8484999053568,-0.325121360401333,-0.00805398016455161,,
1.86390407123478,-0.327984227076844,-0.00814782883609277,,
1.87930823711275,-0.330765508870103,-0.00824659494323798,,
1.89471240299073,-0.333403728221112,-0.00831879124580626,,
1.9101165688687,-0.336297333676622,-0.00840015719619869,,
1.92552073474667,-0.338385432869047,-0.00848874929864607,,
1.94092490062465,-0.340710775352213,-0.00854715852048882,,
1.95632906650262,-0.34318097144714,-0.00864014631470944,,
1.97173323238059,-0.345463499201023,-0.00873262540869524,,
1.98713739825857,-0.347893249532794,-0.00880448257777333,,
2.00254156413654,-0.349814307723384,-0.00886803260679825,,
2.01794573001451,-0.351761944558335,-0.0089359359359098,,
2.03334989589249,-0.354076828922742,-0.0090016495713825,,
2.04875406177046,-0.355661089465566,-0.00905417613153459,,
2.06415822764843,-0.357481957722853,-0.00912033324926309,,
2.07956239352641,-0.35900266063786,-0.00921582378342123,,
2.09496655940438,-0.360972715981531,-0.0092523213948259,,
2.11037072528235,-0.362418825353346,-0.00931494369810171,,
2.12577489116033,-0.363635202790434,-0.0093639354438011,,
2.1411790570383,-0.365021221314131,-0.00941818375859471,,
2.15658322291627,-0.366376038820537,-0.00944775359019756,,
2.17198738879425,-0.367470616730864,-0.00950995849840863,,
2.18739155467222,-0.368783370643587,-0.00958511569721621,,
2.20279572055019,-0.369870321638576,-0.00960730122316589,,
2.21819988642817,-0.370638271121586,-0.00964493199695271,,
2.23360405230614,-0.371602555894889,-0.00969215307452709,,
2.24900821818411,-0.372505305328533,-0.00969808628015123,,
2.26441238406209,-0.373178091708803,-0.00976115206568284,,
2.27981654994006,-0.373414294965635,-0.00977782178107267,,
2.29522071581803,-0.374089161413725,-0.00981405852056216,,
2.31062488169601,-0.374561567927388,-0.00985223549492176,,
2.32602904757398,-0.374731266793659,-0.00988001835390451,,
2.34143321345195,-0.375005315728872,-0.00989993592464034,,
2.35683737932993,-0.374744382776854,-0.00990450118315866,,
2.3722415452079,-0.375065868814283,-0.00992497962851235,,
2.38764571108587,-0.375056912966727,-0.00995921906739961,,
2.40304987696385,-0.37487334698166,-0.00997027840616038,,
2.41845404284182,-0.374710870573096,-0.00996618434753893,,
2.43385820871979,-0.374727279997005,-0.00998179753167161,,
2.44926237459777,-0.373930902920461,-0.00999302806762703,,
2.46466654047574,-0.373627386357806,-0.0100240718255513,,
2.48007070635371,-0.372932932604416,-0.0100073368921829,,
2.49547487223169,-0.372064157611823,-0.0100071135206052,,
2.51087903810966,-0.371356472315915,-0.0100041020804329,,
2.52628320398763,-0.37059851871437,-0.00997008438267333,,
2.54168736986561,-0.369972476080376,-0.00999271339087882,,
2.55709153574358,-0.369073424545078,-0.00998676714165869,,
2.57249570162155,-0.367654124936269,-0.00995535816305271,,
2.58789986749953,-0.366541519771507,-0.00996975829277913,,
2.6033040333775,-0.365600809100158,-0.00995976689842193,,
2.61870819925547,-0.363911331793467,-0.00993571450782804,,
2.63411236513345,-0.362618974101307,-0.00991654042205115,,
2.64951653101142,-0.361026797744837,-0.00985727032288741,,
2.66492069688939,-0.359295776861418,-0.00982399774053633,,
2.68032486276737,-0.357670954996115,-0.00982078738552827,,
2.69572902864534,-0.355912662112397,-0.0097935132267799,,
2.71113319452331,-0.354181236771346,-0.0097634999129208,,
2.72653736040129,-0.352095911002681,-0.00972305335289825,,
2.74194152627926,-0.349721166908802,-0.00966148431998048,,
2.75734569215723,-0.347985234754143,-0.00962842043516154,,
2.77274985803521,-0.345763953441611,-0.00961180289415475,,
2.78815402391318,-0.343711388741101,-0.00955087625832896,,
2.80355818979115,-0.340884865472769,-0.00951045415504792,,
2.81896235566913,-0.33881236678899,-0.00946001457021817,,
2.8343665215471,-0.336192579150047,-0.00942946646893272,,
2.84977068742507,-0.333709498190572,-0.00937387466377526,,
2.86517485330305,-0.331248142383878,-0.00931093931420124,,
2.88057901918102,-0.328422428030809,-0.00925729100481298,,
2.89598318505899,-0.325208492131103,-0.00917771202704065,,
2.91138735093697,-0.32261141189919,-0.00916213634324592,,
2.92679151681494,-0.319618656544286,-0.0090498587013359,,
2.94219568269291,-0.316386693390145,-0.00900144087384991,,
2.95759984857089,-0.313221292406227,-0.00891915045860747,,
2.97300401444886,-0.310244022000646,-0.0088591352440357,,
2.98840818032683,-0.306960519388312,-0.00879238953404826,,
3.00381234620481,-0.303530949791323,-0.00870681213267277,,
3.01921651208278,-0.299937285955243,-0.00863062448980001,,
3.03462067796075,-0.296580980969228,-0.00854833244410802,,
3.05002484383873,-0.292962818556609,-0.00848617971027998,,
3.0654290097167,-0.289342344957523,-0.00839363539831561,,
3.08083317559468,-0.285928318089518,-0.00830158511254053,,
3.09623734147265,-0.282095157555893,-0.0082105163573476,,
3.11164150735062,-0.278079702189757,-0.00813327218321724,,
3.12704567322859,-0.274218402960907,-0.00805398016455161,,
3.14244983910657,-0.270441924275362,-0.00795347762872023,,
3.15785400498454,-0.266259139009083,-0.00782556071548601,,
3.17325817086251,-0.262190064116935,-0.00777085587484061,,
3.18866233674049,-0.258150803530199,-0.00766139401916721,,
3.20406650261846,-0.253890189059675,-0.00756985569452606,,
3.21947066849643,-0.249489343350324,-0.00745660956563077,,
3.23487483437441,-0.245130503454993,-0.00733838241360152,,
3.25027900025238,-0.240770450186767,-0.00725099032196486,,
3.26568316613036,-0.236331816578695,-0.00715406336182323,,
3.28108733200833,-0.231773463511681,-0.00703454489381317,,
3.2964914978863,-0.227581433499538,-0.0069042263285084,,
3.31189566376428,-0.222907289990575,-0.00681610379550923,,
3.32729982964225,-0.218088697327483,-0.00669552879624202,,
3.34270399552022,-0.213298532257923,-0.00657074071554264,,
3.3581081613982,-0.208644496071214,-0.00646320931204203,,
3.37351232727617,-0.203700579322,-0.0063550779031365,,
3.38891649315414,-0.198883200031802,-0.00624272036920281,,
3.40432065903212,-0.194072754301002,-0.00611632792622396,,
3.41972482491009,-0.189207880128927,-0.00597745276209638,,
3.43512899078806,-0.18419283661622,-0.00585549514167782,,
3.45053315666604,-0.179152832289679,-0.00575873611783173,,
3.46593732254401,-0.173998597572052,-0.00560107980624958,,
3.48134148842198,-0.168911271702619,-0.00553370963411481,,
3.49674565429996,-0.163690590374093,-0.00537019511758396,,
3.51214982017793,-0.158524973063122,-0.0052337851930564,,
3.5275539860559,-0.15337894305745,-0.00511261018838383,,
3.54295815193388,-0.148097015287574,-0.00497822202120002,,
3.55836231781185,-0.142763663618828,-0.00485335567892609,,
3.57376648368982,-0.137504327696658,-0.00469452381327562,,
3.5891706495678,-0.132098000315246,-0.00458500978321874,,
3.60457481544577,-0.126737203307215,-0.00443061110967946,,
3.61997898132374,-0.121252526704604,-0.00430575944145017,,
3.63538314720172,-0.115797895526051,-0.00413892043844832,,
3.65078731307969,-0.110329108330394,-0.00402302645961239,,
3.66619147895766,-0.104807279405341,-0.0038936600767987,,
3.68159564483564,-0.0992354710729591,-0.00374114131149916,,
3.69699981071361,-0.0936523379268935,-0.00358723992504828,,
3.71240397659158,-0.0880812229504514,-0.00345137783154303,,
3.72780814246956,-0.0824631331090866,-0.00331448529397171,,
3.74321230834753,-0.0768553280474958,-0.00315231426780516,,
3.7586164742255,-0.0711691159850439,-0.00301247387759096,,
3.77402064010348,-0.0654371424305639,-0.00282780264872651,,
3.78942480598145,-0.0598087100297635,-0.00270883201173877,,
3.80482897185942,-0.0540490600173524,-0.00254111745737129,,
3.8202331377374,-0.0483976890908763,-0.00244987750498371,,
3.83563730361537,-0.0426671600279376,-0.00225428715601295,,
3.85104146949334,-0.0369464535074797,-0.00210683093632058,,
3.86644563537132,-0.0312459120889382,-0.0019760835628051,,
3.88184980124929,-0.0254397494488976,-0.00183838069184716,,
3.89725396712726,-0.0197195051657329,-0.0016523023850894,,
3.91265813300524,-0.0139640152889607,-0.00150981088403546,,
3.92806229888321,-0.00818443129327985,-0.00134538494625058,,
3.94346646476118,-0.00239028682286281,-0.00121917511361236,,
3.95887063063916,0.00336456747763118,-0.00104199090871804,,
3.97427479651713,0.00918066821947582,-0.000889433012631446,,
3.9896789623951,0.0149087416467943,-0.000745927372006516,,
4.00508312827308,0.0206601291675892,-0.000556234358772389,,
4.02048729415105,0.0264299772902818,-0.000422578263400641,,
4.03589146002902,0.0321980053536323,-0.00027796391713597,,
4.051295625907,0.0378962355857078,-0.000145698595162891,,
4.06669979178497,0.0436388405979317,1.80360320460871E-05,,
4.08210395766294,0.0492691219479049,0.000177037464441643,,
4.09750812354092,0.0550073357058433,0.00033251712598048,,
4.11291228941889,0.0606963211920545,0.000470622717957614,,
4.12831645529686,0.0663786042375142,0.000642524266566191,,
4.14372062117484,0.0720551093168087,0.000798082189679583,,
4.15912478705281,0.0776752214463312,0.000936344304805825,,
4.17452895293078,0.0833561177799113,0.00109406746481655,,
4.18993311880876,0.0889385864598679,0.00125073735446879,,
4.20533728468673,0.0945061768769492,0.00141089640598846,,
4.2207414505647,0.0999961980982633,0.00157201416179698,,
4.23614561644268,0.105533338633654,0.00169763377172671,,
4.25154978232065,0.111060309948595,0.00186274938963793,,
4.26695394819862,0.116559980373405,0.0020000071478905,,
4.2823581140766,0.121964718814121,0.00216690321662361,,
4.29776227995457,0.127426543560549,0.00230725230707307,,
4.31316644583254,0.132853209382862,0.00246244500950432,,
4.32857061171052,0.138213486373938,0.00261387789545653,,
4.34397477758849,0.143584943729543,0.0027382779291818,,
4.35937894346646,0.148749983243898,0.00291852411818239,,
4.37478310934444,0.15411606709097,0.00305294489435548,,
4.39018727522241,0.159301011698764,0.00321871269205509,,
4.40559144110038,0.164450595153627,0.00332567017734187,,
4.42099560697836,0.169715217914838,0.00348435856343876,,
4.43639977285633,0.174826406784534,0.00363503818173516,,
4.45180393873431,0.179882589416338,0.00378478844383334,,
4.46720810461228,0.184937847573555,0.00390631888649029,,
4.48261227049025,0.189887946746566,0.00404768537740896,,
4.49801643636822,0.195018780701223,0.00417840829418248,,
4.5134206022462,0.199708640278156,0.00432011391859133,,
4.52882476812417,0.204630542976281,0.00448786760374631,,
4.54422893400215,0.209350910214566,0.00461263937995104,,
4.55963309988012,0.214157022470742,0.00474068183779464,,
4.57503726575809,0.218604005239922,0.0048499969530158,,
4.59044143163607,0.223317872266271,0.00500281572101802,,
4.60584559751404,0.227884776723209,0.00513040817480759,,
4.62124976339201,0.232592201317284,0.00526336154645701,,
4.63665392926999,0.237065704951162,0.00540387694275202,,
4.65205809514796,0.241441532067019,0.00551984103091563,,
4.66746226102593,0.245857487157892,0.00567360872050982,,
4.68286642690391,0.250193504086871,0.00577380962318941,,
4.69827059278188,0.254181687452707,0.00591177173561297,,
4.71367475865985,0.258410696448307,0.00603063802383463,,
4.72907892453783,0.262523915001958,0.00615702720591438,,
4.7444830904158,0.266773724675752,0.00626385425524356,,
4.75988725629377,0.27062693475197,0.00640394573467651,,
4.77529142217175,0.274464428760219,0.00650475968635655,,
4.79069558804972,0.278377267447262,0.00661897267178846,,
4.80609975392769,0.282101975555967,0.00672896605398998,,
4.82150391980567,0.286106799464359,0.0068614368125961,,
4.83690808568364,0.289740909063595,0.00699037275674907,,
4.85231225156161,0.293180185643742,0.00706166579031109,,
4.86771641743959,0.296929161210341,0.00720467903519539,,
4.88312058331756,0.300198796703878,0.00728278408664629,,
4.89852474919553,0.30373375640372,0.00737345338171913,,
4.91392891507351,0.307075038677706,0.00749745558577386,,
4.92933308095148,0.31028019206884,0.00759036511841948,,
4.94473724682945,0.313457380103735,0.00769173994471783,,
4.96014141270743,0.316616078646902,0.00777959834490316,,
4.9755455785854,0.319758598884806,0.0078814688278408,,
4.99094974446337,0.322455291253407,0.00797998710666636,,
5.00635391034135,0.325410605387561,0.00807132162512358,,
5.02175807621932,0.328271623113899,0.00816047460218838,,
5.03716224209729,0.331039268907008,0.00824456666409601,,
5.05256640797527,0.33336270466134,0.00835728941871139,,
5.06797057385324,0.335974576486636,0.00842018563749836,,
5.08337473973121,0.338477129192088,0.00852649094299673,,
5.09877890560919,0.34105248427122,0.00859841333005384,,
5.11418307148716,0.343281161380444,0.00866360522169574,,
5.12958723736513,0.345645274016579,0.00875636801388913,,
5.14499140324311,0.347772952277235,0.00880581954633941,,
5.16039556912108,0.34981904565564,0.00890866503806054,,
5.17579973499905,0.351580863098719,0.00895771547994118,,
5.19120390087703,0.353687740681181,0.00905168154384395,,
5.206608066755,0.355561650667864,0.00908311660964189,,
5.22201223263297,0.357162378414258,0.00913627904508774,,
5.23741639851095,0.358986135654627,0.00919488392086709,,
