Time domain (s),Current (AC) (A),Potential (AC) (V),Frequency (Hz),Column 5
0,0.00312656023810742,0.000759227633932547,31.623,0.3
0.000239330847010088,-0.0100251183245952,0.000483914376709471,,
0.000478661694020175,-0.0231891097915111,0.000205775169409783,,
0.000717992541030263,-0.0362262542020803,-5.61575427999728E-05,,
0.00095732338804035,-0.049210718696976,-0.000328355682961856,,
0.00119665423505044,-0.0620032467438404,-0.000597742659995681,,
0.00143598508206053,-0.0748063494025586,-0.000880309736746465,,
0.00167531592907061,-0.0874104658720095,-0.00112160644142056,,
0.0019146467760807,-0.0998427328273615,-0.00140187496924327,,
0.00215397762309079,-0.112006337041368,-0.00168976699029555,,
0.00239330847010088,-0.123929091191783,-0.00195126595202844,,
0.00263263931711096,-0.135497233700853,-0.00220119823437814,,
0.00287197016412105,-0.146902169871724,-0.00245406161843498,,
0.00311130101113114,-0.157835401096476,-0.00269098138647905,,
0.00335063185814123,-0.168486932387187,-0.00292182864784696,,
0.00358996270515131,-0.1788334416547,-0.00315353026621468,,
0.0038292935521614,-0.188553634527894,-0.00337033978487655,,
0.00406862439917149,-0.198054512848395,-0.00359013298106126,,
0.00430795524618158,-0.206869586547162,-0.0037792876208349,,
0.00454728609319166,-0.215415031786607,-0.00399729323929687,,
0.00478661694020175,-0.223346473535947,-0.00420385047396055,,
0.00502594778721184,-0.230817460953608,-0.00439345200816499,,
0.00526527863422193,-0.237877825087228,-0.00455261378826011,,
0.00550460948123201,-0.244525055070068,-0.00473544454324015,,
0.0057439403282421,-0.250337132145951,-0.00486931407015057,,
0.00598327117525219,-0.255734723065884,-0.00500400180818739,,
0.00622260202226228,-0.260291559914592,-0.00513207649444647,,
0.00646193286927237,-0.264364958343755,-0.00525336890052186,,
0.00670126371628245,-0.267903735300565,-0.00534457479624795,,
0.00694059456329254,-0.270989735383617,-0.00546218689524691,,
0.00717992541030263,-0.273202629843196,-0.00552579048789958,,
0.00741925625731272,-0.274811515993738,-0.00560957004970319,,
0.0076585871043228,-0.275964148685803,-0.00564936994194376,,
0.00789791795133289,-0.276472019770178,-0.00573347810259373,,
0.00813724879834298,-0.276311469156416,-0.0057248556688716,,
0.00837657964535306,-0.275711903150075,-0.00575762354580567,,
0.00861591049236315,-0.274143239153297,-0.00576464406015287,,
0.00885524133937324,-0.272139181206356,-0.00573467255939919,,
0.00909457218638333,-0.269386884970435,-0.00574522879733053,,
0.00933390303339342,-0.266339899893674,-0.00564913335077444,,
0.0095732338804035,-0.262446463009621,-0.00563066609562313,,
0.00981256472741359,-0.258118501321585,-0.00558046933589162,,
0.0100518955744237,-0.252989041998109,-0.00552569848022255,,
0.0102912264214338,-0.247427037592504,-0.00541431661534553,,
0.0105305572684439,-0.241128624943143,-0.00530875752202187,,
0.0107698881154539,-0.234456093149293,-0.00523073336900781,,
0.011009218962464,-0.227280615432753,-0.00506735566571725,,
0.0112485498094741,-0.219587126593073,-0.00496892223837131,,
0.0114878806564842,-0.211314351824579,-0.00480076999384682,,
0.0117272115034943,-0.202683778545416,-0.0046426235841861,,
0.0119665423505044,-0.193441084926205,-0.00449526671763723,,
0.0122058731975145,-0.183663383547449,-0.00433172800091208,,
0.0124452040445246,-0.17370716920055,-0.00414035367593302,,
0.0126845348915346,-0.163413098419216,-0.00391741743178509,,
0.0129238657385447,-0.152452151088509,-0.00372317772486808,,
0.0131631965855548,-0.141346394347073,-0.00352022029056354,,
0.0134025274325649,-0.129934891293956,-0.0032875854514729,,
0.013641858279575,-0.118179544354944,-0.00305601527264354,,
0.0138811891265851,-0.106216085191777,-0.00285154956963529,,
0.0141205199735952,-0.0939213364764235,-0.0025747494026338,,
0.0143598508206053,-0.0815049072959027,-0.00234152308562008,,
0.0145991816676153,-0.0688456966158345,-0.00211539450368248,,
0.0148385125146254,-0.0560829609685765,-0.00181848573029297,,
0.0150778433616355,-0.0430497760017151,-0.00157341671086542,,
0.0153171742086456,-0.0300638146439543,-0.0013253245820537,,
0.0155565050556557,-0.0169200066827684,-0.00102957411959714,,
0.0157958359026658,-0.00378199302944764,-0.000784424593452293,,
0.0160351667496759,0.00941048711780504,-0.000493693478369917,,
0.016274497596686,0.0225183703702273,-0.000210166892987917,,
0.016513828443696,0.0355775572936333,7.38887365359098E-05,,
0.0167531592907061,0.0486197717235845,0.00031780273101889,,
0.0169924901377162,0.0614989729589309,0.000586069185987359,,
0.0172318209847263,0.0742628916107114,0.000854337283950013,,
0.0174711518317364,0.0868753373977184,0.0011508648826779,,
0.0177104826787465,0.0991720416919765,0.00140499337229283,,
0.0179498135257566,0.111430672554971,0.00168311614965022,,
0.0181891443727667,0.123371968490554,0.00192350263552044,,
0.0184284752197767,0.134958459641197,0.00217040195052043,,
0.0186678060667868,0.146257384121086,0.00242150404476238,,
0.0189071369137969,0.157256887742045,0.00267607614281928,,
0.019146467760807,0.167917062208655,0.0029356955191524,,
0.0193857986078171,0.178103069148304,0.00315321809731062,,
0.0196251294548272,0.188036444265035,0.00335301605370963,,
0.0198644603018373,0.197286284197281,0.00358312725366217,,
0.0201037911488474,0.206210290883912,0.00379845150553981,,
0.0203431219958574,0.2146379185301,0.00401234635243686,,
0.0205824528428675,0.222803257173595,0.00421169741440552,,
0.0208217836898776,0.230298194397097,0.00437717979330543,,
0.0210611145368877,0.237187047017911,0.00457385277467814,,
0.0213004453838978,0.243750838967493,0.00470493414037909,,
0.0215397762309079,0.24972766753034,0.0048683693484679,,
0.021779107077918,0.254687788206459,0.0050190680652813,,
0.0220184379249281,0.259729801767071,0.00514689301641758,,
0.0222577687719381,0.263934924128367,0.00527259850499595,,
0.0224970996189482,0.267527781291918,0.00536222712626033,,
0.0227364304659583,0.270412380890759,0.00544647658441422,,
0.0229757613129684,0.272660379198821,0.0055349781116365,,
0.0232150921599785,0.27420668682442,0.00560982964279155,,
0.0234544230069886,0.275559078280134,0.00567358110492489,,
0.0236937538539987,0.276130397035632,0.00571187272846174,,
0.0239330847010088,0.275998286816308,0.00572371543087558,,
0.0241724155480188,0.275193650597441,0.00575252697770212,,
0.0244117463950289,0.27398804827431,0.00575952941911284,,
0.024651077242039,0.27214198178849,0.00578090477405224,,
0.0248904080890491,0.269366508321109,0.00574938228674515,,
0.0251297389360592,0.266414694751033,0.0057171171660455,,
0.0253690697830693,0.262439413268386,0.00566739030266428,,
0.0256084006300794,0.258045975901474,0.00559061646825931,,
0.0258477314770895,0.253160022366028,0.00553308538228281,,
0.0260870623240995,0.247667404797107,0.00542686909126688,,
0.0263263931711096,0.241500522936285,0.00531777427435909,,
0.0265657240181197,0.234842863199288,0.00523136592178641,,
0.0268050548651298,0.227683030113984,0.0050976393353741,,
0.0270443857121399,0.220015808803292,0.00494137415410778,,
0.02728371655915,0.211893348037999,0.00483903532947583,,
0.0275230474061601,0.203165768387995,0.00467311591411024,,
0.0277623782531702,0.194018294561366,0.00450915823385634,,
0.0280017091001802,0.184578594474741,0.00435165423493977,,
0.0282410399471903,0.174503234672366,0.00412808872400161,,
0.0284803707942004,0.164150182665555,0.00393319017639815,,
0.0287197016412105,0.153570742221866,0.00372401400893096,,
0.0289590324882206,0.14235759764133,0.0035266871158548,,
0.0291983633352307,0.130945297870882,0.00330263856461288,,
0.0294376941822408,0.119260520773077,0.00308148496920513,,
0.0296770250292509,0.107281972266511,0.00282816483275194,,
0.0299163558762609,0.0950640705592183,0.00261113186687467,,
0.030155686723271,0.0825504901501595,0.00234397114702345,,
0.0303950175702811,0.0699766730822531,0.00210415642314521,,
0.0306343484172912,0.0570783264880024,0.00185145076653415,,
0.0308736792643013,0.0441842531958022,0.00157151412354617,,
0.0311130101113114,0.0311014786107954,0.00131502958020535,,
0.0313523409583215,0.0179922433532046,0.00105461170867605,,
0.0315916718053316,0.00489515199918107,0.000784005629923534,,
0.0318310026523417,-0.00831328663765006,0.000529458176779851,,
0.0320703334993517,-0.0214639029105774,0.000247413572194155,,
0.0323096643463618,-0.0344701443458661,-4.08448365711855E-05,,
0.0325489951933719,-0.0474952172817164,-0.000302831767590384,,
0.032788326040382,-0.0603157028640298,-0.000572478337712568,,
0.0330276568873921,-0.073177907462972,-0.000866572661985199,,
0.0332669877344022,-0.0858608748052871,-0.00110173278320813,,
0.0335063185814123,-0.0981833879124944,-0.00139921824757261,,
0.0337456494284223,-0.110508701601836,-0.00166742226876027,,
0.0339849802754324,-0.122511755202081,-0.00191377939566406,,
0.0342243111224425,-0.134104813234972,-0.0021746983804336,,
0.0344636419694526,-0.145465567808371,-0.00242246355339315,,
0.0347029728164627,-0.156609373838121,-0.00267770435010206,,
0.0349423036634728,-0.16703719655934,-0.00289831411441943,,
0.0351816345104829,-0.177433585160391,-0.00315046608197456,,
0.035420965357493,-0.187194241616844,-0.00336994546626146,,
0.035660296204503,-0.196645723462794,-0.00358764877378492,,
0.0358996270515131,-0.205937861842455,-0.00379804404297079,,
0.0361389578985232,-0.214423239423698,-0.00401343401461762,,
0.0363782887455333,-0.222426144303375,-0.00419182375619309,,
0.0366176195925434,-0.229816783985306,-0.00435697753624709,,
0.0368569504395535,-0.236960006721397,-0.00455430935830581,,
0.0370962812865636,-0.243726406302662,-0.00468445914627802,,
0.0373356121335737,-0.24953399278995,-0.0048471533639689,,
0.0375749429805838,-0.255139889077633,-0.00498468019603626,,
0.0378142738275938,-0.259547957071904,-0.00510699783051161,,
0.0380536046746039,-0.264036469373703,-0.00524425849751387,,
0.038292935521614,-0.267564382003266,-0.00536229284602996,,
0.0385322663686241,-0.270622424550869,-0.00544605926387964,,
0.0387715972156342,-0.273154343944321,-0.00551018861468622,,
0.0390109280626443,-0.274737928283852,-0.00560054015341205,,
0.0392502589096544,-0.276100990923217,-0.00563580538157638,,
0.0394895897566645,-0.276547732059616,-0.00569016713168224,,
0.0397289206036745,-0.276574579019391,-0.00572592032913288,,
0.0399682514506846,-0.275484041993281,-0.00574729075508973,,
0.0402075822976947,-0.274423104223181,-0.00574802845949929,,
0.0404469131447048,-0.272472885053486,-0.00573381820239938,,
0.0406862439917149,-0.269793259095373,-0.00574425614474583,,
0.040925574838725,-0.266625124698334,-0.00569530641763549,,
0.0411649056857351,-0.262735164399,-0.00562845791137745,,
0.0414042365327452,-0.258836802353262,-0.00558559547789095,,
0.0416435673797552,-0.253630085591584,-0.0055018684919026,,
0.0418828982267653,-0.248091258417439,-0.00543050996648198,,
0.0421222290737754,-0.242121769311221,-0.00532868375605,,
0.0423615599207855,-0.235287190040744,-0.00519871469744304,,
0.0426008907677956,-0.228344450356785,-0.00508842542372978,,
0.0428402216148057,-0.220635510029464,-0.00496183600425493,,
0.0430795524618158,-0.212210006962827,-0.0048153187077582,,
0.0433188833088258,-0.203824098333267,-0.00467875467030954,,
0.0435582141558359,-0.194578893847314,-0.00450522983465129,,
0.043797545002846,-0.185081009252544,-0.00431228809317608,,
0.0440368758498561,-0.17515893303615,-0.00415676883129024,,
0.0442762066968662,-0.164699241621672,-0.00395348444113397,,
0.0445155375438763,-0.154032451986916,-0.00375339567475619,,
0.0447548683908864,-0.142967641687727,-0.00356202956474805,,
0.0449941992378965,-0.131447205646746,-0.00330971986974671,,
0.0452335300849066,-0.119669309192959,-0.00311714780197336,,
0.0454728609319166,-0.107709857759399,-0.00287336689002293,,
0.0457121917789267,-0.095479425861348,-0.00262848188594944,,
0.0459515226259368,-0.0830272168297603,-0.00238926192598266,,
0.0461908534729469,-0.0704385518479496,-0.00211500018506694,,
0.046430184319957,-0.0576937785550734,-0.00188028860126899,,
0.0466695151669671,-0.0447593382514131,-0.00160548795824544,,
0.0469088460139772,-0.0317175101086529,-0.0013442124437284,,
0.0471481768609873,-0.0186032531175791,-0.00105983150134659,,
0.0473875077079973,-0.00547856637234802,-0.000812868109571596,,
0.0476268385550074,0.00767511605515795,-0.000540683113363194,,
0.0478661694020175,0.0208531104327479,-0.000248519307311401,,
0.0481055002490276,0.0339474494905355,1.1849274390574E-05,,
0.0483448310960377,0.0468695286040836,0.000268156374354955,,
0.0485841619430478,0.0597834956866207,0.000538343489578708,,
0.0488234927900579,0.0726331459518551,0.000801853476249725,,
0.049062823637068,0.0852029311472054,0.00110334948953073,,
0.049302154484078,0.0977224990077248,0.00136520333801737,,
0.0495414853310881,0.10987972948308,0.00162339002338152,,
0.0497808161780982,0.12183918091664,0.0019095338985724,,
0.0500201470251083,0.133464107642789,0.00213236006210682,,
0.0502594778721184,0.144807044719502,0.00240445962261493,,
0.0504988087191285,0.155856596674647,0.00264371572845468,,
0.0507381395661386,0.16645303375474,0.00288958324307798,,
0.0509774704131487,0.176607944575514,0.00310513422815983,,
0.0512168012601587,0.186727123831119,0.0033528977581252,,
0.0514561321071688,0.196324815378866,0.00357187602917142,,
0.0516954629541789,0.205210386489992,0.0037837039893267,,
0.051934793801189,0.213771476360672,0.00396331611860923,,
0.0521741246481991,0.221919818367763,0.00415469208658248,,
0.0524134554952092,0.22911518987464,0.00435562370900078,,
0.0526527863422193,0.236384728522191,0.00452770435273075,,
0.0528921171892294,0.242789756436269,0.00469024248596961,,
0.0531314480362394,0.248766971286307,0.00486040739842641,,
0.0533707788832495,0.254357512658148,0.00498458818835923,,
0.0536101097302596,0.259169685340111,0.00511025753106509,,
0.0538494405772697,0.263614498903427,0.00525875792159791,,
0.0540887714242798,0.267044729159565,0.00536715610895211,,
0.0543281022712899,0.270037296028292,0.00544612498364883,,
0.0545674331183,0.272589302355676,0.00555516722474136,,
0.0548067639653101,0.274413157328013,0.00558683100955237,,
0.0550460948123201,0.275491864308898,0.00567142878248283,,
0.0552854256593302,0.276338992118776,0.00570482756920132,,
0.0555247565063403,0.276021270904173,0.00571953236756473,,
0.0557640873533504,0.275511758099235,0.00577435908503787,,
0.0560034182003605,0.274129236242623,0.00575067368021021,,
0.0562427490473706,0.272282204038826,0.00575113043260655,,
0.0564820798943807,0.269946132251214,0.00572319953068723,,
0.0567214107413908,0.266784371592826,0.00570407507784365,,
0.0569607415884008,0.262904889333548,0.00565864628736934,,
0.0572000724354109,0.258524778874726,0.0055882209826712,,
0.057439403282421,0.2538226980422,0.00552117696009979,,
0.0576787341294311,0.248269819671482,0.00542635319107854,,
0.0579180649764412,0.242239876619871,0.00534893530293568,,
0.0581573958234513,0.2356111884222,0.00524911025947628,,
0.0583967266704614,0.228632717173073,0.00512969743880065,,
0.0586360575174715,0.220948692369573,0.00499495876794231,,
0.0588753883644815,0.212865053466976,0.00483385661166125,,
0.0591147192114916,0.204300680155172,0.00468828403684673,,
0.0593540500585017,0.19534960922222,0.00453095090933031,,
0.0595933809055118,0.185721618272929,0.00435731927904648,,
0.0598327117525219,0.175807943802939,0.0041796261670255,,
0.060072042599532,0.165507982141943,0.00397486965403848,,
0.0603113734465421,0.15490420560522,0.0037522472217888,,
0.0605507042935522,0.143889033210076,0.00359646836681415,,
0.0607900351405622,0.132444116314936,0.00335384412280204,,
0.0610293659875723,0.120805693680052,0.00308711715342769,,
0.0612686968345824,0.10887209934534,0.002896473960881,,
0.0615080276815925,0.0966660035403221,0.00263057177461024,,
0.0617473585286026,0.0842182850973299,0.00239553159196637,,
0.0619866893756127,0.0715637098635537,0.00214462665703197,,
0.0622260202226228,0.0587841707234869,0.00187648671261931,,
0.0624653510696329,0.045787345038479,0.00162905506748823,,
0.0627046819166429,0.0327860770507746,0.00136437855491378,,
0.062944012763653,0.0196293526116394,0.00109002152033266,,
0.0631833436106631,0.00652743266772831,0.000794413998373766,,
0.0634226744576732,-0.00661637529345755,0.00054207637247039,,
0.0636620053046833,-0.0197590243930704,0.000260281503007942,,
0.0639013361516934,-0.032830210362347,1.20464336981208E-05,,
0.0641406669987035,-0.0457775912869061,-0.00027258588680068,,
0.0643799978457136,-0.0587235719203978,-0.000551513731330999,,
0.0646193286927236,-0.0715377320499585,-0.000824198197785453,,
0.0648586595397337,-0.0841772420832854,-0.00108907515565582,,
0.0650979903867438,-0.0966662932557154,-0.00134559255888167,,
0.0653373212337539,-0.108873741065902,-0.00161203364726026,,
0.065576652080764,-0.120828508767271,-0.00189611392169731,,
0.0658159829277741,-0.132633686753923,-0.00214124866089405,,
0.0660553137747842,-0.144126696404342,-0.00239294223305908,,
0.0662946446217943,-0.155127962460611,-0.00263066213929308,,
0.0665339754688044,-0.165758392813513,-0.00287811185736064,,
0.0667733063158144,-0.176115718122374,-0.00313842786324736,,
0.0670126371628245,-0.185904814973264,-0.00333532429183547,,
0.0672519680098346,-0.195421193067304,-0.00356513153785532,,
0.0674912988568447,-0.204525595872135,-0.00376288396643742,,
0.0677306297038548,-0.213309621737925,-0.00398756507045794,,
0.0679699605508649,-0.221185003558671,-0.00415988394835143,,
0.068209291397875,-0.229259564712279,-0.0043466184576233,,
0.068448622244885,-0.236185259473935,-0.00452267021840846,,
0.0686879530918951,-0.242664116527394,-0.00468777142264676,,
0.0689272839389052,-0.248662577172938,-0.00480856271548191,,
0.0691666147859153,-0.254373881577867,-0.00501856695204106,,
0.0694059456329254,-0.259017584758653,-0.00511284688997238,,
0.0696452764799355,-0.263398129790565,-0.00523932951482209,,
0.0698846073269456,-0.267118413441249,-0.00534286608224788,,
0.0701239381739557,-0.27031397422885,-0.00543521550195836,,
0.0703632690209657,-0.272802436313314,-0.00552071692171552,,
0.0706025998679758,-0.27441885506408,-0.00559366586555132,,
0.0708419307149859,-0.275973661007881,-0.00564068178845245,,
0.071081261561996,-0.276421802435348,-0.00568794744647683,,
0.0713205924090061,-0.276525858547425,-0.00571972788387809,,
0.0715599232560162,-0.275920353375522,-0.00574148112749073,,
0.0717992541030263,-0.274594615735988,-0.00573640756130667,,
0.0720385849500364,-0.272868636280672,-0.00575838589512845,,
0.0722779157970465,-0.270235751072671,-0.0057348302868454,,
0.0725172466440565,-0.267176984236585,-0.00569964556539837,,
0.0727565774910666,-0.263392721769891,-0.00565619165398878,,
0.0729959083380767,-0.259312708172582,-0.00557348989640039,,
0.0732352391850868,-0.254178951404106,-0.00552623738232993,,
0.0734745700320969,-0.248890824616924,-0.0054467706803818,,
0.073713900879107,-0.242848375517504,-0.00532604182132745,,
0.0739532317261171,-0.236386177099157,-0.00522388701204912,,
0.0741925625731271,-0.22924449951183,-0.00513492873243093,,
0.0744318934201372,-0.221479161254622,-0.00498228963943115,,
0.0746712242671473,-0.213429950197924,-0.00485355611248561,,
0.0749105551141574,-0.204864176595052,-0.00469063516159096,,
0.0751498859611675,-0.195727518809772,-0.00452384167329489,,
0.0753892168081776,-0.186240257112754,-0.0043514439316783,,
0.0756285476551877,-0.176344448425349,-0.00420478369468347,,
0.0758678785021978,-0.166051777935083,-0.00398930007236542,,
0.0761072093492079,-0.155491844994539,-0.00376839128309792,,
0.0763465401962179,-0.144219791617375,-0.00357669986023268,,
0.076585871043228,-0.132904474074818,-0.0033593120076012,,
0.0768252018902381,-0.121124211611986,-0.00311069412063603,,
0.0770645327372482,-0.10929344209893,-0.00289567217969644,,
0.0773038635842583,-0.097147365666215,-0.00266505986650367,,
0.0775431944312684,-0.0846463878767628,-0.0023864244749463,,
0.0777825252782785,-0.0720738503851766,-0.0021630281924141,,
0.0780218561252886,-0.0593228964972443,-0.00194029075056834,,
0.0782611869722986,-0.0464812134053244,-0.00165819521316157,,
0.0785005178193087,-0.0334476904371709,-0.00138515585995336,,
0.0787398486663188,-0.020361439267445,-0.00112278939726673,,
