Time domain (s),Current (AC) (A),Potential (AC) (V),Frequency (Hz),Column 5
0,0.238651510044916,0.0062440125137706,0.50119,0.3
0.0048712189987829,0.236023791428094,0.00619131661486039,,
0.00974243799756579,0.23360022559172,0.00613452705129713,,
0.0146136569963487,0.230976176703213,0.00607579349869836,,
0.0194848759951316,0.228858550322115,0.00604390706177194,,
0.0243560949939145,0.225988436492937,0.00598328219596977,,
0.0292273139926974,0.223278245560836,0.00589367308074351,,
0.0340985329914803,0.220763515947384,0.00584411766476478,,
0.0389697519902632,0.217933189698879,0.00577821518227806,,
0.0438409709890461,0.215159647667453,0.00573041813573694,,
0.048712189987829,0.212336854019173,0.00563875215469212,,
0.0535834089866119,0.209430622337636,0.00558262480158733,,
0.0584546279853947,0.206418934252954,0.00554685791170906,,
0.0633258469841776,0.203451862338834,0.00544545944362262,,
0.0681970659829605,0.200262675289884,0.00536120319626887,,
0.0730682849817434,0.197075226533295,0.00531510180984096,,
0.0779395039805263,0.194145624476702,0.00519772751444281,,
0.0828107229793092,0.190867398230225,0.00514009764594192,,
0.0876819419780921,0.187552305699957,0.00507491004974581,,
0.092553160976875,0.184243152335251,0.00497525740923166,,
0.0974243799756579,0.180944646011247,0.00490709989946403,,
0.102295598974441,0.177520982637356,0.00483829021272975,,
0.107166817973224,0.174215330000319,0.00472654470622924,,
0.112038036972007,0.170681405776346,0.0046670586417461,,
0.116909255970789,0.167298833702399,0.00461795473289817,,
0.121780474969572,0.163716816723145,0.00451143918399577,,
0.126651693968355,0.160070651927235,0.00444186695188531,,
0.131522912967138,0.156488634947982,0.00435774615667084,,
0.136394131965921,0.152913136565076,0.00424313357988959,,
0.141265350964704,0.149125976944449,0.00413282787946123,,
0.146136569963487,0.145449295460449,0.00407522309468966,,
0.15100778896227,0.14157889095016,0.00398214239130201,,
0.155879007961053,0.137754647759196,0.00389120885515837,,
0.160750226959836,0.134021954632501,0.00379097427212027,,
0.165621445958618,0.130124703162437,0.00371692710266869,,
0.170492664957401,0.126241551174844,0.00359492987592569,,
0.175363883956184,0.122445120661633,0.00352101314186726,,
0.180235102954967,0.118438743060109,0.0034047049049728,,
0.18510632195375,0.114473698188023,0.00332223963590428,,
0.189977540952533,0.110329222915715,0.00321979768467129,,
0.194848759951316,0.106404545055089,0.00312588420146431,,
0.199719978950099,0.102284212732219,0.0030383219185639,,
0.204591197948882,0.0982476805868475,0.00289260551721604,,
0.209462416947665,0.0940885505442304,0.00283586862948493,,
0.214333635946447,0.090026330300657,0.00270926101326197,,
0.21920485494523,0.0859056599764944,0.00262164856290292,,
0.224076073944013,0.0817428360626133,0.00252795832488806,,
0.228947292942796,0.0774527063763461,0.00241330561413999,,
0.233818511941579,0.0732584241993474,0.00231576000690303,,
0.238689730940362,0.0691002115888089,0.00220576283634744,,
0.243560949939145,0.0648529839236928,0.00209739861658198,,
0.248432168937928,0.0605758431442232,0.00199768828349001,,
0.253303387936711,0.0562453464464958,0.00191752068404316,,
0.258174606935493,0.0520056513816044,0.00180200509300033,,
0.263045825934276,0.0476676462266019,0.00167683728284995,,
0.267917044933059,0.0433870047194638,0.00158345808308091,,
0.272788263931842,0.0390648373392925,0.00145774846437385,,
0.277659482930625,0.034760801314149,0.001361722931144,,
0.282530701929408,0.0304338294870396,0.00123180927937439,,
0.287401920928191,0.026066273361925,0.0011549251401175,,
0.292273139926974,0.0217358008071471,0.001053777509326,,
0.297144358925757,0.0173821510209088,0.000920051130674171,,
0.30201557792454,0.0130694476769171,0.000841378521504677,,
0.306886796923322,0.00867733817222421,0.000709435596019325,,
0.311758015922105,0.00427909635837408,0.000601678402507577,,
0.316629234920888,-7.04974123586794E-05,0.000500099331568471,,
0.321500453919671,-0.00442704435252955,0.000365429804687789,,
0.326371672918454,-0.00883173233387961,0.000286135119027087,,
0.331242891917237,-0.013209090496466,0.000170822706193174,,
0.33611411091602,-0.0175429913500641,5.2595563992508E-05,,
0.340985329914803,-0.0218787270678195,-3.75553597913303E-05,,
0.345856548913586,-0.0262377848747319,-0.000150973951048794,,
0.350727767912368,-0.0305643945575998,-0.00026771362809086,,
0.355598986911151,-0.0348979574099058,-0.000355777585580697,,
0.360470205909934,-0.039275363858391,-0.000501744824223493,,
0.365341424908717,-0.0435694771313154,-0.000623461113196111,,
0.3702126439075,-0.0479326392396323,-0.000722492931405139,,
0.375083862906283,-0.0521928075256471,-0.000802558941747744,,
0.379955081905066,-0.0565249700868856,-0.000927054507947833,,
0.384826300903849,-0.0607962441296418,-0.00112846682225287,,
0.389697519902632,-0.0649752438196464,-0.00117274462154704,,
0.394568738901415,-0.0692294246542005,-0.00123769141394003,,
0.399439957900197,-0.0734560342404966,-0.0013545916268507,,
0.40431117689898,-0.0776989644606127,-0.0014574951187063,,
0.409182395897763,-0.0818252359490449,-0.00155121796556923,,
0.414053614896546,-0.0860999382906212,-0.00168953090415824,,
0.418924833895329,-0.0902397781166375,-0.00177725246874072,,
0.423796052894112,-0.0943624281626539,-0.00188241349625073,,
0.428667271892895,-0.0982965700594593,-0.00198759459074394,,
0.433538490891678,-0.102522745072665,-0.00209740112495549,,
0.438409709890461,-0.106520962357279,-0.00222547864772649,,
0.443280928889244,-0.11058885619397,-0.00230526497448524,,
0.448152147888026,-0.114625702197684,-0.0024078473946032,,
0.453023366886809,-0.118526623396063,-0.00251078098693469,,
0.457894585885592,-0.12246327615961,-0.00261293196690593,,
0.462765804884375,-0.126442227370572,-0.00273245217536155,,
0.467637023883158,-0.130319198763108,-0.00281025061655837,,
0.472508242881941,-0.134133591630702,-0.00293806601435609,,
0.477379461880724,-0.13806889238908,-0.00301903754733335,,
0.482250680879507,-0.141801971802967,-0.00310971021269024,,
0.48712189987829,-0.145556490155954,-0.00321261370454584,,
0.491993118877072,-0.14931834796557,-0.0033299353241123,,
0.496864337875855,-0.152919896590919,-0.003402769695243,,
0.501735556874638,-0.156711305370647,-0.00351762182164084,,
0.506606775873421,-0.160254572916053,-0.00360638812355685,,
0.511477994872204,-0.163797164458874,-0.00368274425030757,,
0.516349213870987,-0.167248640510517,-0.00379413482203628,,
0.52122043286977,-0.170912043372326,-0.00385813846620042,,
0.526091651868553,-0.174198574793409,-0.00396526605810221,,
0.530962870867336,-0.177766661290837,-0.00406795884663014,,
0.535834089866119,-0.181089117420683,-0.00414424348475251,,
0.540705308864901,-0.184551844086764,-0.00421522918501971,,
0.545576527863684,-0.187776907558578,-0.00433335473811614,,
0.550447746862467,-0.190890334032191,-0.00441427484944779,,
0.55531896586125,-0.194261703777599,-0.00448497083263977,,
0.560190184860033,-0.197389905736268,-0.00457025551290213,,
0.565061403858816,-0.200613617202914,-0.00467196501923439,,
0.569932622857599,-0.20342496709316,-0.00474640349486588,,
0.574803841856382,-0.206456210966886,-0.00480797903401564,,
0.579675060855165,-0.20946094588213,-0.00491521574014087,,
0.584546279853947,-0.212410828016251,-0.00497525866341864,,
0.58941749885273,-0.215387363966551,-0.00505682969753041,,
0.594288717851513,-0.218066845066968,-0.00515606093138921,,
0.599159936850296,-0.221143043112548,-0.00521108460039654,,
0.604031155849079,-0.223607169103978,-0.00527964344983589,,
0.608902374847862,-0.226179069221699,-0.0053551655425812,,
0.613773593846645,-0.228873229235373,-0.00541499525415867,,
0.618644812845428,-0.231485061791465,-0.00550560771856468,,
0.623516031844211,-0.233854209419806,-0.0055754395672758,,
0.628387250842994,-0.236368166458876,-0.00563059492586282,,
0.633258469841776,-0.238998637371934,-0.00569853295299749,,
0.638129688840559,-0.241193279761738,-0.00578036485789601,,
0.643000907839342,-0.243421384279463,-0.00585279663516847,,
0.647872126838125,-0.245794346493816,-0.00590295280646824,,
0.652743345836908,-0.247873392441712,-0.00595159517469313,,
0.657614564835691,-0.249805166398036,-0.0060137250642649,,
0.662485783834474,-0.251991745042728,-0.00605542300198092,,
0.667357002833257,-0.254184311138881,-0.00612196511956942,,
0.67222822183204,-0.256040034804476,-0.00618856618392227,,
0.677099440830823,-0.257799186672319,-0.00622807932879965,,
0.681970659829605,-0.259555055099039,-0.00627511633833766,,
0.686841878828388,-0.261377171779017,-0.0063249326251027,,
0.691713097827171,-0.262965970995626,-0.00639271889567405,,
0.696584316825954,-0.264634152229988,-0.00644555526346968,,
0.701455535824737,-0.26627954252008,-0.00647823434624817,,
0.70632675482352,-0.26760759788276,-0.00653414096253302,,
0.711197973822303,-0.269099825301618,-0.00656344879206827,,
0.716069192821086,-0.270466509383399,-0.00659686031974749,,
0.720940411819869,-0.271893261123381,-0.00665652071615064,,
0.725811630818652,-0.273235850541623,-0.00669624205598307,,
0.730682849817434,-0.27431837210852,-0.00671221537492173,,
0.735554068816217,-0.27547375709682,-0.00676747984773174,,
0.740425287815,-0.276473082059954,-0.00677657019129896,,
0.745296506813783,-0.277494232249379,-0.00684981468140666,,
0.750167725812566,-0.278222383604426,-0.00685902417268869,,
0.755038944811349,-0.279195634182167,-0.00687759616600214,,
0.759910163810132,-0.280032718525078,-0.00692323852018051,,
0.764781382808915,-0.280723593166193,-0.00693369467281801,,
0.769652601807698,-0.281256090058996,-0.00695665130204626,,
0.77452382080648,-0.281799161563652,-0.00700982880856316,,
0.779395039805263,-0.282406453313813,-0.00698632033728597,,
0.784266258804046,-0.282941654216952,-0.00704662162297787,,
0.789137477802829,-0.283374682158071,-0.00702317460683766,,
0.794008696801612,-0.283521085003462,-0.00704978217289343,,
0.798879915800395,-0.28365778238318,-0.00706184243003172,,
0.803751134799178,-0.284162128596937,-0.00706998962536964,,
0.808622353797961,-0.28435314761289,-0.00711069550158427,,
0.813493572796744,-0.28443175705626,-0.00708667532222584,,
0.818364791795526,-0.284234750588847,-0.00709912688554404,,
0.823236010794309,-0.284145856249016,-0.00714617392857386,,
0.828107229793092,-0.284187430407948,-0.00713039124597925,,
0.832978448791875,-0.283929728565648,-0.007144929775591,,
0.837849667790658,-0.283248559390207,-0.00712060859147856,,
0.842720886789441,-0.283286174105431,-0.00713628090566321,,
0.847592105788224,-0.282567100499373,-0.00713299995384631,,
0.852463324787007,-0.282026926148649,-0.00713944145557877,,
0.85733454378579,-0.281829533394045,-0.00711371558261487,,
0.862205762784573,-0.281175549179671,-0.00708821044647046,,
0.867076981783355,-0.280464587604624,-0.00708456828894866,,
0.871948200782138,-0.279778927840587,-0.00709181247002499,,
0.876819419780921,-0.279130351646887,-0.00708305323168767,,
0.881690638779704,-0.277929771057239,-0.00708040564403989,,
0.886561857778487,-0.277162025265114,-0.00706662840561822,,
0.89143307677727,-0.276068253083779,-0.00701716329106583,,
0.896304295776053,-0.274974480902444,-0.00701924022386757,,
0.901175514774836,-0.273864484659087,-0.0069564318194133,,
0.906046733773619,-0.272573319723148,-0.00697289552526348,,
0.910917952772402,-0.271199682471929,-0.00692743377393779,,
0.915789171771184,-0.269935943926551,-0.00694790335138729,,
0.920660390769967,-0.268565783260051,-0.00691349599964708,,
0.92553160976875,-0.267038403706812,-0.00685102873391408,,
0.930402828767533,-0.265771574863906,-0.00684096388745647,,
0.935274047766316,-0.264290742917183,-0.00679841310293794,,
0.940145266765099,-0.262609814205518,-0.00677449325849722,,
0.945016485763882,-0.260777702344474,-0.00672885090431885,,
0.949887704762665,-0.25897002314826,-0.00668455303804105,,
0.954758923761448,-0.257291991590528,-0.00665037896498522,,
0.959630142760231,-0.255366301657462,-0.00661263296885029,,
0.964501361759013,-0.253431437403609,-0.0065791298855582,,
0.969372580757796,-0.2513400785515,-0.00653922668868701,,
0.974243799756579,-0.249121051782764,-0.00647756210229788,,
0.979115018755362,-0.24720125272936,-0.00644015724488378,,
0.983986237754145,-0.244856441194052,-0.00637088601752689,,
0.988857456752928,-0.242743063972056,-0.00631998736783412,,
0.993728675751711,-0.240463390114331,-0.00628454782062526,,
0.998599894750494,-0.238004092712789,-0.00623115961078113,,
1.00347111374928,-0.235647740847649,-0.00617326636312043,,
1.00834233274806,-0.233168694513466,-0.00612402198538753,,
1.01321355174684,-0.230850053935349,-0.00606499495315393,,
1.01808477074563,-0.228203600389764,-0.00602199266150416,,
1.02295598974441,-0.225422767187607,-0.00596311487746126,,
1.02782720874319,-0.222780755944718,-0.0058833285507025,,
1.03269842774197,-0.220109918020201,-0.00583803736873723,,
1.03756964674076,-0.217367230678156,-0.00574532915873194,,
1.04244086573954,-0.214496585704091,-0.00570341800931518,,
1.04731208473832,-0.211722464241878,-0.00563705649457891,,
1.05218330373711,-0.208753316034105,-0.00554967356034464,,
1.05705452273589,-0.205614684321279,-0.00552496232423838,,
1.06192574173467,-0.20276523685682,-0.00542635316687123,,
1.06679696073345,-0.199579526392589,-0.00533805969325618,,
1.07166817973224,-0.196532299886335,-0.00527531901487199,,
1.07653939873102,-0.193246154752443,-0.00520355822736329,,
1.0814106177298,-0.18988275218035,-0.00512372298733199,,
1.08628183672859,-0.186714810926906,-0.00504974605232267,,
1.09115305572737,-0.183381345612116,-0.00496874567305694,,
1.09602427472615,-0.180188633692548,-0.00489042423610009,,
1.10089549372493,-0.176753429988827,-0.00481550415286236,,
1.10576671272372,-0.173336719784374,-0.00475995874228197,,
1.1106379317225,-0.169863804793631,-0.00465568191623644,,
1.11550915072128,-0.166278480230304,-0.00458519412799951,,
1.12038036972007,-0.162589630699788,-0.00448264306254309,,
1.12525158871885,-0.159183543393089,-0.0044050440369956,,
1.13012280771763,-0.155419319574427,-0.00431109919912709,,
1.13499402671641,-0.151889282365314,-0.00421991607987504,,
1.1398652457152,-0.148265377368785,-0.00414038059041122,,
1.14473646471398,-0.144477590031473,-0.00404572462881125,,
1.14960768371276,-0.14064987025579,-0.00397027277050821,,
1.15447890271155,-0.136797041812691,-0.00389746849985251,,
1.15935012171033,-0.133049669772738,-0.00379216825764406,,
1.16422134070911,-0.129194330462898,-0.00366527594109156,,
1.16909255970789,-0.125392105641821,-0.00356009359241183,,
1.17396377870668,-0.121302676294231,-0.00350522042578127,,
1.17883499770546,-0.117320779643438,-0.00341624467472457,,
1.18370621670424,-0.113371620832082,-0.00330989718680996,,
1.18857743570303,-0.109404306522749,-0.00319885778729434,,
1.19344865470181,-0.105271564723867,-0.00313178389464053,,
1.19831987370059,-0.101247611055153,-0.00301890711193975,,
1.20319109269938,-0.0972631069658203,-0.00291295218439158,,
1.20806231169816,-0.0932099403282862,-0.00280638772221709,,
1.21293353069694,-0.0889589946489567,-0.00268847412663487,,
1.21780474969572,-0.0847826989692892,-0.00261243907162134,,
1.22267596869451,-0.0806584554886098,-0.0025121555753107,,
1.22754718769329,-0.0764918169887175,-0.00239979175487814,,
1.23241840669207,-0.0722791620271965,-0.00229744888437633,,
1.23728962569086,-0.0680083708434291,-0.00216748506514763,,
1.24216084468964,-0.0636964400738195,-0.00209018829854069,,
1.24703206368842,-0.0594836402546019,-0.0019578151870947,,
1.2519032826872,-0.0551916998471268,-0.00185864415418679,,
1.25677450168599,-0.0508991317229664,-0.00176666838908313,,
1.26164572068477,-0.0466445646012212,-0.00167625408613992,,
1.26651693968355,-0.0423050142974547,-0.00155948556280894,,
1.27138815868234,-0.0380259179390806,-0.00145336132008644,,
1.27625937768112,-0.0336461937674493,-0.00134084574309057,,
1.2811305966799,-0.0293069814649749,-0.00123577501700689,,
1.28600181567868,-0.0250209802230615,-0.00112292833478156,,
1.29087303467747,-0.0206582526878346,-0.00101417406302273,,
1.29574425367625,-0.0162524058449115,-0.000898178118559745,,
1.30061547267503,-0.0119061438012012,-0.000802790966245581,,
1.30548669167382,-0.00753921539277199,-0.000704742430232219,,
1.3103579106726,-0.00315924979164635,-0.000553036034282695,,
1.31522912967138,0.00121892923122089,-0.000487376863972155,,
1.32010034867016,0.00556504641723459,-0.000368049800233194,,
1.32497156766895,0.0099658232407757,-0.000263740365339604,,
1.32984278666773,0.0143445816944295,-0.000177703173192434,,
1.33471400566651,0.0186377775352753,-4.95754829623607E-05,,
1.3395852246653,0.0230540058464566,7.56324611552728E-05,,
1.34445644366408,0.027349712554044,0.000195552755096085,,
1.34932766266286,0.0316886834270241,0.000289857544483407,,
1.35419888166165,0.0360359594746108,0.000380570343807562,,
1.35907010066043,0.040349411250035,0.000509831818610529,,
1.36394131965921,0.0446905308455151,0.000623117466101775,,
1.36881253865799,0.0489598010234679,0.000701689740353117,,
1.37368375765678,0.0532425188242577,0.000843024014159255,,
1.37855497665556,0.0575770473945412,0.000947482697243096,,
1.38342619565434,0.0618088477149664,0.00106005847518986,,
1.38829741465313,0.0660524056517679,0.00115580808739546,,
1.39316863365191,0.0702673783364349,0.0012711631425697,,
1.39803985265069,0.0745292849148092,0.00139960187104515,,
1.40291107164947,0.0787044458758531,0.00151359237133519,,
1.40778229064826,0.0829347010475143,0.00158354838450725,,
1.41265350964704,0.0870026914560033,0.00170848291597325,,
1.41752472864582,0.091259383157299,0.00179815223215085,,
1.42239594764461,0.0952375617938791,0.00190736428197313,,
1.42726716664339,0.0994504098989956,0.00201187564088912,,
1.43213838564217,0.10348208931153,0.00211268464133241,,
1.43700960464095,0.107502566395525,0.00220977623306595,,
1.44188082363974,0.1115690357982,0.00229744888437589,,
1.44675204263852,0.115568436087336,0.00241661666643234,,
1.4516232616373,0.119483070480995,0.002508182312559,,
1.45649448063609,0.123502557704063,0.00264940370958255,,
1.46136569963487,0.127475545606514,0.00272987231378341,,
1.46623691863365,0.13126193265276,0.00283695224659875,,
1.47110813763243,0.134989990333163,0.00292694263451398,,
1.47597935663122,0.138949047753788,0.00304066975564421,,
1.48085057563,0.142725198189472,0.00311765673819187,,
1.48572179462878,0.146619745649199,0.00322948000425383,,
1.49059301362757,0.150147537564015,0.00331861754536611,,
1.49546423262635,0.153876536819446,0.00341606532605798,,
1.50033545162513,0.157468235121425,0.00352744461010834,,
1.50520667062391,0.161078837352813,0.00359684627285839,,
1.5100778896227,0.164747044661559,0.00371563278222675,,
1.51494910862148,0.168312475434549,0.00377627520663948,,
1.51982032762026,0.171666993401249,0.0038904538349005,,
1.52469154661905,0.175112868288622,0.00401184152701717,,
1.52956276561783,0.178550051714198,0.00409167049611581,,
1.53443398461661,0.181971204221346,0.00419260491520657,,
1.5393052036154,0.185196895409846,0.00424369545542991,,
1.54417642261418,0.188414860854525,0.0043612980127663,,
1.54904764161296,0.191727273517406,0.00442984682871383,,
1.55391886061174,0.194944297387057,0.00453420517688041,,
1.55879007961053,0.19804999811685,0.00462003919081866,,
1.56366129860931,0.201167746178413,0.00464552425997944,,
1.56853251760809,0.204428396357698,0.00475129983886191,,
1.57340373660688,0.20720039324036,0.00483278433410694,,
1.57827495560566,0.210241632295154,0.00491318019549247,,
1.58314617460444,0.212951050652874,0.00503031117871444,,
1.58801739360322,0.216087509500251,0.00507356556184524,,
1.59288861260201,0.218747483097521,0.00517647908719265,,
1.59775983160079,0.22145091400378,0.00524598108486085,,
1.60263105059957,0.224080950343747,0.00532830588504396,,
1.60750226959836,0.226759079438995,0.00539774015664252,,
1.61237348859714,0.22915000400773,0.00543279466860369,,
1.61724470759592,0.231847254318932,0.00555318904503199,,
1.6221159265947,0.234203606184072,0.00559164491071185,,
1.62698714559349,0.236817225318421,0.00563229058597559,,
1.63185836459227,0.23897174212626,0.00572833116944338,,
1.63672958359105,0.241549436551846,0.0057942712775243,,
