Time domain (s),Current (AC) (A),Potential (AC) (V),Frequency (Hz),Column 5
0,-0.237732001672624,-0.00440960790226752,39.811,0.3
0.000239167174273442,-0.246119069163756,-0.00462961663911399,,
0.000478334348546884,-0.253406425307992,-0.00482066746591947,,
0.000717501522820326,-0.260070989928527,-0.00498664933277926,,
0.000956668697093768,-0.265609189385987,-0.00514316572893714,,
0.00119583587136721,-0.270239807088177,-0.00527251023999931,,
0.00143500304564065,-0.273960477026052,-0.00539783196447186,,
0.00167417021991409,-0.276874482737308,-0.00552067848297044,,
0.00191333739418754,-0.278287714425605,-0.00558204020819941,,
0.00215250456846098,-0.279113017009191,-0.00563978373302376,,
0.00239167174273442,-0.278852273155261,-0.00564709397465757,,
0.00263083891700786,-0.277794811969881,-0.00568785410982731,,
0.0028700060912813,-0.27547375709682,-0.00567674106572769,,
0.00310917326555475,-0.27209475817939,-0.00567888091129021,,
0.00334834043982819,-0.267860084847982,-0.00561880063203768,,
0.00358750761410163,-0.262796246061078,-0.00555338996826116,,
0.00382667478837507,-0.256797592271938,-0.00545798762289929,,
0.00406584196264851,-0.249495219213152,-0.00537116311999331,,
0.00430500913692196,-0.241606655342014,-0.00522957333885454,,
0.0045441763111954,-0.232754111785719,-0.00508463610700138,,
0.00478334348546884,-0.222988192166289,-0.00492782280919446,,
0.00502251065974228,-0.212787940886471,-0.00476988959221414,,
0.00526167783401572,-0.201547707916666,-0.00456147386482764,,
0.00550084500828917,-0.1896958857517,-0.00433569323685967,,
0.00574001218256261,-0.177072551494497,-0.00412389313834627,,
0.00597917935683605,-0.163752982861403,-0.00389288211863681,,
0.00621834653110949,-0.15011767273556,-0.00363715903630046,,
0.00645751370538294,-0.135699648188941,-0.00337371958779453,,
0.00669668087965638,-0.120877567240528,-0.00309437974839577,,
0.00693584805392982,-0.105654230472458,-0.00278738498183939,,
0.00717501522820326,-0.0900155866881571,-0.00251959046303396,,
0.0074141824024767,-0.0740911386684101,-0.0021802057264444,,
0.00765334957675015,-0.0577940200811396,-0.00185809974280726,,
0.00789251675102359,-0.0414380409831395,-0.00153424465463781,,
0.00813168392529703,-0.0248161031541315,-0.00119883501577167,,
0.00837085109957047,-0.00815515031883179,-0.000855673628674669,,
0.00861001827384391,0.00863462929466856,-0.00052591435123972,,
0.00884918544811735,0.0252200629841265,-0.00017979625445852,,
0.0090883526223908,0.0417964189245958,0.000163403591401323,,
0.00932751979666424,0.0582734990569764,0.000515648938272495,,
0.00956668697093768,0.0744660545302313,0.000843231449732862,,
0.00980585414521112,0.0903596720035461,0.00117946564447369,,
0.0100450213194846,0.106100295606273,0.00147585040754716,,
0.010284188493758,0.121370638696899,0.00179735335778375,,
0.0105233556680314,0.136134124707025,0.00215048787125083,,
0.0107625228423049,0.150511516669741,0.00244706646648929,,
0.0110016900165783,0.164196730272072,0.00273520259411697,,
0.0112408571908518,0.177475762893059,0.00304493100953307,,
0.0114800243651252,0.189996079185011,0.00333294714582077,,
0.0117191915393987,0.201951860890257,0.00361030558976028,,
0.0119583587136721,0.213080408575962,0.00387813856732855,,
0.0121975258879455,0.223453378516058,0.00410020254045929,,
0.012436693062219,0.232836487529201,0.00433819151809178,,
0.0126758602364924,0.241587823841452,0.00456721191223819,,
0.0129150274107659,0.24963360659933,0.00475272467719989,,
0.0131541945850393,0.25639034900082,0.00491413764303861,,
0.0133933617593128,0.262516863850182,0.00508899271565211,,
0.0136325289335862,0.267760712468095,0.00525961424765642,,
0.0138716961078596,0.271861344144224,0.00533927311387661,,
0.0141108632821331,0.275136093805981,0.00547858921295852,,
0.0143500304564065,0.27731166326573,0.0055536114907353,,
0.01458919763068,0.278549713712906,0.00566027763854704,,
0.0148283648049534,0.278649568951781,0.00566161600349258,,
0.0150675319792268,0.278080954206619,0.00569315834239381,,
0.0153066991535003,0.276349615016528,0.00572083634480869,,
0.0155458663277737,0.273467139997238,0.00570085009495447,,
0.0157850335020472,0.270051009223572,0.0056798177667523,,
0.0160242006763206,0.265267035506553,0.00563417183035586,,
0.0162633678505941,0.259487985985501,0.00553808030396441,,
0.0165025350248675,0.253214102572769,0.0054511081194093,,
0.0167417021991409,0.245690966384323,0.0053327166639936,,
0.0169808693734144,0.237251363835214,0.00520345830056046,,
0.0172200365476878,0.228052706955777,0.00504350676770882,,
0.0174592037219613,0.218442074787132,0.00488812105917669,,
0.0176983708962347,0.207348679235808,0.00467691168726025,,
0.0179375380705082,0.196060981227408,0.00448952828807547,,
0.0181767052447816,0.18392364454239,0.00428636756603806,,
0.018415872419055,0.170770372545024,0.00400402486643925,,
0.0186550395933285,0.15749290921575,0.0037793918479534,,
0.0188942067676019,0.143314793157695,0.0035003196815433,,
0.0191333739418754,0.128828854494307,0.00322672711965755,,
0.0193725411161488,0.113729878058791,0.00296899802825346,,
0.0196117082904222,0.098335923067043,0.00264971030275429,,
0.0198508754646957,0.0825630444838672,0.00234112026671696,,
0.0200900426389691,0.06647109268092,0.0020214971808068,,
0.0203292098132426,0.0501531628712341,0.00170012960541532,,
0.020568376987516,0.0335445519503157,0.00137607914673099,,
0.0208075441617895,0.0168949945871507,0.00103967265673299,,
0.0210467113360629,0.000195244032104329,0.000691671618924694,,
0.0212858785103363,-0.0164404311351339,0.000381137107840157,,
0.0215250456846098,-0.0330239333886368,1.80863869716497E-05,,
0.0217642128588832,-0.0495154992906801,-0.000315860280557523,,
0.0220033800331567,-0.0659356020623873,-0.000645645709951292,,
0.0222425472074301,-0.0821223873707266,-0.000984476640356391,,
0.0224817143817036,-0.0979796697051373,-0.00130691490770429,,
0.022720881555977,-0.113463798613036,-0.00167339922691578,,
0.0229600487302504,-0.128523204754423,-0.00198955948582347,,
0.0231992159045239,-0.14311655539986,-0.00229502974702234,,
0.0234383830787973,-0.157180885737215,-0.00261052543850848,,
0.0236775502530708,-0.170691859673452,-0.00291735713991015,,
0.0239167174273442,-0.183727700364752,-0.00321394035020006,,
0.0241558846016176,-0.195918924112916,-0.00346881426305412,,
0.0243950517758911,-0.207463889390526,-0.00374065925875788,,
0.0246342189501645,-0.218210785331517,-0.00399796838047273,,
0.024873386124438,-0.228240394244707,-0.00421641569154918,,
0.0251125532987114,-0.237454068038694,-0.00441520749813185,,
0.0253517204729849,-0.245700478706401,-0.00465360260029968,,
0.0255908876472583,-0.253365623723442,-0.00483217278940007,,
0.0258300548215317,-0.259952979191675,-0.00501056145313994,,
0.0260692219958052,-0.265463752258573,-0.0051554986849931,,
0.0263083891700786,-0.270075635031999,-0.00531140127929719,,
0.0265475563443521,-0.273789158656841,-0.00542431774523955,,
0.0267867235186255,-0.276819098811298,-0.00550051993785949,,
0.027025890692899,-0.278293508733471,-0.00559433470549253,,
0.0272650578671724,-0.279132138225146,-0.00564126054951553,,
0.0275042250414458,-0.279092543788067,-0.00569299681558944,,
0.0277433922157193,-0.27777897419505,-0.00567221216181979,,
0.0279825593899927,-0.275556857128785,-0.00567488119995829,,
0.0282217265642662,-0.272383121567476,-0.00567346591748752,,
0.0284608937385396,-0.267901031290228,-0.0056352179087038,,
0.028700060912813,-0.262832315627538,-0.0055669766799844,,
0.0289392280870865,-0.256668186062951,-0.00549565875024083,,
0.0291783952613599,-0.24963577946478,-0.00539795503251295,,
0.0294175624356334,-0.241884009545157,-0.00525648831941528,,
0.0296567296099068,-0.23305387064594,-0.00511443087972063,,
0.0298958967841803,-0.223374672500891,-0.00495859135778787,,
0.0301350639584537,-0.213006386292985,-0.00476319469078534,,
0.0303742311327271,-0.201911445592898,-0.00457375605531674,,
0.0306133983070006,-0.189997962335067,-0.00437609647471104,,
0.030852565481274,-0.177502489138087,-0.00413483542553905,,
0.0310917326555475,-0.164219231500948,-0.00389555269512609,,
0.0313308998298209,-0.150455046311006,-0.00366259566201865,,
0.0315700670040944,-0.136213555010676,-0.0033761563350061,,
0.0318092341783678,-0.121291908538782,-0.00310534511084626,,
0.0320484013526412,-0.10599261805178,-0.00275749329303787,,
0.0322875685269147,-0.0903771514989392,-0.00246388832933953,,
0.0325267357011881,-0.0744214142167206,-0.0021440975632232,,
0.0327659028754616,-0.058259641003999,-0.00186240712424146,,
0.033005070049735,-0.0418679786267297,-0.00153515689649142,,
0.0332442372240084,-0.0252862146655864,-0.00119577215990185,,
0.0334834043982819,-0.00859648343455667,-0.00086770968308203,,
0.0337225715725553,0.00812994507961862,-0.000540104096363958,,
0.0339617387468288,0.0248349346546931,-0.000206403564916524,,
0.0342009059211022,0.0414269352263981,0.000129362971268421,,
0.0344400730953757,0.0577419678821515,0.000475405688874719,,
0.0346792402696491,0.0740948566826235,0.000838960988711168,,
0.0349184074439225,0.0901053018882684,0.00116873411130092,,
0.035157574618196,0.105725766031643,0.00150354071676606,,
0.0353967417924694,0.120984713650134,0.00180440515653135,,
0.0356359089667429,0.135780671927254,0.00213521205066503,,
0.0358750761410163,0.150134524514268,0.00242998462240251,,
0.0361142433152898,0.163932316689828,0.00275406892479824,,
0.0363534104895632,0.177111663072586,0.00306463420289305,,
0.0365925776638366,0.189712375386166,0.00332913203655094,,
0.0368317448381101,0.201634912250036,0.00361525292500753,,
0.0370709120123835,0.212613580505631,0.00384405179668024,,
0.037310079186657,0.222975348117188,0.00411978266577817,,
0.0375492463609304,0.232749186624033,0.00433299804676279,,
0.0377884135352038,0.241367833286174,0.00455982475307914,,
0.0380275807094773,0.249318589395065,0.00476976652417394,,
0.0382667478837507,0.256214588328912,0.00495007351100263,,
0.0385059150580242,0.262270798909511,0.00508558065421605,,
0.0387450822322976,0.267414406001358,0.00524770126129015,,
0.0389842494065711,0.271494178169173,0.00535604113445931,,
0.0392234165808445,0.275086649045533,0.00547390032059747,,
0.0394625837551179,0.277023493021239,0.00557906196160829,,
0.0397017509293914,0.27832489456774,0.00560934900649146,,
0.0399409181036648,0.278816831305487,0.0056689385519304,,
0.0401800852779383,0.278155893921675,0.00572513141943842,,
0.0404192524522117,0.276278345029788,0.00567516579480376,,
0.0406584196264852,0.273501133270047,0.00569241993414815,,
0.0408975868007586,0.269861728499979,0.00565473650000214,,
0.041136753975032,0.265329614031496,0.00560896749556461,,
0.0413759211493055,0.259665291806173,0.00553003165408494,,
0.0416150883235789,0.25346750697007,0.00543986277716524,,
0.0418542554978524,0.245671458881177,0.0053327535844061,,
0.0420934226721258,0.237368022566898,0.00521436212899085,,
0.0423325898463992,0.228364247575324,0.00502680643454889,,
0.0425717570206727,0.218336425240391,0.00486257213387109,,
0.0428109241949461,0.207616762546367,0.00467213664727018,,
0.0430500913692196,0.196280223351254,0.00448580855653713,,
0.043289258543493,0.184155803144185,0.00426681205432766,,
0.0435284257177665,0.171255549256928,0.00401420567012867,,
0.0437675928920399,0.157857009036223,0.00376997714281924,,
0.0440067600663133,0.143758081852324,0.00352089665799404,,
0.0442459272405868,0.129250100676099,0.00324256597653072,,
0.0444850944148602,0.114293060640329,0.00295451291983095,,
0.0447242615891337,0.0987602595463636,0.00265359925284914,,
0.0449634287634071,0.0828916058827676,0.00234073567908899,,
0.0452025959376805,0.066888669134398,0.00203199488470185,,
0.045441763111954,0.0505212945642632,0.00171846674352016,,
0.0456809302862274,0.0340023022716584,0.00138484466794919,,
0.0459200974605009,0.0173494614673698,0.00106315403895074,,
0.0461592646347743,0.000677523590075896,0.000700718658286803,,
0.0463984318090478,-0.0160145495070493,0.000380212559182525,,
0.0466375989833212,-0.0326233052856642,2.53581698426153E-05,,
0.0468767661575946,-0.0490838233547304,-0.000309202299540789,,
0.0471159333318681,-0.0655470454341337,-0.00067333601917019,,
0.0473551005061415,-0.0816590358851143,-0.00101024862648647,,
0.047594267680415,-0.0975617069644683,-0.00131935708664654,,
0.0478334348546884,-0.112952740659334,-0.00167716510896954,,
0.0480726020289619,-0.128146961030382,-0.00199774504889882,,
0.0483117692032353,-0.142864696151324,-0.00229611120743201,,
0.0485509363775087,-0.15673955262149,-0.00258365968516427,,
0.0487901035517822,-0.170312332508288,-0.00289909538098065,,
0.0490292707260556,-0.183282697520712,-0.00317661381337331,,
0.0492684379003291,-0.195448812601461,-0.0034339137049848,,
0.0495076050746025,-0.207061571281093,-0.00371715326293254,,
0.0497467722488759,-0.21786660344433,-0.00398745990812399,,
0.0499859394231494,-0.227695922448984,-0.00421533269278873,,
0.0502251065974228,-0.237224178874147,-0.00445169563392955,,
0.0504642737716963,-0.245677108331346,-0.00463148727333662,,
0.0507034409459697,-0.2531268982394,-0.00482590862611465,,
0.0509426081202432,-0.259571472304657,-0.00501058760509876,,
0.0511817752945166,-0.26537282991099,-0.00515018214562302,,
0.05142094246879,-0.269836716404362,-0.00530154199086441,,
0.0516601096430635,-0.273972113927681,-0.00538546516470495,,
0.0518992768173369,-0.276679987136637,-0.00550435966073781,,
0.0521384439916104,-0.278221079885157,-0.00557785589480631,,
0.0523776111658838,-0.279209975094133,-0.0056477216216666,,
0.0526167783401572,-0.278852273155261,-0.00568136688571785,,
0.0528559455144307,-0.277937400229261,-0.0056969349929008,,
0.0530951126887041,-0.275470859942887,-0.00568316521746626,,
0.0533342798629776,-0.272271484569275,-0.00566677255440906,,
0.053573447037251,-0.268270176987134,-0.00562825225758479,,
0.0538126142115245,-0.262746801300629,-0.00557017644904967,,
0.0540517813857979,-0.256867703397106,-0.00547983220017167,,
0.0542909485600713,-0.249828923060283,-0.00539197546407211,,
0.0545301157343448,-0.242188838424759,-0.00522236155165334,,
0.0547692829086182,-0.233192499461612,-0.00512604850278864,,
0.0550084500828917,-0.223735464737291,-0.00494939663677663,,
0.0552476172571651,-0.213317106052251,-0.00478378397404011,,
0.0554867844314386,-0.202225255649692,-0.0045742867862435,,
0.055725951605712,-0.190385553245344,-0.00435021526569424,,
0.0559651187799854,-0.177760577267578,-0.00413337091585131,,
0.0562042859542589,-0.164530434119202,-0.00389380512894411,,
0.0564434531285323,-0.150843071794372,-0.00365367476739875,,
0.0566826203028058,-0.136423550384887,-0.00336548633585387,,
0.0569217874770792,-0.121664096247317,-0.00311894412937352,,
0.0571609546513526,-0.10644187005492,-0.00281261393023868,,
0.0574001218256261,-0.0908824151447756,-0.00250176867235075,,
0.0576392889998995,-0.0749168275391864,-0.00219817519877674,,
0.057878456174173,-0.0586820460473646,-0.00188828833325783,,
0.0581176233484464,-0.0422660475770619,-0.00156377021601761,,
0.0583567905227199,-0.0256607200972671,-0.00122395320293434,,
0.0585959576969933,-0.00896828485590039,-0.000887792849018076,,
0.0588351248712667,0.0077703117047916,-0.00053626437348564,,
0.0590742920455402,0.0244026551450074,-0.000201371620391466,,
0.0593134592198136,0.040942144801685,0.000116256224904632,,
0.0595526263940871,0.057320721700359,0.000459677593238172,,
0.0597917935683605,0.0737475603549593,0.000815738049379622,,
0.060030960742634,0.0896736259523186,0.00117342300366197,,
0.0602701279169074,0.105223616826284,0.00147113690157807,,
0.0605092950911808,0.120678605194211,0.00180077464932271,,
0.0607484622654543,0.135549285899842,0.00211891784204044,,
0.0609876294397277,0.149723321799442,0.00247330457282446,,
0.0612267966140012,0.163610901603961,0.00274112524358872,,
0.0614659637882746,0.176806906621832,0.00301596079268851,,
0.061705130962548,0.189362375048165,0.00334696459568784,,
0.0619442981368215,0.201464559598802,0.00359813416050825,,
0.0621834653110949,0.212430287233498,0.0038626596844753,,
0.0624226324853684,0.222703981365506,0.00411505685300462,,
0.0626617996596418,0.232601045486282,0.00431891906287563,,
0.0629009668339153,0.24121293212258,0.00459144093280495,,
0.0631401340081887,0.249082181634169,0.00474103013660665,,
0.0633793011824621,0.255948050167118,0.00492533683476681,,
0.0636184683567356,0.262382629051308,0.00507992260103229,,
0.063857635531009,0.267427153478661,0.00522209080196356,,
0.0640968027052825,0.271825419435461,0.00535641033858214,,
0.0643359698795559,0.274930589020366,0.00545823375898147,,
0.0645751370538293,0.277013642697868,0.00555671280536751,,
0.0648143042281028,0.278582741267737,0.00562028975533391,,
0.0650534714023762,0.278751355626611,0.00567980545994828,,
0.0652926385766497,0.278137352136506,0.0056981302912491,,
0.0655318057509231,0.276468012040572,0.00571991333450139,,
0.0657709729251966,0.273880467291615,0.00571746428048581,,
0.06601014009947,0.270194321771436,0.00568347288756943,,
0.0662493072737435,0.265443761896438,0.00563808539405875,,
0.0664884744480169,0.259945929450439,0.00552784411965668,,
0.0667276416222903,0.253649834524225,0.00545053277631791,,
0.0669668087965638,0.246123028607464,0.00533215055100555,,
0.0672059759708372,0.237597670301951,0.00519197605233757,,
0.0674451431451107,0.228697227133971,0.00506031478540425,,
0.0676843103193841,0.218882635328474,0.00485091759039102,,
0.0679234774936575,0.208050949349058,0.00471473049625093,,
0.068162644667931,0.196732155221782,0.00449478021672389,,
0.0684018118422044,0.184509642211146,0.004278968100075,,
0.0686409790164779,0.171584086512879,0.00404094835543223,,
0.0688801461907513,0.157943320080464,0.00379125253040202,,
0.0691193133650247,0.144156512946898,0.00350014738628612,,
0.0693584805392982,0.129596020855645,0.00323796323179826,,
0.0695976477135716,0.114660806046167,0.00295550054085947,,
0.0698368148878451,0.0991148711877076,0.00263620973865963,,
0.0700759820621185,0.0833638178308236,0.00235029806587272,,
0.070315149236392,0.0672656854328203,0.00201223938742467,,
0.0705543164106654,0.0509985765317011,0.00171798677816071,,
0.0707934835849388,0.0344042340939006,0.00138113724321487,,
0.0710326507592123,0.0177979167531789,0.00103729744354242,,
0.0712718179334857,0.00113469448063204,0.000713482352486139,,
0.0715109851077592,-0.0155757272580659,0.000372963851569263,,
0.0717501522820326,-0.0322032662513436,4.08155157884948E-05,,
0.0719893194563061,-0.0486185404331631,-0.000312609745925396,,
0.0722284866305795,-0.0650842250934091,-0.000623148872061385,,
0.0724676538048529,-0.081372990220174,-0.000955432582686822,,
0.0727068209791264,-0.0972329765649218,-0.00130989315429586,,
0.0729459881533998,-0.112624010259788,-0.00166408297621423,,
0.0731851553276733,-0.127734020023197,-0.00198840418458879,,
0.0734243225019467,-0.142337027848409,-0.00229054853198019,,
0.0736634896762201,-0.15653250268711,-0.00259668182224981,,
0.0739026568504936,-0.170005041047843,-0.00291816938898082,,
0.074141824024767,-0.183097472812625,-0.003198236868172,,
0.0743809911990405,-0.195287537699216,-0.00347653062922326,,
0.0746201583733139,-0.206778036482894,-0.00373157837568483,,
0.0748593255475874,-0.217772156226129,-0.00397159643764278,,
0.0750984927218608,-0.227676028658647,-0.00419480648190484,,
0.0753376598961342,-0.237182508143417,-0.00444229323559941,,
0.0755768270704077,-0.245438624276798,-0.00462558154572079,,
0.0758159942446811,-0.252881799016706,-0.00482136895375307,,
0.0760551614189546,-0.259646025732521,-0.0049919658721489,,
0.076294328593228,-0.265205712414981,-0.00515431723180004,,
0.0765334957675015,-0.270241545380536,-0.00529417175356084,,
0.0767726629417749,-0.27378360577847,-0.00540025640487896,,
0.0770118301160483,-0.276527258838492,-0.00550351049125508,,
0.0772509972903218,-0.278188631761112,-0.00560995203989201,,
0.0774901644645952,-0.279320887803851,-0.00563052901634276,,
0.0777293316388687,-0.27903228298627,-0.00568583579395554,,
0.0779684988131421,-0.277935468793306,-0.00568496201086477,,
0.0782076659874155,-0.275438266961146,-0.00568067924303861,,
0.078446833161689,-0.272186115100063,-0.00567326900862186,,
0.0786860003359624,-0.268085290280338,-0.00563081053448622,,
