Time domain (s),Current (AC) (A),Potential (AC) (V),Frequency (Hz),Column 5
0,-0.303981753461922,-0.0163162470875982,0.0079433,0.5
0.307354153815165,-0.298425597358421,-0.0162147299913431,,
0.61470830763033,-0.293158271715695,-0.0160737419543855,,
0.922062461445495,-0.28773199001634,-0.0159210431126811,,
1.22941661526066,-0.282192928250031,-0.0157610463789202,,
1.53677076907582,-0.276718768220365,-0.0156393103018346,,
1.84412492289099,-0.270718939589322,-0.0154598645852202,,
2.15147907670615,-0.265035249800046,-0.0153050145742322,,
2.45883323052132,-0.259460722603878,-0.0151466724314249,,
2.76618738433648,-0.253529484114183,-0.0149778438409682,,
3.07354153815165,-0.247717338537956,-0.0148265141079391,,
3.38089569196681,-0.241573094676525,-0.0146483892494738,,
3.68824984578198,-0.235722433643471,-0.0144688329587375,,
3.99560399959714,-0.229484135462054,-0.0142803824877094,,
4.30295815341231,-0.223329110109946,-0.0141047827401048,,
4.61031230722747,-0.217187916275483,-0.0139072611701896,,
4.91766646104264,-0.210760445491195,-0.013741681448483,,
5.2250206148578,-0.204637693680259,-0.013533930767057,,
5.53237476867297,-0.198165749246927,-0.0133516081128304,,
5.83972892248813,-0.191859853956197,-0.01316692118283,,
6.1470830763033,-0.185400960801053,-0.0129509377554058,,
6.45443723011846,-0.178887521814786,-0.0127376684200691,,
6.76179138393363,-0.172311379948527,-0.0125221494039578,,
7.06914553774879,-0.1658887324627,-0.0123178566768947,,
7.37649969156396,-0.159147747278454,-0.0120904519478802,,
7.68385384537912,-0.152548907537085,-0.0118829746861011,,
7.99120799919429,-0.145878002042241,-0.0116752079211664,,
8.29856215300945,-0.139168155505412,-0.0114484947830245,,
8.60591630682462,-0.13243376689112,-0.0112007926660742,,
8.91327046063978,-0.12559291105639,-0.0109714096654936,,
9.22062461445495,-0.118737869049717,-0.0107730215965494,,
9.52797876827011,-0.111995465248276,-0.0105337934782272,,
9.83533292208528,-0.105164256010468,-0.0102766362686206,,
10.1426870759004,-0.0981015284465376,-0.0100448869818277,,
10.4500412297156,-0.0912728727196793,-0.00982644076713957,,
10.7573953835308,-0.0842425605586401,-0.00955562463779902,,
11.0647495373459,-0.0773009119722496,-0.00934126765518872,,
11.3721036911611,-0.0703255712274926,-0.00907871844930241,,
11.6794578449763,-0.0633459746311524,-0.00882061030224612,,
11.9868119987914,-0.0563570151613294,-0.00858813725756358,,
12.2941661526066,-0.0493257808991139,-0.00830717645513257,,
12.6015203064218,-0.0422207785427907,-0.00805518004136907,,
12.9088744602369,-0.0351841535352366,-0.00777172428465667,,
13.2162286140521,-0.0281381656541996,-0.00757471738701909,,
13.5235827678673,-0.0210379865963373,-0.0073011047376097,,
13.8309369216824,-0.0139375238150362,-0.00700688710316166,,
14.1382910754976,-0.00684046571500151,-0.00675754647876659,,
14.4456452293128,0.000203252378524519,-0.0064801361108735,,
14.7529993831279,0.00726317817349631,-0.00621506581500375,,
15.0603535369431,0.0144055965583212,-0.00594872090107268,,
15.3677076907582,0.0214907382739231,-0.00568397227537609,,
15.6750618445734,0.0285086020690815,-0.00541404274945112,,
15.9824159983886,0.0355239832841499,-0.00512277040752762,,
16.2897701522037,0.0425665664839204,-0.0048692782274582,,
16.5971243060189,0.049643196496356,-0.00459149994930463,,
16.9044784598341,0.0566659190554052,-0.00430992596310587,,
17.2118326136492,0.0636001199015253,-0.00402746738393089,,
17.5191867674644,0.0705610262163295,-0.00375067019980602,,
17.8265409212796,0.0776872368997086,-0.00348762441558925,,
18.1338950750947,0.0846410501285409,-0.00319295845333745,,
18.4412492289099,0.0915718817588243,-0.00291585769298663,,
18.7486033827251,0.0985216873940825,-0.00262369874764756,,
19.0559575365402,0.105372154360304,-0.00233031946608886,,
19.3633116903554,0.112228614984173,-0.00204802172200047,,
19.6706658441706,0.119071173159536,-0.00176054307768325,,
19.9780199979857,0.125884827009563,-0.00149453993831106,,
20.2853741518009,0.13265840492385,-0.00120447184909889,,
20.5927283056161,0.139402794789362,-0.000907475788529233,,
20.9000824594312,0.146117145435784,-0.00065078097979665,,
21.2074366132464,0.152977258998927,-0.000341481035098568,,
21.5147907670615,0.159503997521392,-7.97701821011465E-05,,
21.8221449208767,0.166172384970715,0.000195659903787337,,
22.1294990746919,0.172683022188024,0.000509111404159768,,
22.436853228507,0.179273882207675,0.000814183396518064,,
22.7442073823222,0.185696529693502,0.00105728562998975,,
23.0515615361374,0.192201776165472,0.00137599643769581,,
23.3589156899525,0.198590057649766,0.00165872441564119,,
23.6662698437677,0.205047886842013,0.00194602815180156,,
23.9736239975829,0.211258592919001,0.0022092669381224,,
24.280978151398,0.217572574327739,0.00249460446534844,,
24.5883323052132,0.223612478894523,0.00274830573103024,,
24.8956864590284,0.229832547844993,0.00304219566398922,,
25.2030406128435,0.235774567825365,0.00332298557914035,,
25.5103947666587,0.242027264971306,0.00360001195326376,,
25.8177489204739,0.247966766906158,0.00389539765252866,,
26.125103074289,0.253957835576025,0.00417063071543566,,
26.4324572281042,0.259582936475173,0.0044441066550216,,
26.7398113819194,0.265455763401889,0.00474615092687358,,
27.0471655357345,0.271001102549284,0.00500717018899799,,
27.3545196895497,0.27687134049962,0.00530313489457468,,
27.6618738433648,0.282493852422388,0.00557204311769954,,
27.96922799718,0.288035006649059,0.00583574430489398,,
28.2765821509952,0.293346061166801,0.00609965457770123,,
28.5839363048103,0.298846288287414,0.00635931076246665,,
28.8912904586255,0.304079283394036,0.00664551679916059,,
29.1986446124407,0.309245887215961,0.00691124852932434,,
29.5059987662558,0.314695930753323,0.00713857284079555,,
29.813352920071,0.319853739148642,0.00742537396731047,,
30.1207070738862,0.324727540381648,0.00768901484134732,,
30.4280612277013,0.329579778633299,0.00796399458899311,,
30.7354153815165,0.334594874138864,0.00823147942160141,,
31.0427695353317,0.339249924600496,0.00845828906079538,,
31.3501236891468,0.344051376356588,0.00868701665839788,,
31.657477842962,0.34876459012319,0.00897354034438802,,
31.9648319967772,0.353148117253818,0.00923147157284898,,
32.2721861505923,0.357588389072222,0.00947431244930508,,
32.5795403044075,0.362017879399948,0.00976570541754374,,
32.8868944582226,0.366237698106345,0.00996502431955193,,
33.1942486120378,0.370524759267755,0.0101745763539487,,
33.501602765853,0.374617753596975,0.0104306097283868,,
33.8089569196681,0.378738269099765,0.0106568443821464,,
34.1163110734833,0.382424687741076,0.0108929945189979,,
34.4236652272985,0.386315670981816,0.0111012598727012,,
34.7310193811136,0.390319576151229,0.0113406789826889,,
35.0383735349288,0.393958896701687,0.011574967453412,,
35.345727688744,0.397535514372153,0.0118040127003107,,
35.6530818425591,0.401118373958274,0.0120154465052211,,
35.9604359963743,0.404483901390217,0.0122176483761578,,
36.2677901501895,0.407733669659098,0.0124316072919286,,
36.5751443040046,0.410999042717117,0.0126489919950448,,
36.8824984578198,0.414092763094617,0.0128408722742956,,
37.189852611635,0.41692318812084,0.0130621290821233,,
37.4972067654501,0.42006230424856,0.0132762005824549,,
37.8045609192653,0.422849603312074,0.0134654351245302,,
38.1119150730805,0.425623567373961,0.0136425145549324,,
38.4192692268956,0.428094798526567,0.0138422757534289,,
38.7266233807108,0.430609439365322,0.0140039954330557,,
39.033977534526,0.433048326045897,0.0142002021761374,,
39.3413316883411,0.435440682082496,0.0144052950577569,,
39.6486858421563,0.437620245539939,0.0145523264730953,,
39.9560399959714,0.439491117895884,0.0147410543846478,,
40.2633941497866,0.44161677389994,0.014888202405424,,
40.5707483036018,0.443575884245377,0.0150854224095518,,
40.8781024574169,0.445691609929072,0.0152061251212054,,
41.1854566112321,0.447244144586599,0.0153879009361377,,
41.4928107650473,0.449053732679748,0.0155544617518726,,
41.8001649188624,0.450478308066342,0.0157252525303866,,
42.1075190726776,0.451761021733499,0.0158688139287304,,
42.4148732264928,0.453066433275766,0.0159861431244419,,
42.7222273803079,0.454181750113986,0.0161343365732813,,
43.0295815341231,0.454874319028281,0.0162704834741305,,
43.3369356879383,0.456086101835719,0.0164414350877311,,
43.6442898417534,0.456843075970639,0.0165274014415457,,
43.9516439955686,0.457866466414664,0.0166633231732738,,
44.2589981493838,0.458250344227462,0.0167760484646298,,
44.5663523031989,0.45899029495605,0.0169143545765174,,
44.8737064570141,0.459399991601786,0.0170246271328023,,
45.1810606108292,0.459438577989473,0.017149366805131,,
45.4884147646444,0.45978018100988,0.0172317143694958,,
45.7957689184596,0.459978503693654,0.0173430444164753,,
46.1031230722747,0.459847990911771,0.0174573016620312,,
46.4104772260899,0.45954781151344,0.0175207350202062,,
46.7178313799051,0.459410489369025,0.017609608468212,,
47.0251855337202,0.459404247453369,0.0176940951392295,,
47.3325396875354,0.45863705927465,0.0177874156773812,,
47.6398938413506,0.458308223808993,0.0178667073750995,,
47.9472479951657,0.4575543706319,0.0179432126049419,,
48.2546021489809,0.456958267686823,0.0179732163903563,,
48.5619563027961,0.456215196000407,0.0180588409696121,,
48.8693104566112,0.454745508587032,0.0181353663038402,,
49.1766646104264,0.453612600895601,0.018183005656506,,
49.4840187642416,0.453033805080295,0.018222313751683,,
49.7913729180567,0.451237551988774,0.0182711272004816,,
50.0987270718719,0.450074853336261,0.0183530726771299,,
50.4060812256871,0.448607151986958,0.0183448700877107,,
50.7134353795022,0.447109659676572,0.0183893409891693,,
51.0207895333174,0.445352560419616,0.0184170850416168,,
51.3281436871325,0.443333868152016,0.0184489303887734,,
51.6354978409477,0.44125843119664,0.0184493807270161,,
51.9428519947629,0.439423591717432,0.0184604944315034,,
52.250206148578,0.437206860489497,0.0184783149591041,,
52.5575603023932,0.435116953638739,0.0185057373413784,,
52.8649144562084,0.432701616003591,0.0184995451905423,,
53.1722686100235,0.430482047541267,0.0185262116479086,,
53.4796227638387,0.427782419020365,0.0185040485729684,,
53.7869769176539,0.425234582539262,0.0184814351597855,,
54.094331071469,0.422622624560973,0.0184833008467904,,
54.4016852252842,0.419607211852603,0.0184511177459519,,
54.7090393790994,0.416873536519037,0.0184054566648517,,
55.0163935329145,0.413546028027904,0.0184013392866333,,
55.3237476867297,0.410752203325295,0.0183605836756762,,
55.6311018405449,0.407243963003599,0.0183191203903381,,
55.93845599436,0.403687773420732,0.0182993537581888,,
56.2458101481752,0.400585541340066,0.0182647420475415,,
56.5531643019904,0.397129222407683,0.0181987353279802,,
56.8605184558055,0.393395138228641,0.0181423184004603,,
57.1678726096207,0.389494508390979,0.0180802682240309,,
57.4752267634358,0.385784540704241,0.0180153029116559,,
57.782580917251,0.382036837800133,0.0179754841650781,,
58.0899350710662,0.378051658377686,0.0179048092071268,,
58.3972892248813,0.374072153424017,0.0178405998196589,,
58.7046433786965,0.369793320242334,0.0177429769429396,,
59.0119975325117,0.365649255694117,0.0176636048276775,,
59.3193516863268,0.360982005124613,0.017579745413498,,
59.626705840142,0.3568671640906,0.0174859584535954,,
59.9340599939572,0.352525060582047,0.0173624250444164,,
60.2414141477723,0.347782339577803,0.0173153164475366,,
60.5487683015875,0.343373277337675,0.0171914774516932,,
60.8561224554027,0.338273064800447,0.017084071780828,,
61.1634766092178,0.333582832632395,0.0169916076895129,,
61.470830763033,0.328787339068519,0.0168518178739507,,
61.7781849168482,0.32387154676656,0.0167278180430208,,
62.0855390706633,0.318832902215568,0.0166334239306658,,
62.3928932244785,0.313592246576096,0.0164914708831883,,
62.7002473782937,0.308441531266749,0.0163796744144578,,
63.0076015321088,0.303087669975166,0.0162344403312122,,
63.314955685924,0.297759911239959,0.016077614059097,,
63.6223098397391,0.292433571121947,0.0159637227133627,,
63.9296639935543,0.287208839460483,0.0157919629034518,,
64.2370181473695,0.281280402739747,0.0156565116143521,,
64.5443723011846,0.275720274508102,0.0155019169290638,,
64.8517264549998,0.269984805191231,0.0153376560550682,,
65.159080608815,0.264242774769836,0.015207974724702,,
65.4664347626301,0.25847102431822,0.0150354147602352,,
65.7737889164453,0.2527074663809,0.0148880898208632,,
66.0811430702605,0.246834107472736,0.0146858557829095,,
66.3884972240756,0.240703411405512,0.0145173448417486,,
66.6958513778908,0.234688758224788,0.0143268557859972,,
67.003205531706,0.228670132915919,0.0141684975596816,,
67.3105596855211,0.222467087371782,0.0139843413854672,,
67.6179138393363,0.216238790441584,0.0138057661887592,,
67.9252679931515,0.210050250258259,0.0135887835733595,,
68.2326221469666,0.203680091608624,0.0133880292182029,,
68.5399763007818,0.197467080278696,0.0132214040684331,,
68.8473304545969,0.190857494512079,0.0130375856479006,,
69.1546846084121,0.184403034535668,0.0128233854794999,,
69.4620387622273,0.177877679164968,0.0126054820832291,,
69.7693929160424,0.171340123686396,0.0124323270289413,,
70.0767470698576,0.164819059632709,0.0121784206985236,,
70.3841012236728,0.158167695589718,0.0119660218830933,,
70.6914553774879,0.151597511915675,0.0117404024235404,,
70.9988095313031,0.144829608470166,0.0115356593582345,,
71.3061636851183,0.138103625162751,0.011300534545061,,
71.6135178389334,0.131319797739235,0.0110560652133525,,
71.9208719927486,0.124547035529835,0.0108499872168277,,
72.2282261465638,0.117736289845056,0.0106129484661226,,
72.5355803003789,0.111044637073745,0.0104004652122716,,
72.8429344541941,0.104061919519577,0.0101483763183334,,
73.1502886080093,0.0971189232468516,0.00993370972818131,,
73.4576427618244,0.0902335228322182,0.00967669928059145,,
73.7649969156396,0.0832840009203988,0.00943900914778517,,
74.0723510694548,0.0763219597118391,0.00918910761102509,,
74.3797052232699,0.0691968484567857,0.00893695036217501,,
74.6870593770851,0.0622725779310263,0.00870298758250199,,
74.9944135309002,0.0553199350613793,0.00848384575606387,,
75.3017676847154,0.0482654000117461,0.00819121837853531,,
75.6091218385306,0.0411700442523448,0.00794263568948628,,
75.9164759923457,0.0341908023103032,0.00767808207633225,,
76.2238301461609,0.0271677605623852,0.00740422415341557,,
76.5311842999761,0.0201172331063262,0.00714190212708932,,
76.8385384537912,0.0129486412342651,0.00687692632183312,,
77.1458926076064,0.00592765648127894,0.0066321393408284,,
77.4532467614216,-0.00118018310943298,0.00638554296509941,,
77.7606009152367,-0.00823127801236978,0.006090555332674,,
78.0679550690519,-0.0153941599502236,0.00581641192747862,,
78.3753092228671,-0.0224934878377692,0.00555658284499527,,
78.6826633766822,-0.0294901078404419,0.00527584118037039,,
78.9900175304974,-0.0366376687125964,0.00501813914190752,,
79.2973716843126,-0.0436827344924571,0.0047572324643439,,
79.6047258381277,-0.0506978674495164,0.00447263879939319,,
79.9120799919429,-0.0577466925649422,0.00420523036345166,,
80.2194341457581,-0.0647194088678896,0.00392123983007586,,
80.5267882995732,-0.0716970903310173,0.00365544778675497,,
80.8341424533884,-0.0786939231262691,0.00335946297679257,,
81.1414966072036,-0.0857312574424205,0.00309001193525038,,
81.4488507610187,-0.0926682245920695,0.0027969905117593,,
81.7562049148339,-0.0995641227739414,0.00253022943704151,,
82.063559068649,-0.106463780291378,0.00224624292454312,,
82.3709132224642,-0.113322723495337,0.00194954641932243,,
82.6782673762794,-0.120201243616577,0.00165575298741549,,
82.9856215300945,-0.126987198965885,0.00137906838785096,,
83.2929756839097,-0.133753932052209,0.00111796870818326,,
83.6003298377249,-0.140571026048933,0.000822257317867781,,
83.90768399154,-0.147239023378528,0.000524278152830959,,
84.2150381453552,-0.154015119338334,0.000233070144942005,,
84.5223922991704,-0.16060984508984,-4.94567891449194E-05,,
84.8297464529855,-0.167205209219082,-0.000322389910313081,,
85.1371006068007,-0.17377908129783,-0.000596871069190374,,
85.4444547606159,-0.180300535471246,-0.000878977821613169,,
85.751808914431,-0.186717153833997,-0.00114404811748292,,
86.0591630682462,-0.193336421662966,-0.00143549737800175,,
86.3665172220613,-0.199544077712985,-0.00170951211512804,,
86.6738713758765,-0.205844085742358,-0.00200853670822809,,
86.9812255296917,-0.212173104493357,-0.00226175345821167,,
87.2885796835069,-0.218419559723642,-0.00255159637830227,,
87.595933837322,-0.224666582400805,-0.00284849593782033,,
87.9032879911372,-0.230873883796526,-0.00312088825100965,,
88.2106421449523,-0.236922867513354,-0.00340471593885994,,
88.5179962987675,-0.242773812269847,-0.0036904213763469,,
88.8253504525827,-0.248862517268118,-0.00394483031641002,,
89.1327046063978,-0.254745026257186,-0.00421672203039236,,
89.440058760213,-0.260430489317954,-0.0045231932880041,,
89.7474129140282,-0.266259019922776,-0.00480967274434541,,
90.0547670678433,-0.271973777428609,-0.00504801425925239,,
90.3621212216585,-0.277695060573536,-0.00532000247428677,,
90.6694753754737,-0.283441595104522,-0.00558666704795296,,
90.9768295292888,-0.288810564669225,-0.00586608584399029,,
91.284183683104,-0.294341114732368,-0.00614510456274964,,
91.5915378369192,-0.299838256360583,-0.00641541808244428,,
91.8988919907343,-0.304971380816721,-0.0066646642162258,,
92.2062461445495,-0.310292613912833,-0.00691437476132073,,
92.5136002983647,-0.315717689787573,-0.0071887473565142,,
92.8209544521798,-0.320601917856957,-0.00746361250916117,,
93.128308605995,-0.325861937621132,-0.00769905899250833,,
93.4356627598101,-0.330533727765658,-0.00796286070163177,,
93.7430169136253,-0.335381142718848,-0.00822161218903483,,
94.0503710674405,-0.340332967897544,-0.00847714697470447,,
94.3577252212556,-0.345024122166773,-0.00872521901235412,,
94.6650793750708,-0.349615831370676,-0.00899529328985693,,
94.972433528886,-0.354189169481912,-0.00921015288211313,,
95.2797876827011,-0.358544040545214,-0.00949249887672776,,
95.5871418365163,-0.363078295752745,-0.00972268605274129,,
95.8944959903315,-0.367222360300962,-0.00997535797386906,,
96.2018501441466,-0.371812083440794,-0.0101859232693111,,
96.5092042979618,-0.375533683788525,-0.0104106420523791,,
96.816558451777,-0.379533333106355,-0.0106614643700103,,
97.1239126055921,-0.383564830380198,-0.0108830147018706,,
97.4312667594073,-0.38747815684175,-0.0111328398419643,,
97.7386209132225,-0.39140942881081,-0.0113319074391502,,
98.0459750670376,-0.395087264818095,-0.0115700861085317,,
98.3533292208528,-0.398851494612517,-0.0118069298466943,,
98.660683374668,-0.401707454748239,-0.0120141517827732,,
98.9680375284831,-0.405433878394432,-0.0122113979226022,,
99.2753916822983,-0.408670311661686,-0.0124435995580763,,
99.5827458361134,-0.411830423323882,-0.0126450595771761,,
99.8900999899286,-0.414736247853987,-0.0128366302488852,,
100.197454143744,-0.41785947546913,-0.0130376278671105,,
100.504808297559,-0.420998166011691,-0.013257374835562,,
100.812162451374,-0.424130189053439,-0.0134444260413362,,
101.119516605189,-0.426195908481033,-0.0136477055073536,,
101.426870759004,-0.429009310100923,-0.013824704520212,,
101.73422491282,-0.431679715107621,-0.0140045020635782,,
102.041579066635,-0.434112076149101,-0.0142345766550314,,
102.34893322045,-0.436300931549167,-0.0143953795746645,,
102.656287374265,-0.438284300248627,-0.0145482854915429,,
102.96364152808,-0.440813340051904,-0.0147457588109319,,
103.270995681895,-0.442976802204191,-0.0148906209630391,,
103.578349835711,-0.444158723119687,-0.0150772881750441,,
103.885703989526,-0.446146773255888,-0.015247258694616,,
104.193058143341,-0.448049138913549,-0.0154002591021078,,
104.500412297156,-0.449236237781805,-0.0155806859127505,,
104.807766450971,-0.451168961847425,-0.01571635030834,,
105.115120604786,-0.452550127547872,-0.0158368157882411,,
105.422474758602,-0.453576355226285,-0.0160374072978726,,
105.729828912417,-0.455133429458834,-0.0161313048318976,,
106.037183066232,-0.455839617098196,-0.0162647195467125,,
106.344537220047,-0.456722848163416,-0.0164212100755847,,
106.651891373862,-0.457900655089048,-0.0165397113569901,,
