Time domain (s),Current (AC) (A),Potential (AC) (V),Frequency (Hz),Column 5
0,0.0636593826348204,8.66386544120523E-05,79.433,0.5
0.000239736239975829,0.117589250172859,0.00116428164988935,,
0.000479472479951657,0.169649947695584,0.00219623313913786,,
0.000719208719927486,0.219094431388438,0.0032236041479532,,
0.000958944959903315,0.265474985664873,0.00416473911525683,,
0.00119868119987914,0.307868090731351,0.00508830073757682,,
0.00143841743985497,0.34614777338101,0.00593913307075766,,
0.0016781536798308,0.37905515271556,0.00669426087813907,,
0.00191788991980663,0.406891543027085,0.00734773600933503,,
0.00215762615978246,0.428647456320067,0.00791008709516472,,
0.00239736239975829,0.44462988135537,0.00836887562250821,,
0.00263709863973412,0.453924944936374,0.00868623979329763,,
0.00287683487970994,0.456894961894524,0.00885163883763118,,
0.00311657111968577,0.453444884877796,0.00896312417057699,,
0.0033563073596616,0.443216371182891,0.00885230244080359,,
0.00359604359963743,0.42728161168532,0.00868679009836715,,
0.00383577983961326,0.404771561491806,0.00836669058767248,,
0.00407551607958909,0.376910487241099,0.00794516095063713,,
0.00431525231956492,0.343242445366924,0.00740618164482676,,
0.00455498855954074,0.304787705355479,0.00677298687399386,,
0.00479472479951657,0.262169891325411,0.0060104785045012,,
0.0050344610394924,0.215629600752889,0.00517691199288217,,
0.00527419727946823,0.165790457756559,0.00426466804173842,,
0.00551393351944406,0.113794732901336,0.00329232349353337,,
0.00575366975941989,0.0599411869683555,0.00230412125732649,,
0.00599340599939572,0.00534173211457093,0.00124300764574414,,
0.00623314223937154,-0.0492726891506143,0.000197527149138566,,
0.00647287847934737,-0.103572886707245,-0.000869904854843284,,
0.0067126147193232,-0.156107686096331,-0.0019226870095248,,
0.00695235095929903,-0.206442281147798,-0.00295361679266959,,
0.00719208719927486,-0.253876442414498,-0.00393290287283854,,
0.00743182343925069,-0.297257543426,-0.00487426443634709,,
0.00767155967922652,-0.336749576329975,-0.00573545949955401,,
0.00791129591920234,-0.371466898411972,-0.00651202088012814,,
0.00815103215917817,-0.400547628795546,-0.00716677061497828,,
0.008390768399154,-0.424077735682677,-0.00773413311866689,,
0.00863050463912983,-0.441575669466733,-0.00824267974485027,,
0.00887024087910566,-0.452532572160092,-0.00857407871809768,,
0.00910997711908149,-0.457359488094823,-0.00878706296551801,,
0.00934971335905732,-0.455372076336359,-0.00888476032401453,,
0.00958944959903315,-0.447212473957735,-0.0088598832977751,,
0.00982918583900897,-0.432512762589589,-0.00871235095958323,,
0.0100689220789848,-0.411364868626117,-0.00843982046653213,,
0.0103086583189606,-0.384562366525855,-0.00803974868085433,,
0.0105483945589365,-0.352401534489847,-0.00753447151420295,,
0.0107881307989123,-0.314973518672833,-0.00690563467395888,,
0.0110278670388881,-0.273071822602487,-0.00619501278909018,,
0.0112676032788639,-0.22729474808054,-0.00538999739932322,,
0.0115073395188398,-0.178552196175465,-0.00448037346680152,,
0.0117470757588156,-0.12686977292762,-0.00357658034020281,,
0.0119868119987914,-0.0734042897281617,-0.00254603900769546,,
0.0122265482387673,-0.0188676086852284,-0.00152986630241259,,
0.0124662844787431,0.0357267746120862,-0.000453615255052497,,
0.0127060207187189,0.0901784450196464,0.000609881663045098,,
0.0129457569586947,0.143187346275094,0.00166429854749239,,
0.0131854931986706,0.194021791094999,0.00271523556164555,,
0.0134252294386464,0.242196647864314,0.00369554334791866,,
0.0136649656786222,0.286730659069688,0.00465260074499652,,
0.0139047019185981,0.326981971361524,0.00554197466486084,,
0.0141444381585739,0.362766022642833,0.00633394458738712,,
0.0143841743985497,0.393355948928646,0.00703841600382926,,
0.0146239106385255,0.418017473959153,0.00763078299412312,,
0.0148636468785014,0.43701162329812,0.00813506070965531,,
0.0151033831184772,0.449690372611155,0.00851596893055229,,
0.015343119358453,0.45611614105481,0.00878738262802115,,
0.0155828555984289,0.455984209655733,0.00889897721270838,,
0.0158225918384047,0.449522124611902,0.00892738671193216,,
0.0160623280783805,0.436309975233781,0.00877595570510303,,
0.0163020643183563,0.417068419056115,0.00855589841899285,,
0.0165418005583322,0.391814763208674,0.00819836197811474,,
0.016781536798308,0.361313074912351,0.00770494874134853,,
0.0170212730382838,0.325205011463846,0.00709968195280331,,
0.0172610092782597,0.284725337269145,0.0063991395527041,,
0.0175007455182355,0.239912071269058,0.00562359380869237,,
0.0177404817582113,0.191690719321197,0.00473082499211097,,
0.0179802179981871,0.140724343102215,0.00379663357995197,,
0.018219954238163,0.0876893392903907,0.00281794838436245,,
0.0184596904781388,0.0333585705332213,0.001790447892001,,
0.0186994267181146,-0.0211756279296218,0.00073839408226517,,
0.0189391629580905,-0.0758207622570653,-0.000335864132397834,,
0.0191788991980663,-0.129429171138857,-0.00139057235482287,,
0.0194186354380421,-0.180960937240659,-0.00244495686838375,,
0.0196583716780179,-0.229844003178837,-0.00344112436583854,,
0.0198981079179938,-0.275530569923783,-0.00436589585003944,,
0.0201378441579696,-0.31713159007978,-0.00530334053628723,,
0.0203775803979454,-0.354438881573553,-0.00612200025469445,,
0.0206173166379213,-0.386439197074017,-0.00684821074457087,,
0.0208570528778971,-0.412743197092175,-0.00748070347180363,,
0.0210967891178729,-0.433302081196541,-0.00801278373243841,,
0.0213365253578487,-0.448078397893183,-0.00840128292620923,,
0.0215762615978246,-0.455869940040726,-0.00870016332083345,,
0.0218159978378004,-0.457326008729035,-0.0088706284088973,,
0.0220557340777762,-0.452348151924822,-0.00890758179896434,,
0.0222954703177521,-0.44087004927425,-0.00881713551903296,,
0.0225352065577279,-0.42292879761695,-0.0086108520451087,,
0.0227749427977037,-0.39914596407664,-0.00829448934861876,,
0.0230146790376796,-0.369538430197934,-0.00782270391036421,,
0.0232544152776554,-0.334512417014441,-0.00725721689490966,,
0.0234941515176312,-0.294940728755002,-0.00657885057521135,,
0.023733887757607,-0.251406346155647,-0.00581666186822227,,
0.0239736239975829,-0.203875647988869,-0.00495674545503055,,
0.0242133602375587,-0.153613189621737,-0.00404309337032593,,
0.0244530964775345,-0.100973128836828,-0.00308611285410354,,
0.0246928327175104,-0.0468886320246022,-0.00205670247944179,,
0.0249325689574862,0.00772695959976837,-0.00100070144473863,,
0.025172305197462,0.0622645982093079,4.85360978759175E-05,,
0.0254120414374378,0.116329234380812,0.00111585480375531,,
0.0256517776774137,0.168267647101382,0.00219353017011903,,
0.0258915139173895,0.217882648581,0.00320565449141519,,
0.0261312501573653,0.264401092448729,0.00417648974703955,,
0.0263709863973412,0.307041604353906,0.00507826171641579,,
0.026610722637317,0.345338310409898,0.00593863132201777,,
0.0268504588772928,0.378162558776857,0.00670755317338889,,
0.0270901951172686,0.406193583367451,0.00734880424858808,,
0.0273299313572445,0.427902966016458,0.00789361031395996,,
0.0275696675972203,0.444054773944769,0.00832847675621418,,
0.0278094038371961,0.453883805037737,0.00865526085496171,,
0.028049140077172,0.456979795202747,0.00887189896619045,,
0.0282888763171478,0.45348687594675,0.00891121340778778,,
0.0285286125571236,0.443674300813237,0.00886696645236684,,
0.0287683487970994,0.427641940452692,0.00868976821992096,,
0.0290080850370753,0.40552257743451,0.00837808513970417,,
0.0292478212770511,0.377437077943652,0.00795558437607502,,
0.0294875575170269,0.344392092741248,0.0074024589928845,,
0.0297272937570028,0.305999771886355,0.0067833131867725,,
0.0299670299969786,0.263368339131222,0.00604163548271242,,
0.0302067662369544,0.216684200775189,0.00519335640320051,,
0.0304465024769302,0.167184710200624,0.00430637792893362,,
0.0306862387169061,0.115076595398176,0.00332597707636229,,
0.0309259749568819,0.0613024920280807,0.00232459988936906,,
0.0311657111968577,0.00674701430732185,0.00131367329087206,,
0.0314054474368336,-0.0477673235148,0.000210343996993601,,
0.0316451836768094,-0.102197679199015,-0.000849316971058833,,
0.0318849199167852,-0.154865261157495,-0.00193385496535115,,
0.032124656156761,-0.20529341401293,-0.00292531047564637,,
0.0323643923967369,-0.252743889377366,-0.00389323235149019,,
0.0326041286367127,-0.296325582860154,-0.00484441847903705,,
0.0328438648766885,-0.335684762263875,-0.00568620719581503,,
0.0330836011166644,-0.370294553162538,-0.00647526373856033,,
0.0333233373566402,-0.400111262146555,-0.00714636077106956,,
0.033563073596616,-0.423433116029552,-0.00774923616037793,,
0.0338028098365918,-0.441017301739026,-0.00821837123230429,,
0.0340425460765677,-0.452556404928957,-0.00856022397869527,,
0.0342822823165435,-0.457514472023308,-0.00880059399605537,,
0.0345220185565193,-0.45569232916799,-0.00890387330928499,,
0.0347617547964952,-0.447424982813453,-0.00890444182297845,,
0.035001491036471,-0.432820602520769,-0.00875965898695474,,
0.0352412272764468,-0.412180857236324,-0.00845814238826481,,
0.0354809635164226,-0.385576394096396,-0.00807587256695586,,
0.0357206997563985,-0.353444147196855,-0.00756538571076559,,
0.0359604359963743,-0.316036914121738,-0.00694907640357911,,
0.0362001722363501,-0.274234237531561,-0.00620532291642562,,
0.036439908476326,-0.228622857497917,-0.00543928207394861,,
0.0366796447163018,-0.17962580566817,-0.00456345334688457,,
0.0369193809562776,-0.128246115329606,-0.00361484272799073,,
0.0371591171962534,-0.0748561025648883,-0.00260090563705351,,
0.0373988534362293,-0.0202750897346306,-0.00154398000890588,,
0.0376385896762051,0.0342690390485732,-0.000513436653218236,,
0.0378783259161809,0.0887768512316009,0.000574225131616757,,
0.0381180621561568,0.141970456445757,0.00164104411193611,,
0.0383577983961326,0.19297708592763,0.00266886426680113,,
0.0385975346361084,0.241086402582564,0.00367389936396378,,
0.0388372708760842,0.285639742447211,0.00463366377642105,,
0.0390770071160601,0.326225564673481,0.00549761036497642,,
0.0393167433560359,0.361674254850039,0.00630008464015663,,
0.0395564795960117,0.392579397876444,0.00702226293148911,,
0.0397962158359876,0.41770537817639,0.00761129976683872,,
0.0400359520759634,0.436668034213642,0.00812191812975493,,
0.0402756883159392,0.450072831806759,0.00852239455151338,,
0.040515424555915,0.456228495536605,0.00878490220884665,,
0.0407551607958909,0.45590675315692,0.00889470425569661,,
0.0409948970358667,0.449461691519421,0.00891373833693132,,
0.0412346332758425,0.436424599503087,0.00879618750913647,,
0.0414743695158184,0.417640405508888,0.00855950777283221,,
0.0417141057557942,0.392747362152258,0.00818235457476346,,
0.04195384199577,0.362121970436585,0.00774329205635249,,
0.0421935782357458,0.326079163379021,0.00712186814910654,,
0.0424333144757217,0.285371659262904,0.00643424577906293,,
0.0426730507156975,0.24095617352412,0.00564870147749774,,
0.0429127869556733,0.193038405655857,0.00476610925834509,,
0.0431525231956492,0.141979251872362,0.00383570523990118,,
0.043392259435625,0.0891084884662166,0.00285491998305298,,
0.0436319956756008,0.0348035740074148,0.00182296444744345,,
0.0438717319155766,-0.0198758908561326,0.000753414173579436,,
0.0441114681555525,-0.0744635002563441,-0.000339669734736425,,
0.0443512043955283,-0.12811382927623,-0.00134540080595746,,
0.0445909406355041,-0.179736741532771,-0.00242961306820488,,
0.04483067687548,-0.22866229505592,-0.00342456665741731,,
0.0450704131154558,-0.274420927554341,-0.0043868236281317,,
0.0453101493554316,-0.315986695073057,-0.00525683975789715,,
0.0455498855954074,-0.353302640131716,-0.00609038806089224,,
0.0457896218353833,-0.385562988163909,-0.0068502662958605,,
0.0460293580753591,-0.412005799874538,-0.00746986124802218,,
0.0462690943153349,-0.433022613609249,-0.00799256811384819,,
0.0465088305553108,-0.447360577592828,-0.0083933035026984,,
0.0467485667952866,-0.455489821563492,-0.00867876414170743,,
0.0469883030352624,-0.457578238866196,-0.00887189087346885,,
0.0472280392752382,-0.45265400579193,-0.00888296171663594,,
0.0474677755152141,-0.441090786109695,-0.00881791039712754,,
0.0477075117551899,-0.423365518920239,-0.00862078788406961,,
0.0479472479951657,-0.399900171908032,-0.00828165631532052,,
0.0481869842351416,-0.370317463830227,-0.00783937491688791,,
0.0484267204751174,-0.335660362048131,-0.00724585471376438,,
0.0486664567150932,-0.296231883194465,-0.00660267554764093,,
0.048906192955069,-0.252382425716239,-0.00584069725141401,,
0.0491459291950449,-0.205249153156466,-0.00500319767709145,,
0.0493856654350207,-0.154869517009078,-0.00408415583979238,,
0.0496254016749965,-0.102381531987406,-0.00311540850634406,,
0.0498651379149724,-0.0483670439337233,-0.00210988784588473,,
0.0501048741549482,0.006352071280407,-0.00102007339710086,,
0.050344610394924,0.0608283901617195,1.86436074165464E-05,,
0.0505843466348998,0.11482323036726,0.00110612735237581,,
0.0508240828748757,0.167025754143994,0.00214950576454243,,
0.0510638191148515,0.216722255181428,0.00314139828180515,,
0.0513035553548273,0.263131430059761,0.00412692991987917,,
0.0515432915948032,0.305971115819029,0.00506189823331349,,
0.051783027834779,0.344089076108529,0.00588865067333355,,
0.0520227640747548,0.377591707217839,0.00665249029553161,,
0.0522625003147306,0.405386957630728,0.00731989704698499,,
0.0525022365547065,0.427517102139587,0.00786105329490949,,
0.0527419727946823,0.443564216118953,0.00831884641749436,,
0.0529817090346581,0.453583058192528,0.00861077921061382,,
0.053221445274634,0.456915106258684,0.0088316174443599,,
0.0534611815146098,0.453867065354843,0.0089342169689739,,
0.0537009177545856,0.443991219894461,0.00887094807140087,,
0.0539406539945614,0.42797304570586,0.00870187088509367,,
0.0541803902345373,0.406203513687812,0.00839129246137693,,
0.0544201264745131,0.378407412104607,0.00796773964393838,,
0.0546598627144889,0.345028200691207,0.0074467909218825,,
0.0548995989544648,0.306818314007511,0.00676309756818227,,
0.0551393351944406,0.264399106384657,0.00605576942101038,,
0.0553790714344164,0.218065650199075,0.00522940138526673,,
0.0556188076743922,0.168567010794826,0.0043178817327072,,
0.0558585439143681,0.116467407695544,0.0033618925748824,,
0.0560982801543439,0.0626603924065394,0.00234770865593603,,
0.0563380163943197,0.00813300330622923,0.00128385970444844,,
0.0565777526342956,-0.0463855903674758,0.000249011020862167,,
0.0568174888742714,-0.100820485626712,-0.00085163148944023,,
0.0570572251142472,-0.15350906311967,-0.00187078029309662,,
0.057296961354223,-0.203909127354656,-0.00289416968287837,,
0.0575366975941989,-0.251370880725787,-0.0039103403649805,,
0.0577764338341747,-0.295344183485083,-0.0048318585750935,,
0.0580161700741505,-0.334803233539288,-0.00568904167156026,,
0.0582559063141264,-0.369662062686424,-0.0064772059917475,,
0.0584956425541022,-0.399407060571266,-0.00717155948299331,,
0.058735378794078,-0.423167763683343,-0.0077348149304628,,
0.0589751150340538,-0.441102702494128,-0.00820477545999365,,
0.0592148512740297,-0.45211408008775,-0.00853685219867595,,
0.0594545875140055,-0.457079807714951,-0.00876537447159409,,
0.0596943237539813,-0.456140683132273,-0.00890559098944754,,
0.0599340599939572,-0.447653380181748,-0.00889521612033928,,
0.060173796233933,-0.433286760130842,-0.00875482156261009,,
0.0604135324739088,-0.412597363244593,-0.0084864183575819,,
0.0606532687138846,-0.386065320512439,-0.00807419130404075,,
0.0608930049538605,-0.354143596404543,-0.00758859563635284,,
0.0611327411938363,-0.317074490737706,-0.00694878708878166,,
0.0613724774338121,-0.275389843098101,-0.00625549981360862,,
0.061612213673788,-0.229756616359664,-0.00543667621758903,,
0.0618519499137638,-0.18095810000627,-0.00456183682574229,,
0.0620916861537396,-0.129570181687979,-0.00362596212748745,,
0.0623314223937154,-0.0761481791055278,-0.00259842926423959,,
0.0625711586336913,-0.0217014383927181,-0.00155853072236667,,
0.0628108948736671,0.0329131247341866,-0.000504698537056036,,
0.0630506311136429,0.0874144112781202,0.000535426601021793,,
0.0632903673536188,0.140499917862064,0.00162519451665633,,
0.0635301035935946,0.191599076650441,0.00264313345843137,,
0.0637698398335704,0.239584654420596,0.00365096459091152,,
0.0640095760735463,0.284636780090786,0.0046044773759224,,
0.0642493123135221,0.324804393968153,0.00547922370147091,,
0.0644890485534979,0.361056021476729,0.00626151472894732,,
0.0647287847934737,0.392128277608631,0.00696571099285492,,
0.0649685210334496,0.417135661511128,0.0076104257529046,,
0.0652082572734254,0.436130662020412,0.00809354504777859,,
0.0654479935134012,0.449718461231604,0.00849251217695635,,
0.0656877297533771,0.455761486756215,0.00877958124438605,,
0.0659274659933529,0.455929734755469,0.00891347936983955,,
0.0661672022333287,0.449803578263266,0.00890753931217558,,
0.0664069384733045,0.437244276517998,0.0087980650205508,,
0.0666466747132804,0.418258355158759,0.00858135812118821,,
0.0668864109532562,0.393367865313079,0.0082207990487877,,
0.067126147193232,0.362760064450616,0.00771928904404762,,
0.0673658834332078,0.327373793430611,0.00711406676547099,,
0.0676056196731837,0.286816343548228,0.00643728459602855,,
0.0678453559131595,0.242183561120696,0.00565442707803898,,
0.0680850921531353,0.194252741974244,0.00479038742318538,,
0.0683248283931112,0.143386520129185,0.00383612606142503,,
0.068564564633087,0.090391521322242,0.00287518011161225,,
0.0688043008730628,0.0361901304532,0.00181975972968473,,
0.0690440371130387,-0.0184351432335223,0.00079667786332438,,
0.0692837733530145,-0.073075170539066,-0.000259163340126545,,
0.0695235095929903,-0.126740891555511,-0.00134747254269074,,
0.0697632458329661,-0.178405227434127,-0.00237485973694929,,
0.070002982072942,-0.227484275337709,-0.0033997381875075,,
0.0702427183129178,-0.273198292325366,-0.00436607388991517,,
0.0704824545528936,-0.315050407724768,-0.00524246708431164,,
0.0707221907928695,-0.352632698161671,-0.00608077390761563,,
0.0709619270328453,-0.38465195220168,-0.00679491005684474,,
0.0712016632728211,-0.411957637820788,-0.00743828142510639,,
0.0714413995127969,-0.432662001118438,-0.0079751849478229,,
0.0716811357527728,-0.447038054973686,-0.00838521078108512,,
0.0719208719927486,-0.455459746878971,-0.00869279894416541,,
0.0721606082327244,-0.457253091805244,-0.00886748843291141,,
0.0724003444727002,-0.452544772267963,-0.00889688119781118,,
0.0726400807126761,-0.441699160093504,-0.00881726500257907,,
0.0728798169526519,-0.42430159347595,-0.0086290910164446,,
0.0731195531926277,-0.400593591992644,-0.00830582118205792,,
0.0733592894326036,-0.371201546065763,-0.00783267212021155,,
0.0735990256725794,-0.336864200599281,-0.00732496713707631,,
0.0738387619125552,-0.297193776583113,-0.00661994541556421,,
0.0740784981525311,-0.25360073416277,-0.00584717142870472,,
0.0743182343925069,-0.206236510723753,-0.00503566365302355,,
0.0745579706324827,-0.1562216719879,-0.004086842623368,,
0.0747977068724585,-0.10381625048694,-0.00313484722365942,,
0.0750374431124344,-0.0497533166560696,-0.00210797796358397,,
0.0752771793524102,0.00497658004873801,-0.00107915026487815,,
0.075516915592386,0.0594755968051606,-4.06659261376063E-07,,
0.0757566518323619,0.113587331067518,0.00108835573571309,,
0.0759963880723377,0.165555783007179,0.00212619872629594,,
0.0762361243123135,0.21545511083798,0.00313919706152621,,
0.0764758605522893,0.261991748471227,0.00412692991987917,,
0.0767155967922652,0.304902045901345,0.00509203552860171,,
0.076955333032241,0.343451549541375,0.00589441269112223,,
0.0771950692722168,0.376804658398398,0.00665277758714922,,
0.0774348055121927,0.404943497895765,0.00729929297775733,,
0.0776745417521685,0.427284732643148,0.00787452767639563,,
0.0779142779921443,0.443491582918601,0.00831418500984515,,
0.0781540142321201,0.45327975783637,0.00863839562311952,,
0.078393750472096,0.457307779498088,0.00886188017683276,,
0.0786334867120718,0.453693142886812,0.00891636442509469,,
0.0788732229520476,0.444638676781975,0.00886015238076832,,
0.0791129591920234,0.428864221027368,0.00871373886133986,,
0.0793526954319993,0.406590512458438,0.00839406017216904,,
