Time domain (s),Current (AC) (A),Potential (AC) (V),Frequency (Hz),Column 5
0,0.106659030891781,0.00209074166094236,0.63096,0.4
0.00386935186065678,0.112209807427321,0.00219518173224609,,
0.00773870372131355,0.117623530605425,0.00233275253679688,,
0.0116080555819703,0.123053894326083,0.00249056700197769,,
0.0154774074426271,0.128462070656668,0.00260327671299709,,
0.0193467593032839,0.13388064732635,0.00278687836700842,,
0.0232161111639407,0.139394184869956,0.00289178800775991,,
0.0270854630245974,0.144601056859347,0.00302179352676601,,
0.0309548148852542,0.150067503978707,0.00317152096257134,,
0.034824166745911,0.155204144789361,0.00330011777323502,,
0.0386935186065678,0.160418152566965,0.0034440799397113,,
0.0425628704672245,0.165604223878162,0.00357512894637901,,
0.0464322223278813,0.170708016951166,0.00369703439241409,,
0.0503015741885381,0.175878141075746,0.0038461618228145,,
0.0541709260491949,0.180734174959589,0.00398237935430457,,
0.0580402779098517,0.185824129803628,0.00408345091700113,,
0.0619096297705084,0.190866878664097,0.00425476550380077,,
0.0657789816311652,0.195741170921022,0.00436130559402281,,
0.069648333491822,0.20052674250748,0.00449429809645929,,
0.0735176853524788,0.205595838893663,0.00460759150838941,,
0.0773870372131355,0.210236007961575,0.00471044678280741,,
0.0812563890737923,0.215166924286918,0.00485913073095157,,
0.0851257409344491,0.219592846369427,0.00501396799539888,,
0.0889950927951059,0.224485888126557,0.00512517769290533,,
0.0928644446557626,0.228834818809915,0.00524487877125557,,
0.0967337965164194,0.233497868623841,0.00537793649167151,,
0.100603148377076,0.237783039450566,0.00548590811652883,,
0.104472500237733,0.242360344246602,0.00561279947704563,,
0.10834185209839,0.246779101651065,0.00570608727396893,,
0.112211203959047,0.251152790919441,0.00583365364056654,,
0.116080555819703,0.255200834014748,0.00590949236725313,,
0.11994990768036,0.259220218397876,0.0060406163745963,,
0.123819259541017,0.263444836139191,0.0061680653488323,,
0.127688611401674,0.267481554420814,0.00625320089840109,,
0.13155796326233,0.271557331753714,0.00636489320895084,,
0.135427315122987,0.275170409556109,0.00648763344511538,,
0.139296666983644,0.279338403229005,0.00658633433428157,,
0.143166018844301,0.282963499201023,0.00666771332826954,,
0.147035370704958,0.286697452055592,0.00678343610991128,,
0.150904722565614,0.290450125520537,0.00689581973103692,,
0.154774074426271,0.293963360067598,0.00694538539495015,,
0.158643426286928,0.297467118750147,0.00707691375376207,,
0.162512778147585,0.30086918522819,0.00717646573755237,,
0.166382130008241,0.30442540784352,0.00726967853379978,,
0.170251481868898,0.30769689228623,0.00735457603774581,,
0.174120833729555,0.310844034897067,0.00745582042808657,,
0.177990185590212,0.313928775473319,0.00753667767824417,,
0.181859537450869,0.317120755101597,0.00763143940148892,,
0.185728889311525,0.320068211201766,0.00770469223531434,,
0.189598241172182,0.322953496385998,0.00778723210932597,,
0.193467593032839,0.326030610046912,0.00787660356661979,,
0.197336944893496,0.328794789060322,0.007954177091543,,
0.201206296754152,0.331318835799909,0.00802964733664924,,
0.205075648614809,0.334097344169408,0.00810179146483447,,
0.208945000475466,0.336604750366439,0.00820635218939891,,
0.212814352336123,0.339335417176091,0.00825974940956842,,
0.21668370419678,0.341373421401864,0.00828955402589537,,
0.220553056057436,0.34403914387182,0.00839115059332185,,
0.224422407918093,0.346063974334737,0.0084572294494758,,
0.22829175977875,0.348073782085624,0.00851935609611232,,
0.232161111639407,0.350247684075602,0.00859450025132391,,
0.236030463500063,0.352436608777609,0.00863878325895184,,
0.23989981536072,0.354050741405506,0.00868734456599096,,
0.243769167221377,0.355959088070534,0.00876895834470304,,
0.247638519082034,0.357840393853908,0.00880703260074611,,
0.251507870942691,0.359513692855337,0.00885727653163926,,
0.255377222803347,0.361026133278728,0.00890046061632344,,
0.259246574664004,0.362351598717014,0.00894609363611298,,
0.263115926524661,0.363837460496045,0.00900559525910172,,
0.266985278385318,0.365214465392525,0.00902542152466701,,
0.270854630245974,0.366543397610511,0.00907822526122937,,
0.274723982106631,0.367673336673768,0.00911088316413,,
0.278593333967288,0.368260840273441,0.00914836067566682,,
0.282462685827945,0.369764267069614,0.00920783621146359,,
0.286332037688601,0.370481428230033,0.00921053623578727,,
0.290201389549258,0.371218696712707,0.00926739326973403,,
0.294070741409915,0.371834859024559,0.00928097165292741,,
0.297940093270572,0.372591310354901,0.00930326315809227,,
0.301809445131229,0.373092375580743,0.00935852887335598,,
0.305678796991885,0.373760308469435,0.00934007218534605,,
0.309548148852542,0.37393295409845,0.00934535484163135,,
0.313417500713199,0.374257213559639,0.00939442484890574,,
0.317286852573856,0.374309908611065,0.0093731768314016,,
0.321156204434512,0.374682934106687,0.00943042517322157,,
0.325025556295169,0.37423941742385,0.00940058142610756,,
0.328894908155826,0.374198278304754,0.00942342076229474,,
0.332764260016483,0.374143965422801,0.00943530347803812,,
0.33663361187714,0.374075785422053,0.00941858158826525,,
0.340502963737796,0.373535198907641,0.00942732079742914,,
0.344372315598453,0.373280737277727,0.00942884689813361,,
0.34824166745911,0.37283930066271,0.00941472068391835,,
0.352111019319767,0.372191937333566,0.00941712070553979,,
0.355980371180423,0.371367074883828,0.00940949020201609,,
0.35984972304108,0.370540363484918,0.00943195127392649,,
0.363719074901737,0.369886528833669,0.0093867813017865,,
0.367588426762394,0.369050572688894,0.00937883775196457,,
0.371457778623051,0.367980031117815,0.00937654207910965,,
0.375327130483707,0.367016266361467,0.00932226767712452,,
0.379196482344364,0.365392657869058,0.00931008495867847,,
0.383065834205021,0.364407861315869,0.0092930761097989,,
0.386935186065678,0.362920612824959,0.0092489757125116,,
0.390804537926334,0.36126025646774,0.00924224521709593,,
0.394673889786991,0.359502136923006,0.00923523102347268,,
0.398543241647648,0.357918280837814,0.00918897517198491,,
0.402412593508305,0.356585650721483,0.00915827380844947,,
0.406281945368962,0.354690015582019,0.00911687017458718,,
0.410151297229618,0.352742147628422,0.00907020018893379,,
0.414020649090275,0.351041114389401,0.00905779899025871,,
0.417890000950932,0.348718834228302,0.00898788531694938,,
0.421759352811589,0.346854631224776,0.00896768078710686,,
0.425628704672245,0.344582272691344,0.00889529535239975,,
0.429498056532902,0.342354057819414,0.00887647344370857,,
0.433367408393559,0.339814988367799,0.00880253256020636,,
0.437236760254216,0.337358197154375,0.00873672761956357,,
0.441106112114873,0.334806647295842,0.00871050999207279,,
0.444975463975529,0.332100479062731,0.00863253537657949,,
0.448844815836186,0.329715103511108,0.00859275240949131,,
0.452714167696843,0.326836751886275,0.00852838226438291,,
0.4565835195575,0.324011326431514,0.00844670326769226,,
0.460452871418156,0.321203928231189,0.00838585489344057,,
0.464322223278813,0.31825716548696,0.00832633696595719,,
0.46819157513947,0.315052705451765,0.00825462327643223,,
0.472060927000127,0.311877828603336,0.00817643018071035,,
0.475930278860784,0.308590859211303,0.00809494683795586,,
0.47979963072144,0.305333935243329,0.00802149508929473,,
0.483668982582097,0.302274617718203,0.00793856064651166,,
0.487538334442754,0.298479418422282,0.00785584142305851,,
0.491407686303411,0.295219258793256,0.00784539350284952,,
0.495277038164067,0.291534303091767,0.00769820956821832,,
0.499146390024724,0.288149339393572,0.00762393933392325,,
0.503015741885381,0.284406835149078,0.00754463427166163,,
0.506885093746038,0.280372196935274,0.00744289422468203,,
0.510754445606695,0.27663246611454,0.00736845768454053,,
0.514623797467351,0.272776713733209,0.0072675882975779,,
0.518493149328008,0.268844461079851,0.00716053624622237,,
0.522362501188665,0.264725464560036,0.00710754337752117,,
0.526231853049322,0.260762935363973,0.00699642498518527,,
0.530101204909978,0.256634231861,0.00689523276922754,,
0.533970556770635,0.252266320558789,0.0067689577186103,,
0.537839908631292,0.2480467874277,0.00667690906328522,,
0.541709260491949,0.243640279311507,0.00658500388751326,,
0.545578612352606,0.239264538865143,0.00648037142317204,,
0.549447964213262,0.234882500435659,0.00638173575198486,,
0.553317316073919,0.230422575022268,0.00627368912645165,,
0.557186667934576,0.225714977089209,0.00619730909054095,,
0.561056019795233,0.221169075539281,0.00603876418399718,,
0.564925371655889,0.216596393116177,0.00596425916497845,,
0.568794723516546,0.211851989538646,0.00580660122294674,,
0.572664075377203,0.206921506560765,0.0057168743276681,,
0.57653342723786,0.202328543476422,0.00558248616048385,,
0.580402779098517,0.197323871412981,0.00545409478645409,,
0.584272130959173,0.192305101112097,0.0053259186317538,,
0.58814148281983,0.187466892253874,0.00526940073129722,,
0.592010834680487,0.182466611444718,0.0051270690142915,,
0.595880186541144,0.177505678585147,0.00497756331961385,,
0.5997495384018,0.172365137647332,0.0048621014098873,,
0.603618890262457,0.167161270200348,0.00475803960286125,,
0.607488242123114,0.162024629389694,0.00460554692475323,,
0.611357593983771,0.156856614222764,0.0044740511749306,,
0.615226945844428,0.151573473079993,0.00436429257745319,,
0.619096297705084,0.146237868004443,0.00423714360591987,,
0.622965649565741,0.140905960827238,0.00412195561170448,,
0.626835001426398,0.135585609582364,0.00398098368955724,,
0.630704353287055,0.130217879014935,0.0038559608241342,,
0.634573705147711,0.12481316946405,0.00371753566406063,,
0.638443057008368,0.119429029472712,0.00356938976424193,,
0.642312408869025,0.113969775921227,0.0034163753423031,,
0.646181760729682,0.108447658097866,0.00330800914867391,,
0.650051112590339,0.102912626520125,0.00315944585379047,,
0.653920464450995,0.0972948255770686,0.00304039369432951,,
0.657789816311652,0.0917782257113948,0.00289786306248807,,
0.661659168172309,0.0861744941159504,0.00275897811566361,,
0.665528520032966,0.0806274443685862,0.00262970303802046,,
0.669397871893622,0.0749631885775618,0.00249295398000271,,
0.673267223754279,0.0692619538030805,0.00236095279084436,,
0.677136575614936,0.0636083294698,0.00220742966867071,,
0.681005927475593,0.0579151838479498,0.00207867633485836,,
0.684875279336249,0.0522710353791802,0.00190137473760199,,
0.688744631196906,0.0465138698922201,0.00176741374817935,,
0.692613983057563,0.0408204931517234,0.00164659418149204,,
0.69648333491822,0.0350739591225072,0.00149522325261975,,
0.700352686778877,0.0293725221192101,0.00132546085371699,,
0.704222038639533,0.0236111676067803,0.00123090782800439,,
0.70809139050019,0.017876420628541,0.0010465887762261,,
0.711960742360847,0.0121451404300009,0.000918422404222685,,
0.715830094221504,0.00631887046770556,0.000810630128806888,,
0.719699446082161,0.000579501116534182,0.000626102379496452,,
0.723568797942817,-0.00519962064185346,0.000473312959584415,,
0.727438149803474,-0.0109512970609566,0.000343718313844832,,
0.731307501664131,-0.0167463082262984,0.000194411534002903,,
0.735176853524788,-0.0224981002047249,4.44069217877541E-05,,
0.739046205385444,-0.0282241224540548,-0.000128795725498954,,
0.742915557246101,-0.0339343708557538,-0.000258592546972913,,
0.746784909106758,-0.0397476981738391,-0.00038432139701694,,
0.750654260967415,-0.0454491640669671,-0.000552569108361656,,
0.754523612828071,-0.0511089708240443,-0.000679745797536047,,
0.758392964688728,-0.0568481668362307,-0.00080622791523588,,
0.762262316549385,-0.0625637309668017,-0.000958211893108629,,
0.766131668410042,-0.0682954156229734,-0.00110158546732642,,
0.770001020270699,-0.073891318074264,-0.00123964051537007,,
0.773870372131355,-0.0795664364416788,-0.0013992680403625,,
0.777739723992012,-0.0851782860795852,-0.00154441880450307,,
0.781609075852669,-0.0907786953444847,-0.00168523583395075,,
0.785478427713326,-0.0963551260497987,-0.00181611364342382,,
0.789347779573983,-0.101867305771356,-0.00197622704235823,,
0.793217131434639,-0.107449514442835,-0.00209430908438435,,
0.797086483295296,-0.112936675570898,-0.00223840005636911,,
0.800955835155953,-0.118397662512232,-0.00237025939642388,,
0.80482518701661,-0.123868645335032,-0.00252117379944394,,
0.808694538877266,-0.129271737055391,-0.00266383160634387,,
0.812563890737923,-0.134705105318456,-0.00280560081828218,,
0.81643324259858,-0.140126455411897,-0.00293063835775076,,
0.820302594459237,-0.14543553962275,-0.00311052258696876,,
0.824171946319893,-0.150598903526917,-0.00322701331031139,,
0.82804129818055,-0.155935895314347,-0.00334565948785404,,
0.831910650041207,-0.161121042150957,-0.00349267385574015,,
0.835780001901864,-0.166381764785006,-0.00361619670765023,,
0.839649353762521,-0.171427778196359,-0.0037553718744805,,
0.843518705623177,-0.176448368556585,-0.00389982969759606,,
0.847388057483834,-0.181377667051402,-0.00401466551472573,,
0.851257409344491,-0.186436623106965,-0.00413865793608359,,
0.855126761205148,-0.191663833537257,-0.0042753156889308,,
0.858996113065804,-0.196563548845308,-0.00440912993790077,,
0.862865464926461,-0.201355736203026,-0.00453792403295017,,
0.866734816787118,-0.206259264968746,-0.0046539321432495,,
0.870604168647775,-0.211010082088721,-0.00478487680115114,,
0.874473520508432,-0.215729987089712,-0.00491578069781573,,
0.878342872369088,-0.220512351904949,-0.00501305005234665,,
0.882212224229745,-0.224953470038472,-0.00514267567662596,,
0.886081576090402,-0.22970018480247,-0.00525460114145027,,
0.889950927951059,-0.23395964367976,-0.0053882474541247,,
0.893820279811715,-0.238472813051362,-0.00549657614741639,,
0.897689631672372,-0.24303757966082,-0.00562768711116401,,
0.901558983533029,-0.247334999775815,-0.00575661164217101,,
0.905428335393686,-0.251557999686603,-0.00583663410219915,,
0.909297687254343,-0.255878069428966,-0.00598269628759418,,
0.913167039114999,-0.259893293676455,-0.00607752322881794,,
0.917036390975656,-0.264166157435249,-0.00619104164277529,,
0.920905742836313,-0.26814960286883,-0.00628984688070755,,
0.92477509469697,-0.272059148115158,-0.00639881307974211,,
0.928644446557626,-0.276081710379677,-0.00650733579652085,,
0.932513798418283,-0.280080756321904,-0.00665424581564045,,
0.93638315027894,-0.283973141008722,-0.00670622454477066,,
0.940252502139597,-0.28755380442093,-0.00679775145626538,,
0.944121854000254,-0.291207096867834,-0.00694870499007294,,
0.94799120586091,-0.294476270124078,-0.00699224451274194,,
0.951860557721567,-0.298327400132477,-0.00708037845888754,,
0.955729909582224,-0.301983003765847,-0.00720245510211726,,
0.959599261442881,-0.305212886852169,-0.0073021733917531,,
0.963468613303537,-0.308356967140938,-0.0073823768316732,,
0.967337965164194,-0.311615335600453,-0.007490090845514,,
0.971207317024851,-0.314919003314704,-0.007584281911444,,
0.975076668885508,-0.317801919532808,-0.00762948938392194,,
0.978946020746165,-0.320833271701694,-0.00773259900845691,,
0.982815372606821,-0.323946844329111,-0.00781520410044756,,
0.986684724467478,-0.326560854001889,-0.0078959553713891,,
0.990554076328135,-0.329784496884752,-0.00798410725247933,,
0.994423428188792,-0.332514932575757,-0.00802936689933986,,
0.998292780049448,-0.334909321754597,-0.00811949977653725,,
1.00216213191011,-0.337533905105457,-0.00819966245521986,,
1.00603148377076,-0.339745883892463,-0.00828215178529801,,
1.00990083563142,-0.342157260291829,-0.00833339844261571,,
1.01377018749208,-0.344573547962435,-0.00840126590183887,,
1.01763953935273,-0.346846137614514,-0.00846415070747941,,
1.02150889121339,-0.349329449692635,-0.00853044967431194,,
1.02537824307405,-0.35101661581286,-0.00859642418169937,,
1.0292475949347,-0.35300516064826,-0.00865403774420104,,
1.03311694679536,-0.35490940495731,-0.00870413819554061,,
1.03698629865602,-0.356729002062041,-0.00875989793699361,,
1.04085565051667,-0.358442977945272,-0.00880711901456799,,
1.04472500237733,-0.360300074050414,-0.0088761962672983,,
1.04859435423799,-0.361896815000155,-0.00892984457668655,,
1.05246370609864,-0.363092622877695,-0.00898049285904889,,
1.0563330579593,-0.364644122352363,-0.00901366272308346,,
1.06020240981996,-0.365872980196368,-0.00904122384093808,,
1.06407176168061,-0.367254145228486,-0.00908866339874148,,
1.06794111354127,-0.368536333700196,-0.00910628366617283,,
1.07181046540193,-0.369413024506435,-0.00915973632162448,,
1.07567981726258,-0.370036351496331,-0.00919212520036261,,
1.07954916912324,-0.371051597931211,-0.00919398880410771,,
1.0834185209839,-0.371946604890193,-0.00923939519142092,,
1.08728787284455,-0.372540117574678,-0.00930495230374406,,
1.09115722470521,-0.373550337178994,-0.00929069728402077,,
1.09502657656587,-0.373680168078725,-0.00931186540950035,,
1.09889592842652,-0.374141769795659,-0.00933868304239693,,
1.10276528028718,-0.374704774818791,-0.00940594886576562,,
1.10663463214784,-0.374908101448143,-0.0093960618201745,,
1.11050398400849,-0.375205320027679,-0.00939962272181871,,
1.11437333586915,-0.374910701532918,-0.00941753157880632,,
1.11824268772981,-0.375301985401622,-0.00941253588162771,,
1.12211203959047,-0.374815653989501,-0.00942838385048406,,
1.12598139145112,-0.374684378598228,-0.00942792732463227,,
1.12985074331178,-0.374778443887397,-0.00943220562404345,,
1.13372009517244,-0.374095719405322,-0.00946199719677487,,
1.13758944703309,-0.373472161296779,-0.00944399703461674,,
1.14145879889375,-0.373361455465055,-0.00944249702110378,,
1.14532815075441,-0.37278579669602,-0.0094704233596401,,
1.14919750261506,-0.371969196737899,-0.00942824037093049,,
1.15306685447572,-0.371159125881544,-0.00938744000337266,,
1.15693620633638,-0.370230028922187,-0.00938352692464273,,
1.16080555819703,-0.369107254536975,-0.00938600520783828,,
1.16467491005769,-0.368317984358815,-0.00936897027176675,,
1.16854426191835,-0.36706185451451,-0.00936923114368238,,
1.172413613779,-0.365937462298771,-0.009343587434405,,
1.17628296563966,-0.364279417128018,-0.00930013921690609,,
1.18015231750032,-0.363021669453187,-0.00929876963935072,,
1.18402166936097,-0.361879481101659,-0.00926402150022865,,
1.18789102122163,-0.360149615811474,-0.00926385356393311,,
1.19176037308229,-0.358545594624365,-0.0091826294626447,,
1.19562972494294,-0.356877380233162,-0.00913719698813997,,
1.1994990768036,-0.35499931011084,-0.00908601554880084,,
1.20336842866426,-0.35305831793698,-0.00908237638558207,,
1.20723778052491,-0.35106312844049,-0.00901478447231918,,
1.21110713238557,-0.348447558716848,-0.00898458854811945,,
1.21497648424623,-0.346561861679188,-0.00893416363733479,,
1.21884583610688,-0.344292565467823,-0.00890039213744576,,
1.22271518796754,-0.342170145156377,-0.00881708432173367,,
1.2265845398282,-0.339688797586752,-0.00880136678883447,,
1.23045389168886,-0.337329827340504,-0.00872391065627331,,
1.23432324354951,-0.334835826024977,-0.00870387569317588,,
1.23819259541017,-0.332017103010968,-0.00864152893586079,,
1.24206194727083,-0.329160476538915,-0.00856750652988492,,
1.24593129913148,-0.326615860239781,-0.00849945809077024,,
1.24980065099214,-0.323680595648221,-0.00847107522638213,,
1.2536700028528,-0.320778034345155,-0.00839211092806025,,
1.25753935471345,-0.317656083666799,-0.00835224806894797,,
1.26140870657411,-0.31439199502078,-0.00825018193207372,,
1.26527805843477,-0.311529590582562,-0.0081809073949568,,
1.26914741029542,-0.308273533309513,-0.00810663716066173,,
1.27301676215608,-0.305131937546195,-0.00802082497456214,,
1.27688611401674,-0.301642103762103,-0.00797450553554535,,
1.28075546587739,-0.297976099789636,-0.00787474811512201,,
1.28462481773805,-0.294414099208141,-0.00778830820597642,,
1.28849416959871,-0.290820897609355,-0.00772695113149036,,
1.29236352145936,-0.287063601771478,-0.00762661979285317,,
1.29623287332002,-0.283475080325286,-0.0075537713104965,,
1.30010222518068,-0.279584602367302,-0.0074426904184981,,
1.30397157704133,-0.275764904494842,-0.00737568709749414,,
1.30784092890199,-0.271673411093972,-0.0072474163767251,,
1.31171028076265,-0.267885665374405,-0.00716895914818849,,
