Time domain (s),Current (AC) (A),Potential (AC) (V),Frequency (Hz),Column 5
0,-0.281979944910559,-0.00420011308372858,398.11,0.4
7.84958930948733E-05,-0.324184405407991,-0.005022217613456,,
0.000156991786189747,-0.354007031091467,-0.00564138703509443,,
0.00023548767928462,-0.369849983197674,-0.0060508740359313,,
0.000313983572379493,-0.372093856357912,-0.00622707574719428,,
0.000392479465474366,-0.359402322557503,-0.00614956135421307,,
0.00047097535856924,-0.333491842205131,-0.00585573778720594,,
0.000549471251664113,-0.29437662909756,-0.00533797764919219,,
0.000627967144758986,-0.244129759715188,-0.00459620592537968,,
0.000706463037853859,-0.184510046958687,-0.00368641981913109,,
0.000784958930948733,-0.117712077936906,-0.00263632256138058,,
0.000863454824043606,-0.0464421364422797,-0.00148973216804071,,
0.000941950717138479,0.0258717101994045,-0.000303615676582769,,
0.00102044661023335,0.0985140631074087,0.000948619657082261,,
0.00109894250332823,0.167159392361344,0.00212477391613053,,
0.0011774383964231,0.228941595624647,0.00323995990223569,,
0.00125593428951797,0.281787827535568,0.004209188534122,,
0.00133443018261285,0.323880426608043,0.0050291966682976,,
0.00141292607570772,0.353266180269771,0.00565640071007723,,
0.00149142196880259,0.369552475719831,0.0060779490179752,,
0.00156991786189747,0.371488007715665,0.00623885039058303,,
0.00164841375499234,0.359026408078799,0.00617236317216063,,
0.00172690964808721,0.333171627320258,0.0058785195119051,,
0.00180540554118209,0.294428110776092,0.00535184065083349,,
0.00188390143427696,0.244370123107658,0.004602062437427,,
0.00196239732737183,0.184745932427379,0.00368860998317455,,
0.00204089322046671,0.118218343332296,0.00262637640356989,,
0.00211938911356158,0.0470732059068379,0.00149746271036078,,
0.00219788500665645,-0.0253710494311939,0.000288591285201534,,
0.00227638089975132,-0.0984324493353259,-0.000958395692058911,,
0.0023548767928462,-0.166978888698344,-0.00212788970913635,,
0.00243337268594107,-0.228959247311281,-0.00322323830116433,,
0.00251186857903594,-0.281783898518576,-0.00421178592132643,,
0.00259036447213082,-0.324353122020014,-0.00502447743409284,,
0.00266886036522569,-0.354378265417578,-0.0056528227723649,,
0.00274735625832056,-0.36992469230019,-0.00604634501780899,,
0.00282585215141544,-0.372158800697608,-0.00622673148287678,,
0.00290434804451031,-0.35994481580075,-0.00614461171743041,,
0.00298284393760518,-0.333317405406605,-0.00587226247444539,,
0.00306133983070006,-0.294595671794881,-0.00531658905636156,,
0.00313983572379493,-0.244058286273725,-0.00460562965874001,,
0.0032183316168898,-0.184458969737787,-0.00368934539605492,,
0.00329682750998468,-0.117689601648523,-0.00263315988412893,,
0.00337532340307955,-0.0464423675609263,-0.00149194912308115,,
0.00345381929617442,0.0259048757251925,-0.000288726579738441,,
0.0035323151892693,0.0985918056421608,0.00094535919269001,,
0.00361081108236417,0.167112273047267,0.00213435973502563,,
0.00368930697545904,0.228855966166079,0.00323500088860396,,
0.00376780286855392,0.282009412538002,0.0042121033946465,,
0.00384629876164879,0.323939592981574,0.00500916503948901,,
0.00392479465474366,0.353487996390851,0.00566155261889101,,
0.00400329054783854,0.369520668016091,0.00605203140702226,,
0.00408178644093341,0.371336509442815,0.00623243930488826,,
0.00416028233402828,0.359371901565644,0.00616653077201113,,
0.00423877822712316,0.333260723558525,0.00588242563933639,,
0.00431727412021803,0.294294004181399,0.00534292996507491,,
0.0043957700133129,0.244376594429763,0.00462639937952902,,
0.00447426590640778,0.184908582174928,0.00368293832901001,,
0.00455276179950265,0.118235763900284,0.00265701458827694,,
0.00463125769259752,0.0470706636017253,0.00149186875008889,,
0.0047097535856924,-0.0254049083129217,0.000305247248328921,,
0.00478824947878727,-0.098416675487695,-0.000955996558235306,,
0.00486674537188214,-0.166994200308682,-0.00213074027126714,,
0.00494524126497702,-0.22882906973358,-0.00321439459289907,,
0.00502373715807189,-0.281890386434999,-0.00420215723683537,,
0.00510223305116676,-0.323962589286911,-0.00503406191343769,,
0.00518072894426164,-0.354057357176766,-0.00563366185097403,,
0.00525922483735651,-0.370218444100026,-0.00605523159166976,,
0.00533772073045138,-0.371795944422437,-0.00622580585391441,,
0.00541621662354626,-0.35953550467761,-0.00617391705001369,,
0.00549471251664113,-0.333490917730544,-0.00585172583533478,,
0.005573208409736,-0.294433946521919,-0.00531618049365035,,
0.00565170430283088,-0.244091451799513,-0.00459834652607771,,
0.00573020019592575,-0.184358259787528,-0.00366805592991515,,
0.00580869608902062,-0.117640200037811,-0.00264674693849631,,
0.00588719198211549,-0.0465997015796035,-0.00152192155150122,,
0.00596568787521037,0.02590164006414,-0.000293879828102028,,
0.00604418376830524,0.0985569933960158,0.000915010350755807,,
0.00612267966140012,0.167082834309656,0.00211457726249353,,
0.00620117555449499,0.228912590234498,0.00321882984253064,,
0.00627967144758986,0.281928232113381,0.00423030519832812,,
0.00635816734068474,0.32372569267414,0.00503215439441806,,
0.00643666323377961,0.353368710279372,0.00566700726597569,,
0.00651515912687448,0.369314856861289,0.00608052095373202,,
0.00659365501996935,0.371220025644925,0.00622939584757543,,
0.00667215091306423,0.359275842878148,0.00617995841994334,,
0.0067506468061591,0.333083224437931,0.0058542468681968,,
0.00682914269925397,0.294541792260391,0.00534767465072683,,
0.00690763859234885,0.244477997735962,0.00460830206073792,,
0.00698613448544372,0.184794438453336,0.00369718310236511,,
0.00706463037853859,0.118156865772299,0.00265994284430038,,
0.00714312627163347,0.0470611588473836,0.00149445140224502,,
0.00722162216472834,-0.0254056016688615,0.000288000543707145,,
0.00730011805782321,-0.0983807365381478,-0.000965635959125244,,
0.00737861395091809,-0.166945723172556,-0.00212668411425021,,
0.00745710984401296,-0.228741129088547,-0.00325061736102938,,
0.00753560573710783,-0.281957468622177,-0.00420141512620553,,
0.00761410163020271,-0.324106865102055,-0.00504308914003548,,
0.00769259752329758,-0.353852528276211,-0.00566661477786257,,
0.00777109341639245,-0.370084337505333,-0.00606050272042191,,
0.00784958930948733,-0.372301054224595,-0.00623233615954755,,
0.0079280852025822,-0.359479111727838,-0.00615846936087205,,
0.00800658109567707,-0.333544537256557,-0.00588208539366786,,
0.00808507698877195,-0.294583364726949,-0.00531685830588646,,
0.00816357288186682,-0.244129990833834,-0.00459765799744272,,
0.00824206877496169,-0.184497277653462,-0.00365995433227972,,
0.00832056466805657,-0.117659440665141,-0.00263212709117644,,
0.00839906056115144,-0.0464368207134078,-0.00148653734159199,,
0.00847755645424631,0.0259151027253049,-0.000281959173777491,,
0.00855605234734119,0.0985528332603769,0.000928298685500817,,
0.00863454824043606,0.167193973488842,0.00211572659628478,,
0.00871304413353093,0.229025578362857,0.00323612878959745,,
0.00879154002662581,0.281773440399817,0.00420945644409665,,
0.00887003591972068,0.323854656878946,0.00500595815709159,,
0.00894853181281555,0.353557100866186,0.00564631925772918,,
0.00902702770591043,0.369300931962831,0.00605803526955517,,
0.0091055235990053,0.371128127093068,0.00622791162631575,,
0.00918401949210017,0.358997633807296,0.00615824699559342,,
0.00926251538519504,0.333223397897098,0.00586466052891366,,
0.00934101127828992,0.294435997699907,0.00534786754590888,,
0.00941950717138479,0.244280102394805,0.00460491299955779,,
0.00949800306447967,0.184780051317584,0.00369220265593517,,
0.00957649895757454,0.118138058492432,0.00262449299644762,,
0.00965499485066941,0.0471049847207463,0.00147237294123004,,
0.00973349074376429,-0.0253993614654032,0.000298059223707625,,
0.00981198663685916,-0.0984338360472055,-0.00093005885403441,,
0.00989048252995403,-0.167040828495635,-0.00213040672334852,,
0.0099689784230489,-0.228989408294663,-0.00324068727781679,,
0.0100474743161438,-0.282052573945255,-0.00420612766266082,,
0.0101259702092387,-0.324290488866784,-0.00502447743409284,,
0.0102044661023335,-0.354030720752744,-0.0056517685466142,,
0.0102829619954284,-0.37019059430311,-0.00605149826617213,,
0.0103614578885233,-0.371791553168151,-0.00622473019536596,,
0.0104399537816181,-0.359842950257258,-0.00616055637957524,,
0.010518449674713,-0.33367933720719,-0.00586930474832492,,
0.0105969455678079,-0.294544652353643,-0.00534689637225005,,
0.0106754414609028,-0.243987506188202,-0.00459485030090789,,
0.0107539373539976,-0.184408181415195,-0.00368284857916823,,
0.0108324332470925,-0.117780084598669,-0.0026189579763698,,
0.0109109291401874,-0.0465296148500202,-0.00149113065810846,,
0.0109894250332823,0.0258798282418666,-0.000294416987601132,,
0.0110679209263771,0.098549337590847,0.000938862375803318,,
0.011146416819472,0.166970250638927,0.00210362510272732,,
0.0112249127125669,0.22895991177739,0.00326188833366547,,
0.0113034086056618,0.281743972772375,0.00421600952207779,,
0.0113819044987566,0.323770703030566,0.00503373506326898,,
0.0114604003918515,0.353436225814011,0.00564648000371415,,
0.0115388962849464,0.369689124619636,0.00605076955104122,,
0.0116173921780412,0.371550669758726,0.00624266007042307,,
0.0116958880711361,0.359225950140312,0.0061689955437787,,
0.011774383964231,0.333117314438305,0.00586365050830917,,
0.0118528798573259,0.294498659742968,0.0053292987055622,,
0.0119313757504207,0.244441105421997,0.00459846976466638,,
0.0120098716435156,0.184602321078344,0.00368698376962806,,
0.0120883675366105,0.11817125290805,0.00260785042881917,,
0.0121668634297054,0.0470653189830225,0.00147957971954948,,
0.0122453593228002,-0.0254046771942751,0.000281770297245743,,
0.0123238552158951,-0.0983394240800669,-0.000945775792700498,,
0.01240235110899,-0.166894183714363,-0.00213529072218721,,
0.0124808470020848,-0.228841839038805,-0.00324112932927489,,
0.0125593428951797,-0.281940539181313,-0.00422337302773235,,
0.0126378387882746,-0.324329663477383,-0.00503677316238171,,
0.0127163346813695,-0.354036267600263,-0.00567223151048246,,
0.0127948305744643,-0.369982703080488,-0.00604203032766604,,
0.0128733264675592,-0.372066931035583,-0.00625460617619478,,
0.0129518223606541,-0.359506268168815,-0.00615240119994498,,
0.013030318253749,-0.333534541375091,-0.00585705054608177,,
0.0131088141468438,-0.294462489674774,-0.00534017317143487,,
0.0131873100399387,-0.244040201239628,-0.00460458614938863,,
0.0132658059330336,-0.184597525366427,-0.00369343370226893,,
0.0133443018261285,-0.117756857174685,-0.00265627917539613,,
0.0134227977192233,-0.0464913069343452,-0.00148273971770063,,
0.0135012936123182,0.0258881774029752,-0.000296762539429896,,
0.0135797895054131,0.0984709305899858,0.000925437406971152,,
0.0136582853985079,0.167104877250576,0.00211701792236285,,
0.0137367812916028,0.228913514709084,0.00322177953135228,,
0.0138152771846977,0.281905235808044,0.00419380246427448,,
0.0138937730777926,0.323829147158327,0.0050273561267713,,
0.0139722689708874,0.353383328533769,0.00564127451290553,,
0.0140507648639823,0.369416491286134,0.00606077866769628,,
0.0141292607570772,0.371442072884652,0.00623765819119537,,
0.0142077566501721,0.359162594741311,0.0061515894327222,,
0.0142862525432669,0.33309506926857,0.00586781382931578,,
0.0143647484363618,0.294181680519148,0.00531199975849539,,
0.0144432443294567,0.244409066599611,0.00460962553601307,,
0.0145217402225516,0.184840373284348,0.00368963072017836,,
0.0146002361156464,0.118237612849457,0.00265165906788267,,
0.0146787320087413,0.0470908575934725,0.00150338084170221,,
0.0147572279018362,-0.0253487464817964,0.000303256677216979,,
0.014835723794931,-0.0983934480637111,-0.000931370273360432,,
0.0149142196880259,-0.166975421918645,-0.00213291302116181,,
0.0149927155811208,-0.228855070581323,-0.00323531970147339,,
0.0150712114742157,-0.281972780232515,-0.00419321708097975,,
0.0151497073673105,-0.324279741849716,-0.00503124350050399,,
0.0152282032604054,-0.353920246039666,-0.0056474538564717,,
0.0153066991535003,-0.370204519201568,-0.00603352150686964,,
0.0153851950465952,-0.371719386370748,-0.00622675291567498,,
0.01546369093969,-0.359808629138237,-0.00615220696521357,,
0.0155421868327849,-0.333522003188513,-0.00584863817287617,,
0.0156206827258798,-0.294258527469144,-0.00534371226220065,,
0.0156991786189747,-0.244125541799887,-0.00459521599802315,,
0.0157776745120695,-0.184350401753543,-0.00368938960120069,,
0.0158561704051644,-0.117614661427361,-0.00266073317872539,,
0.0159346662982593,-0.0464864534427665,-0.00148504240393343,,
0.0160131621913541,0.0258255153599141,-0.000295547567694676,,
0.016091658084449,0.0985393705992121,0.000958205475977358,,
0.0161701539775439,0.16713896725095,0.00211353241359191,,
0.0162486498706388,0.229033927523966,0.00322552223369899,,
0.0163271457637336,0.281794818874628,0.00420981276436283,,
0.0164056416568285,0.323888313531858,0.00500899089800511,,
0.0164841375499234,0.353549705069495,0.00564240241389902,,
0.0165626334430183,0.369545022143478,0.00607664697549781,,
0.0166411293361131,0.371510975131171,0.00624276723441319,,
0.016719625229208,0.359153349995447,0.00616555290060372,,
0.0167981211223029,0.33329414909279,0.00584969507772648,,
0.0168766170153978,0.294355481741396,0.0053218025844699,,
0.0169551129084926,0.244295876242436,0.00460578638607556,,
0.0170336088015875,0.184878883428839,0.00368977003336513,,
0.0171121046946824,0.118152907865476,0.00265510171105765,,
0.0171906005877772,0.0470862063307095,0.00149267515911289,,
0.0172690964808721,-0.0253682760074346,0.000283557256776756,,
0.017347592373967,-0.0982609592995441,-0.000934167253496376,,
0.0174260882670619,-0.166887712392258,-0.00214119813712976,,
0.0175045841601567,-0.228924695073614,-0.00323839664753312,,
0.0175830800532516,-0.281965095537515,-0.00421011818173378,,
0.0176615759463465,-0.324201103730209,-0.00502272396330827,,
0.0177400718394414,-0.354178463347587,-0.00564294627114759,,
0.0178185677325362,-0.370096355674957,-0.00605073472274453,,
0.0178970636256311,-0.372246047986702,-0.00623742510951697,,
0.017975559518726,-0.35967192245877,-0.00615246549833914,,
0.0180540554118209,-0.333372816102129,-0.00586458149547076,,
0.0181325513049157,-0.294237900129935,-0.00532332565267568,,
0.0182110471980106,-0.244316734700292,-0.00459156840371744,,
0.0182895430911055,-0.18441326602542,-0.0037336054634256,,
0.0183680389842003,-0.117686597106117,-0.0026426586322823,,
0.0184465348772952,-0.0464929247648714,-0.00149843656311877,,
0.0185250307703901,0.0259241452423533,-0.000294288390813247,,
0.018603526663485,0.0985799608115223,0.000943111428002297,,
0.0186820225565798,0.16711761766597,0.00212174117521702,,
0.0187605184496747,0.228997988574419,0.00321841190297034,,
0.0188390143427696,0.281876692655188,0.00420504664591315,,
0.0189175102358645,0.323893658150561,0.00503778050388703,,
0.0189960061289593,0.353470344704217,0.00565702226121845,,
0.0190745020220542,0.369366829666944,0.00604005583115308,,
0.0191529979151491,0.371622807666298,0.00624966323716203,,
0.019231493808244,0.359058186892707,0.00616900626017758,,
0.0193099897013388,0.333014553310058,0.00587794886365911,,
0.0193884855944337,0.29464319556659,0.00534486695419201,,
0.0194669814875286,0.244479384447841,0.00461211174057841,,
0.0195454773806234,0.18487749671696,0.00370643671289139,,
0.0196239732737183,0.118180988781039,0.00264380394742414,,
0.0197024691668132,0.0471068625597499,0.00149855042485836,,
0.0197809650599081,-0.0254222999910788,0.000307871426531214,,
0.0198594609530029,-0.0982544879774391,-0.000939816135313354,,
0.0199379568460978,-0.167028521427703,-0.0021016398898146,,
0.0200164527391927,-0.22883467436076,-0.00322370044587084,,
0.0200949486322876,-0.282039862419692,-0.00421619705905973,,
0.0201734445253824,-0.324171867221413,-0.0050314377352354,,
0.0202519404184773,-0.354055277108946,-0.00564065430131366,,
0.0203304363115722,-0.370220524167846,-0.00603926549672718,,
0.0204089322046671,-0.372063233137237,-0.00621324087610065,,
0.0204874280977619,-0.359684922882641,-0.00617512264489983,,
0.0205659239908568,-0.333412972966976,-0.00585845975254884,,
0.0206444198839517,-0.294284759435534,-0.00531771963645511,,
0.0207229157770465,-0.244169165444434,-0.00459531244561395,,
0.0208014116701414,-0.184432968890043,-0.00368961464557938,,
0.0208799075632363,-0.117673365563599,-0.00265459000300572,,
0.0209584034563312,-0.046516383307502,-0.00151060369461975,,
0.021036899349426,0.0258846817334453,-0.000303239263068189,,
0.0211153952425209,0.098536568285622,0.000950114594741258,,
0.0211938911356158,0.167119466615143,0.00213332828162294,,
0.0212723870287107,0.228992412837069,0.0032377978687399,,
0.0213508829218055,0.281897348884229,0.00420567087615398,,
0.0214293788149004,0.323981598795595,0.00503501567294817,,
0.0215078747079953,0.353504694713069,0.00566347889160879,,
0.0215863706010902,0.369596301593193,0.00607915461286135,,
0.021664866494185,0.371491965622488,0.00623103009842119,,
0.0217433623872799,0.359031752697501,0.00618628377444619,,
0.0218218582803748,0.33302336470846,0.00587563412147762,,
0.0219003541734696,0.294365910970324,0.00534262990590317,,
0.0219788500665645,0.244230643004431,0.00459736061737104,,
0.0220573459596594,0.184913695674984,0.00368999775684342,,
0.0221358418527543,0.11819956494226,0.00264958276557881,,
0.0222143377458491,0.0470977911528707,0.00150983479299294,,
0.022292833638944,-0.0253619780243146,0.000313336790015217,,
0.0223713295320389,-0.0983572779955172,-0.000931844474016064,,
0.0224498254251338,-0.167038979546462,-0.00212455422995106,,
0.0225283213182286,-0.228931397514365,-0.00323565324939201,,
0.0226068172113235,-0.282306168880244,-0.00421769199671873,,
0.0226853131044184,-0.324167880424759,-0.00502854296795885,,
0.0227638089975132,-0.354213997839503,-0.00566962876507793,,
0.0228423048906081,-0.370159046607848,-0.00605064765200236,,
0.022920800783703,-0.372289209393956,-0.0062434383488994,,
0.0229992966767979,-0.359695149882753,-0.00617059362677752,,
0.0230777925698927,-0.333290480084275,-0.00584729326480327,,
0.0231562884629876,-0.294255985164032,-0.00534470218955718,,
0.0232347843560825,-0.244238327699431,-0.00462496338206453,,
0.0233132802491774,-0.184524202975791,-0.0037091412640855,,
0.0233917761422722,-0.1177090733945,-0.00263494550411059,,
0.0234702720353671,-0.0464685995273161,-0.00151645618801721,,
0.023548767928462,0.0258512850890107,-0.000321690223026305,,
0.0236272638215569,0.0984648926153432,0.000922273390169703,,
0.0237057597146517,0.167062640317908,0.00211489875446302,,
0.0237842556077466,0.229123948236819,0.00322877198169191,,
0.0238627515008415,0.281770204738764,0.00420404466260749,,
0.0239412473939363,0.323896200455674,0.00501221921320028,,
0.0240197432870312,0.353438305881831,0.00563803548131148,,
0.0240982391801261,0.369532281728083,0.00608002532027907,,
0.024176735073221,0.371343934129337,0.00623756174360457,,
0.0242552309663158,0.359007860807408,0.00617001895988167,,
0.0243337268594107,0.333153311167514,0.00585422543539904,,
0.0244122227525056,0.294485890437743,0.00533038642005934,,
0.0244907186456005,0.244400746328334,0.0045940278172858,,
0.0245692145386953,0.184828326224894,0.00371264418700523,,
0.0246477104317902,0.118182837730212,0.00264874152825811,,
0.0247262063248851,0.0471075559156898,0.00151432228506909,,
0.02480470221798,-0.025389596702584,0.000314961664011904,,
0.0248831981110748,-0.0983396551987135,-0.000944796581742846,,
0.0249616940041697,-0.166980506528871,-0.0021207566060597,,
0.0250401898972646,-0.228803993360424,-0.00322519538352939,,
0.0251186857903594,-0.282055636267323,-0.00421231370397646,,
0.0251971816834543,-0.324138412797317,-0.00503035136028807,,
0.0252756775765492,-0.354089135990674,-0.00564638891432212,,
0.0253541734696441,-0.370324700897803,-0.00605798570620975,,
0.0254326693627389,-0.371741862659131,-0.00622168539850332,,
0.0255111652558338,-0.359561736644,-0.00617032437725262,,
0.0255896611489287,-0.333641491528808,-0.00586284945748439,,
0.0256681570420236,-0.294631841863075,-0.00534132384477637,,
0.0257466529351184,-0.244098616477558,-0.00463121372177433,,
