Time domain (s),Current (AC) (A),Potential (AC) (V),Frequency (Hz),Column 5
0,0.194401129310603,0.00444160231853941,0.0050119,0.3
0.48712189987829,0.19744951467843,0.00464809157969315,,
0.974243799756579,0.200642202455048,0.00478793587996718,,
1.46136569963487,0.203742905594308,0.00498305217817085,,
1.94848759951316,0.20682373908618,0.00516211739787398,,
2.43560949939145,0.209700806084796,0.00534241924544121,,
2.92273139926974,0.212490379034649,0.00554389176069714,,
3.40985329914803,0.215243254701357,0.00566036053346064,,
3.89697519902632,0.218181548219747,0.005838013539194,,
4.38409709890461,0.221025394519937,0.00603733888720548,,
4.8712189987829,0.223719747677207,0.0062013062101296,,
5.35834089866119,0.226293192943692,0.00637577859896332,,
5.84546279853948,0.228782620746133,0.00652411625004268,,
6.33258469841777,0.231544187874638,0.0066939105233268,,
6.81970659829605,0.233925841550789,0.0068492565684255,,
7.30682849817434,0.236103149302897,0.00700676733937877,,
7.79395039805263,0.238590645669383,0.00716038762388838,,
8.28107229793092,0.241156751479239,0.00732036161707761,,
8.76819419780921,0.243252359490449,0.0074904594034888,,
9.2553160976875,0.245431984965703,0.00764731298072974,,
9.74243799756579,0.247486839678261,0.00779281115363073,,
10.2295598974441,0.249727305386099,0.0079419866012751,,
10.7166817973224,0.251745269671917,0.0080838902757403,,
11.2038036972007,0.253926247152339,0.00824638267537026,,
11.690925597079,0.25585517224063,0.00839569106678084,,
12.1780474969572,0.257573184522631,0.00852605622568126,,
12.6651693968355,0.259437213362833,0.00867242480399577,,
13.1522912967138,0.261186708050901,0.00879428156185336,,
13.6394131965921,0.262927511277172,0.00894009829811893,,
14.1265350964704,0.264231809977605,0.00907701532716221,,
14.6136569963487,0.266166336230165,0.00920749085447214,,
15.100778896227,0.267529157440036,0.00934054498917369,,
15.5879007961053,0.268910134147884,0.00944255550025996,,
16.0750226959836,0.270310811502474,0.00961670932572911,,
16.5621445958618,0.271464265054819,0.0097136303481018,,
17.0492664957401,0.272590678503794,0.00982332651390339,,
17.5363883956184,0.273768275005577,0.00993348422032758,,
18.0235102954967,0.275085321183314,0.0100624522154953,,
18.510632195375,0.276017432175212,0.0101834059590913,,
18.9977540952533,0.277110818069356,0.010293327878458,,
19.4848759951316,0.277866202671369,0.0104236102610513,,
19.9719978950099,0.278881751696525,0.0105065872382011,,
20.4591197948882,0.279740468122132,0.0106018953767677,,
20.9462416947665,0.280275862168867,0.0107282872729169,,
21.4333635946447,0.28082554884167,0.0108152450379366,,
21.920485494523,0.281727336289074,0.0109127329525958,,
22.4076073944013,0.28190406267896,0.0110043989336406,,
22.8947292942796,0.282553797734233,0.0111134128219996,,
23.3818511941579,0.28287518867715,0.0111959483255104,,
23.8689730940362,0.283194068753326,0.0112752430111711,,
24.3560949939145,0.283614349217141,0.0113540661227174,,
24.8432168937928,0.28350271221894,0.0114614947193732,,
25.3303387936711,0.283816184274442,0.0115285485450434,,
25.8174606935494,0.283873547922306,0.0115835120130998,,
26.3045825934276,0.284029607947473,0.0116865058063818,,
26.7917044933059,0.283761524636914,0.0117649376117481,,
27.2788263931842,0.283574175349276,0.0118176636111338,,
27.7659482930625,0.283597545724332,0.011863807639902,,
28.2530701929408,0.283160268624113,0.0119476274303625,,
28.7401920928191,0.282748293334904,0.011998013117787,,
29.2273139926974,0.282449500192661,0.0120241328053039,,
29.7144358925757,0.281817341204579,0.0121106415715659,,
30.201557792454,0.281431633444359,0.0121709328237656,,
30.6886796923322,0.280716036423019,0.0122007699199931,,
31.1758015922105,0.280080014563027,0.0122415811478716,,
31.6629234920888,0.279374267865058,0.0123178933780959,,
32.1500453919671,0.278740177441021,0.0123134711165873,,
32.6371672918454,0.277707824923056,0.0123735491570862,,
33.1242891917237,0.276593772664194,0.0123952014323812,,
33.611411091602,0.275911203197685,0.012438806987725,,
34.0985329914803,0.274467454821299,0.0124595261482829,,
34.5856548913586,0.273486285356142,0.0124725094866665,,
35.0727767912369,0.272221387949192,0.0124813590264301,,
35.5598986911151,0.271067934396846,0.0125182521757625,,
36.0470205909934,0.269746252772818,0.0125412589724498,,
36.5341424908717,0.268320659894408,0.012557894501847,,
37.02126439075,0.266880967533527,0.0125648978791206,,
37.5083862906283,0.265610275818712,0.0125727942371636,,
37.9955081905066,0.264019545166147,0.0125896404698884,,
38.4826300903849,0.262473237540548,0.0125677172903149,,
38.9697519902632,0.260536393564842,0.0125805400928298,,
39.4568738901415,0.258784388010032,0.012589168895774,,
39.9439957900197,0.256851020619045,0.0125725333663769,,
40.431117689898,0.255419247145579,0.012570958108165,,
40.9182395897763,0.253256038875943,0.0125213424912358,,
41.4053614896546,0.251289257642934,0.0125041751867734,,
41.8924833895329,0.249145750020039,0.0124941416949778,,
42.3796052894112,0.247056708891076,0.0124822219067244,,
42.8667271892895,0.244845987296946,0.0124602485596923,,
43.3538490891678,0.242541204771806,0.0123987432549852,,
43.8409709890461,0.24011512806869,0.01238200739067,,
44.3280928889244,0.238214401945342,0.012360465483785,,
44.8152147888026,0.235658339602453,0.0123236024349276,,
45.3023366886809,0.233171036379562,0.012295960165031,,
45.7894585885592,0.230422989302742,0.0122358695826668,,
46.2765804884375,0.227906907684121,0.0121807230033855,,
46.7637023883158,0.225637856724149,0.0121699570666887,,
47.2508242881941,0.222733170191376,0.0121196115132309,,
47.7379461880724,0.220225780034553,0.0120523570177253,,
48.2250680879507,0.217428867628071,0.0120044847199954,,
48.712189987829,0.214484007227433,0.0119408447899088,,
49.1993118877073,0.211691150836457,0.011870520045913,,
49.6864337875855,0.208755561328403,0.0117763757923948,,
50.1735556874638,0.205732864058777,0.0117465863552537,,
50.6606775873421,0.202703406763309,0.0116836462612198,,
51.1477994872204,0.199491259769445,0.0116027060829049,,
51.6349213870987,0.196435317658443,0.0115161973166429,,
52.122043286977,0.193424015860952,0.0114377053103256,,
52.6091651868553,0.190074688628381,0.0113613905717282,,
53.0962870867336,0.186890933743055,0.0112750122408598,,
53.5834089866119,0.183551867263995,0.0111610217405702,,
54.0705308864901,0.180179217942267,0.0110997572396658,,
54.5576527863684,0.17683104957127,0.0110202142250833,,
55.0447746862467,0.173550481458698,0.0109310340416311,,
55.531896586125,0.169822641064839,0.0108248796984332,,
56.0190184860033,0.166570489203756,0.0107366928306689,,
56.5061403858816,0.163010080164249,0.0106400527460662,,
56.9932622857599,0.159217126235757,0.0105152361081289,,
57.4803841856382,0.155844283770433,0.0103870908592882,,
57.9675060855165,0.151854299231578,0.0102686454886411,,
58.4546279853948,0.148406275621705,0.0101708038933963,,
58.941749885273,0.144578773132567,0.0100867558409972,,
59.4288717851513,0.140841806703821,0.00997009643188962,,
59.9159936850296,0.137073792442098,0.00985818537277439,,
60.4031155849079,0.133122074478102,0.00971908856763859,,
60.8902374847862,0.129293968415228,0.00959990322697157,,
61.3773593846645,0.125484210993927,0.00946321445986698,,
61.8644812845428,0.121478799110381,0.00934544133317017,,
62.3516031844211,0.117504869632902,0.00920777179224253,,
62.8387250842994,0.113540017904411,0.00907429625088563,,
63.3258469841777,0.109624031505583,0.00893826467749337,,
63.8129688840559,0.105489599700241,0.00884244984759119,,
64.3000907839342,0.10142469958928,0.00868118404233309,,
64.7872126838125,0.09734859714978,0.00854173104823897,,
65.2743345836908,0.0932286511141005,0.00839543019599409,,
65.7614564835691,0.0891154651042637,0.00827579334819628,,
66.2485783834474,0.0850105842690336,0.00810247230254602,,
66.7357002833257,0.0807741967882151,0.00797445498072547,,
67.222822183204,0.0765530193655426,0.0078233104603167,,
67.7099440830823,0.0724471486693855,0.00767464672075402,,
68.1970659829606,0.0681744501926125,0.00750788757873799,,
68.6841878828388,0.0639710661236756,0.0073635156652907,,
69.1713097827171,0.059687913749796,0.00720058179202177,,
69.6584316825954,0.0553738825435853,0.00704401166092428,,
70.1455535824737,0.0511330044741714,0.00686450998432786,,
70.632675482352,0.0467322276506303,0.00672858376259944,,
71.1197973822303,0.0424191621623971,0.00654872589704425,,
71.6069192821086,0.0381151261372536,0.0063907887026895,,
72.0940411819869,0.0338682606163792,0.00624363751201518,,
72.5811630818652,0.0295414819328652,0.00609295453222858,,
73.0682849817434,0.0252100436601098,0.00588192260766451,,
73.5554068816217,0.0208710727871297,0.00572859831116279,,
74.0425287815,0.0165120149802173,0.00554162419155135,,
74.5296506813783,0.0121423342755522,0.0053824905033002,,
75.0167725812566,0.00777185685355563,0.00520983668485409,,
75.5038944811349,0.00344027372310355,0.0050377623005593,,
75.9910163810132,-0.000938315729904133,0.0048514303244227,,
76.4781382808915,-0.0053006569779401,0.00469475735003444,,
76.9652601807698,-0.0097062623913688,0.00448687343352105,,
77.4523820806481,-0.0140904288656966,0.00432358838803903,,
77.9395039805263,-0.0184404089236204,0.00412173460009502,,
78.4266258804046,-0.022782663237724,0.00395268029683082,,
78.9137477802829,-0.0271168055208165,0.00380318126907619,,
79.4008696801612,-0.0315098083146386,0.00360273969510239,,
79.8879915800395,-0.0357850900870015,0.00342102563356494,,
80.3751134799178,-0.0401254129651501,0.00322624545733641,,
80.8622353797961,-0.0444817667617255,0.00304876552933697,,
81.3493572796744,-0.0487977535468407,0.00286816769376186,,
81.8364791795527,-0.0530395249053838,0.00267449371000383,,
82.3236010794309,-0.0573361007591509,0.00246788404694875,,
82.8107229793092,-0.0616269305909518,0.00229156298725153,,
83.2978448791875,-0.0658888371693261,0.00210871514114119,,
83.7849667790658,-0.0701382376998916,0.00192318584434847,,
84.2720886789441,-0.0742956053071997,0.00173568998316398,,
84.7592105788224,-0.0784524417696203,0.00155527776718678,,
85.2463324787007,-0.0827294618343427,0.00136501266226663,,
85.733454378579,-0.0868584856190107,0.0011586939704733,,
86.2205762784573,-0.0909349260598031,0.000965458951981635,,
86.7076981783355,-0.0951510576060431,0.000775334315946452,,
87.1948200782138,-0.0992151851426221,0.000581065847800044,,
87.6819419780921,-0.103363909574031,0.000417861070252545,,
88.1690638779704,-0.107311909523814,0.000167485315984539,,
88.6561857778487,-0.111276809538203,-2.60695200577921E-05,,
89.143307677727,-0.115344993090288,-0.00019770368490013,,
89.6304295776053,-0.119405644042148,-0.000387616363421106,,
90.1175514774836,-0.123352919703447,-0.000556441150560527,,
90.6046733773619,-0.127246308301601,-0.000756519010456813,,
91.0917952772402,-0.131113187941273,-0.000951138650816308,,
91.5789171771185,-0.134848440220609,-0.00113042836989896,,
92.0660390769967,-0.1388347308882,-0.00132577794678657,,
92.553160976875,-0.142539563051244,-0.00150966300511124,,
93.0402828767533,-0.146188142142098,-0.00171689349047144,,
93.5274047766316,-0.149949420520928,-0.00191562811665325,,
94.0145266765099,-0.15368998424914,-0.0020854236441239,,
94.5016485763882,-0.157348461949263,-0.00228693754753362,,
94.9887704762665,-0.161004718498038,-0.0024775651123452,,
95.4758923761448,-0.164474929478445,-0.00264680879776691,,
95.9630142760231,-0.168051514294075,-0.00284031472053714,,
96.4501361759013,-0.171543598786672,-0.00302215169234898,,
96.9372580757796,-0.174829550776968,-0.00323552392887461,,
97.4243799756579,-0.17829995490097,-0.00339640093632543,,
97.9115018755362,-0.181657370021603,-0.00357185660735526,,
98.3986237754145,-0.185030864346561,-0.00374830684825955,,
98.8857456752928,-0.188445015398373,-0.00392421277223365,,
99.3728675751711,-0.191510928547493,-0.00412361838817965,,
99.8599894750494,-0.194852892180485,-0.0042747227746216,,
100.347111374928,-0.198084087961456,-0.00446968355370236,,
100.834233274806,-0.201101184066812,-0.0046813400631307,,
101.321355174684,-0.204014900062675,-0.00482605311529882,,
101.808477074563,-0.207148654899715,-0.00503686555722993,,
102.295598974441,-0.210018237584005,-0.00518935581972624,,
102.782720874319,-0.213007086438519,-0.00535079344853129,,
103.269842774197,-0.215796659388372,-0.00553740761662436,,
103.756964674076,-0.218683142137269,-0.00570630138401995,,
104.244086573954,-0.221290628962462,-0.00588912163802791,,
104.731208473832,-0.224174262843325,-0.00604532429248827,,
105.218330373711,-0.226798891162618,-0.00623917009979325,,
105.705452273589,-0.229464272780563,-0.00637858672247971,,
106.192574173467,-0.231718451683681,-0.00652032860688978,,
106.679696073345,-0.234211114641347,-0.00668614209230434,,
107.166817973224,-0.236972392054459,-0.00684973817603174,,
107.653939873102,-0.239227874676847,-0.00700169415508967,,
108.14106177298,-0.241652213087603,-0.00716439851223383,,
108.628183672859,-0.243883987333643,-0.00733766562786586,,
109.115305572737,-0.245922811127775,-0.00746814240936233,,
109.602427472615,-0.248063807883928,-0.00764089907109922,,
110.089549372493,-0.250320159652496,-0.00778068567879586,,
110.576671272372,-0.252461880697132,-0.00792186568766562,,
111.06379317225,-0.254293654556885,-0.00807873055258446,,
111.550915072128,-0.256263912374614,-0.00819572106692146,,
112.038036972007,-0.257960485717514,-0.00836501617398877,,
112.525158871885,-0.259785934124514,-0.00849037462048319,,
113.012280771763,-0.261716211217973,-0.00863529712179245,,
113.499402671641,-0.263389559043514,-0.00879137937435148,,
113.98652457152,-0.265030893318101,-0.00891325494500661,,
114.473646471398,-0.266372082445275,-0.00907425486273183,,
114.960768371276,-0.268101828200703,-0.0091798561096943,,
115.447890271155,-0.269396324863665,-0.00931506744513166,,
115.935012171033,-0.270792753059153,-0.00942862650527454,,
116.422134070911,-0.27186368601032,-0.0095364865420775,,
116.90925597079,-0.27323510211019,-0.0096827748524575,,
117.396377870668,-0.274350506374221,-0.00980403963429932,,
117.883499770546,-0.27550294592269,-0.00991245025896426,,
118.370621670424,-0.276397587057061,-0.0100395670748958,,
118.857743570303,-0.277160504259299,-0.0101639108845326,,
119.344865470181,-0.278520428315237,-0.0102656003238812,,
119.831987370059,-0.279218642412982,-0.0103614101370373,,
120.319109269938,-0.280268377854542,-0.0104719691831332,,
120.806231169816,-0.280760073162794,-0.0105632338245063,,
121.293353069694,-0.281417195960595,-0.0106514181838979,,
121.780474969572,-0.281888273190027,-0.0107711679084783,,
122.267596869451,-0.282176443434518,-0.010868452644929,,
122.754718769329,-0.283011741199171,-0.0109435432975271,,
123.241840669207,-0.283247810958774,-0.0110689418779888,,
123.728962569086,-0.283279631366134,-0.0111374605934609,,
124.216084468964,-0.283874513640284,-0.0111830728471638,,
124.703206368842,-0.283886150541913,-0.0112846619515943,,
125.19032826872,-0.284173499926123,-0.0113854283096977,,
125.677450168599,-0.284227773276459,-0.0114348031228242,,
126.164572068477,-0.284125600314438,-0.0115417501118733,,
126.651693968355,-0.283969009144384,-0.0115915663986388,,
127.138815868234,-0.283829318038936,-0.0116669480224991,,
127.625937768112,-0.283749549733993,-0.0117086472144017,,
128.11305966799,-0.283285618817594,-0.011817811605138,,
128.600181567868,-0.282835980527263,-0.0118409388037271,,
129.087303467747,-0.282512513290694,-0.0119261331825635,,
129.574425367625,-0.282354521829572,-0.0119805849425383,,
130.061547267503,-0.281424342273628,-0.0120036920741433,,
130.548669167382,-0.280929315238354,-0.0120408360607707,,
131.03579106726,-0.280250801787351,-0.0121261006740498,,
131.522912967138,-0.279531148750506,-0.0121751042479796,,
132.010034867016,-0.278672625468494,-0.0121821377257283,,
132.497156766895,-0.27796494733457,-0.0122313319360026,,
132.984278666773,-0.276811300638629,-0.0122373520310797,,
133.471400566651,-0.275925737253247,-0.0122714257692178,,
133.95852246653,-0.274606180208769,-0.012305720244175,,
134.445644366408,-0.273569385388108,-0.012347941177651,,
134.932766266286,-0.272448814532897,-0.0123682589985372,,
135.419888166165,-0.271109508555778,-0.0124146137306327,,
135.907010066043,-0.269601443362089,-0.0124001956029227,,
136.394131965921,-0.268498545145867,-0.0124199816487436,,
136.881253865799,-0.267087824324311,-0.0124387342449097,,
137.368375765678,-0.265355760845737,-0.0124179047159418,,
137.855497665556,-0.263885551796767,-0.012436847948452,,
138.342619565434,-0.262211238253248,-0.0124301455759324,,
138.829741465313,-0.260222583508048,-0.0124405001394656,,
139.316863365191,-0.258538902500147,-0.012466336380839,,
139.803985265069,-0.256637452088317,-0.0124346807142239,,
140.291107164947,-0.254903215744293,-0.0124111421424717,,
140.778229064826,-0.253036869180946,-0.0124333763602906,,
141.265350964704,-0.250930445128387,-0.0124086438030147,,
141.752472864582,-0.248764194847122,-0.0123619980996565,,
142.239594764461,-0.246870325321415,-0.0123699345916668,,
142.726716664339,-0.244606923811612,-0.0123453425032758,,
143.213838564217,-0.242137969230294,-0.0123309845765163,,
143.700960464095,-0.239865683115097,-0.0122832151220775,,
144.188082363974,-0.237542165661193,-0.012246271805286,,
144.675204263852,-0.235246605742739,-0.0122239974534999,,
145.16232616373,-0.23270811946704,-0.0121843551274154,,
145.649448063609,-0.230265625558306,-0.0121428867058242,,
146.136569963487,-0.227635975505529,-0.0120774482723331,,
146.623691863365,-0.225028198964943,-0.012045601969374,,
147.110813763243,-0.222254850077113,-0.0120036218397011,,
147.597935663122,-0.219584398439786,-0.0119543172610173,,
148.085057563,-0.216639344895553,-0.0118833604070385,,
148.572179462878,-0.213912350470643,-0.0118373468136639,,
149.059301362757,-0.210826688388883,-0.0117676742466353,,
149.546423262635,-0.207926009585717,-0.0117074030614193,,
150.033545162513,-0.204942375608282,-0.0116424663025176,,
150.520667062392,-0.202061832024946,-0.0115707970706218,,
151.00778896227,-0.198919820299199,-0.0114981646235135,,
151.494910862148,-0.195765109382047,-0.0114044116761751,,
151.982032762026,-0.192764478768207,-0.0113493077392337,,
152.469154661905,-0.189276884864206,-0.01127653482324,,
152.956276561783,-0.185915462013966,-0.0111773336898566,,
153.443398461661,-0.182835304524678,-0.0110971359899343,,
153.93052036154,-0.179344282321856,-0.0110182928114044,,
154.417642261418,-0.176161082724368,-0.0109294462415543,,
154.904764161296,-0.172551035780817,-0.0108223788506034,,
155.391886061174,-0.169157695951421,-0.0107137964023911,,
155.879007961053,-0.165488740211241,-0.0106289832962427,,
156.366129860931,-0.162014907788419,-0.0105496986440738,,
156.853251760809,-0.158346096905936,-0.0104239589248913,,
157.340373660688,-0.154844403519463,-0.0103352929578935,,
157.827495560566,-0.151079841699509,-0.0102048575645504,,
158.314617460444,-0.147339036541803,-0.0101013620966786,,
158.801739360322,-0.143580607031006,-0.00997942381670036,,
159.288861260201,-0.139924640197625,-0.00986019708787955,,
159.775983160079,-0.135982627699302,-0.00976373509775641,,
160.263105059957,-0.132246409701989,-0.00962284355177578,,
160.750226959836,-0.128430664829227,-0.00951551654422467,,
161.237348859714,-0.124549637421185,-0.00935978671806481,,
161.724470759592,-0.120635003027526,-0.0092696257607896,,
162.21159265947,-0.116649871221508,-0.00914367533827942,,
162.698714559349,-0.112546390677345,-0.00896445710782601,,
163.185836459227,-0.108570481478012,-0.00886523590745902,,
163.672958359105,-0.104625716683454,-0.008695840465474,,
164.160080258984,-0.100483945421483,-0.00858514972979796,,
164.647202158862,-0.0963379250004104,-0.00847274577539814,,
165.13432405874,-0.0922382590422589,-0.00829425873565981,,
165.621445958618,-0.0881482502638824,-0.0081592593577362,,
166.108567858497,-0.0840416311362927,-0.00801798904744055,,
166.595689758375,-0.0798036743637609,-0.00789213770566155,,
167.082811658253,-0.0756107683348801,-0.00773760186502548,,
167.569933558132,-0.0714627681919538,-0.00756148398353718,,
168.05705545801,-0.0671757529461641,-0.00739458813519533,,
168.544177357888,-0.0629754591747554,-0.00727157627159469,,
