Time domain (s),Current (AC) (A),Potential (AC) (V),Frequency (Hz),Column 5
0,-0.116921068972544,-0.00158970065225095,79.433,0.3
0.000239736239975829,-0.146719842317569,-0.00220061040763797,,
0.000479472479951657,-0.17443691399026,-0.00277743031567557,,
0.000719208719927486,-0.199726556954666,-0.00331213634009231,,
0.000958944959903315,-0.222186646244951,-0.00381228639695497,,
0.00119868119987914,-0.241298205019995,-0.00423264836615367,,
0.00143841743985497,-0.257157805077552,-0.00462254022675834,,
0.0016781536798308,-0.269257865048638,-0.00490836421356633,,
0.00191788991980663,-0.277657342015782,-0.00516695631960795,,
0.00215762615978246,-0.281936003801066,-0.0053223174145316,,
0.00239736239975829,-0.281983130838369,-0.00543879054685847,,
0.00263709863973412,-0.278295295311729,-0.00542021804112514,,
0.00287683487970994,-0.270646760643902,-0.00535301212230088,,
0.00311657111968577,-0.258972002870114,-0.00521690809908826,,
0.0033563073596616,-0.243801925448504,-0.00500556642902739,,
0.00359604359963743,-0.224869797073681,-0.00471966552469372,,
0.00383577983961326,-0.202619316870417,-0.00436216517247301,,
0.00407551607958909,-0.17788163001606,-0.00394279851605539,,
0.00431525231956492,-0.15036122680949,-0.00346437150677525,,
0.00455498855954074,-0.120748547318732,-0.00296146626414595,,
0.00479472479951657,-0.0893610230429967,-0.00236673995614645,,
0.0050344610394924,-0.0568131886172753,-0.001770426070419,,
0.00527419727946823,-0.0233636633159472,-0.00113660104580271,,
0.00551393351944406,0.0103528105773159,-0.000515059750026303,,
0.00575366975941989,0.0439469038598782,0.000150959874108292,,
0.00599340599939572,0.0770584520120251,0.000779286833993531,,
0.00623314223937154,0.108976976317698,0.00144098830824069,,
0.00647287847934737,0.139382606839794,0.00207001060255774,,
0.0067126147193232,0.167661509088855,0.00263998792751741,,
0.00695235095929903,0.193434011042019,0.00320170738692749,,
0.00719208719927486,0.216624979840637,0.00370697245924267,,
0.00743182343925069,0.236658412997019,0.00412244093546255,,
0.00767155967922652,0.253130664539512,0.00455188994113698,,
0.00791129591920234,0.266387075216876,0.00485627105017272,,
0.00815103215917817,0.275490705447325,0.00510790827354901,,
0.008390768399154,0.280596070107262,0.00530510019559927,,
0.00863050463912983,0.281943439829493,0.00543431240851699,,
0.00887024087910566,0.279372698573345,0.00547033134740893,,
0.00910997711908149,0.272769119043089,0.00543522003531915,,
0.00934971335905732,0.262081131898727,0.00529501784634245,,
0.00958944959903315,0.247714145547219,0.00507387996022013,,
0.00982918583900897,0.230094621047437,0.00478602381238602,,
0.0100689220789848,0.208875286214666,0.00445428160114059,,
0.0103086583189606,0.184695832637212,0.00406003313188563,,
0.0105483945589365,0.157932504039115,0.00360676123018022,,
0.0107881307989123,0.128707560316331,0.00309771489230615,,
0.0110278670388881,0.0979563717589298,0.00250908045233489,,
0.0112676032788639,0.065545355427673,0.00194562265684572,,
0.0115073395188398,0.0322479789937026,0.00130643186564328,,
0.0117470757588156,-0.00135939291105061,0.00067130539649396,,
0.0119868119987914,-0.035034316788331,1.93539877932913E-05,,
0.0122265482387673,-0.0684957204207826,-0.000622755054330959,,
0.0124662844787431,-0.100803815358586,-0.00127592637498752,,
0.0127060207187189,-0.131617172010789,-0.0019096160247587,,
0.0129457569586947,-0.160522463083016,-0.00248382535197722,,
0.0131854931986706,-0.187105154133418,-0.00305509642971735,,
0.0134252294386464,-0.210940039536494,-0.00356043688120788,,
0.0136649656786222,-0.232120793936064,-0.00405733794178875,,
0.0139047019185981,-0.249409028883659,-0.00443961189065689,,
0.0141444381585739,-0.263603441432585,-0.0047713048746858,,
0.0143841743985497,-0.27361866114791,-0.00505018936233359,,
0.0146239106385255,-0.280202008886537,-0.00524688747386914,,
0.0148636468785014,-0.282755898363977,-0.00539142165788808,,
0.0151033831184772,-0.280976852705797,-0.00542372701864347,,
0.015343119358453,-0.275257677699351,-0.00538723580614464,,
0.0155828555984289,-0.265192626936385,-0.00529463941211716,,
0.0158225918384047,-0.252036457785087,-0.00513034357741882,,
0.0160623280783805,-0.23482731513985,-0.00488563508474904,,
0.0163020643183563,-0.21450088314909,-0.0045530313972173,,
0.0165418005583322,-0.190936205636123,-0.0041565938551833,,
0.016781536798308,-0.164818218076502,-0.00373232755238462,,
0.0170212730382838,-0.136213023865788,-0.00323105911469979,,
0.0172610092782597,-0.10572414845403,-0.00267836054269299,,
0.0175007455182355,-0.0737540548083581,-0.00207398570028161,,
0.0177404817582113,-0.0405947760451724,-0.0014557549348071,,
0.0179802179981871,-0.00695027228418376,-0.000841163906644571,,
0.018219954238163,0.0267375922139954,-0.000168007874484122,,
0.0184596904781388,0.0601829166421213,0.000481842147416867,,
0.0186994267181146,0.0928674484475601,0.00110647398937225,,
0.0189391629580905,0.12406320527591,0.00172759839216008,,
0.0191788991980663,0.153359443128385,0.00235114723535501,,
0.0194186354380421,0.180767871335462,0.00291926315619495,,
0.0196583716780179,0.205107634097184,0.00344385298764394,,
0.0198981079179938,0.226877041889949,0.00391468977549714,,
0.0201378441579696,0.245064215416915,0.00434078825375606,,
0.0203775803979454,0.260060270458977,0.00471245373749252,,
0.0206173166379213,0.271132806501986,0.0050175886382795,,
0.0208570528778971,0.278476126003019,0.00520965785312422,,
0.0210967891178729,0.281930885495785,0.0053670311105174,,
0.0213365253578487,0.281024848889279,0.00545112042621287,,
0.0215762615978246,0.276738413074276,0.0054354415577933,,
0.0218159978378004,0.268144102505169,0.00533955924707152,,
0.0220557340777762,0.255628976947346,0.00518530576451681,,
0.0222954703177521,0.23935701531339,0.00495003659058968,,
0.0225352065577279,0.21991923700554,0.00465516556442003,,
0.0227749427977037,0.197257698945146,0.00425003788034273,,
0.0230146790376796,0.171851010961865,0.00382888673733106,,
0.0232544152776554,0.143944272278389,0.00334105732972079,,
0.0234941515176312,0.113923021654294,0.00281076637127375,,
0.023733887757607,0.0822710113674663,0.00220916363648538,,
0.0239736239975829,0.0494686619687706,0.00160819777880894,,
0.0242133602375587,0.0159219371530055,0.000988710180966024,,
0.0244530964775345,-0.0177761639557354,0.000334174343404658,,
0.0246928327175104,-0.0514322563324542,-0.000306864006762719,,
0.0249325689574862,-0.0844430076706979,-0.000947557766415752,,
0.025172305197462,-0.115959407010533,-0.00157394794300636,,
0.0254120414374378,-0.146023173368588,-0.00215116320712561,,
0.0256517776774137,-0.173784861211841,-0.0027476093909975,,
0.0258915139173895,-0.199155431342763,-0.00331429003080963,,
0.0261312501573653,-0.221602193724958,-0.00379760284131647,,
0.0263709863973412,-0.240813800882473,-0.00423466668202588,,
0.026610722637317,-0.256896288649241,-0.0046037231232936,,
0.0268504588772928,-0.269171336717853,-0.00492195246364036,,
0.0270901951172686,-0.277357969442752,-0.00515548637818952,,
0.0273299313572445,-0.281813164474326,-0.00532625559184297,,
0.0275696675972203,-0.282371156321735,-0.00541849508855163,,
0.0278094038371961,-0.278480664877513,-0.00541567683041322,,
0.028049140077172,-0.270990942531089,-0.00536005161424447,,
0.0282888763171478,-0.259218405812077,-0.00521032549724687,,
0.0285286125571236,-0.243817376936144,-0.00499233507627217,,
0.0287683487970994,-0.225352800920136,-0.00470863862822268,,
0.0290080850370753,-0.203429892254845,-0.00435886694897514,,
0.0292478212770511,-0.178440587581446,-0.00395510532015297,,
0.0294875575170269,-0.151145389807233,-0.00344864341113915,,
0.0297272937570028,-0.121542560639846,-0.00295400834086301,,
0.0299670299969786,-0.0902421441256824,-0.0023811019965283,,
0.0302067662369544,-0.0576134308193441,-0.00177981616194511,,
0.0304465024769302,-0.0242104048386334,-0.00114468661609468,,
0.0306862387169061,0.00948504054566929,-0.000498257885732656,,
0.0309259749568819,0.0430860145688214,0.000136807049396115,,
0.0311657111968577,0.0762557472291137,0.000799014640961548,,
0.0314054474368336,0.108190133452567,0.00141281803366189,,
0.0316451836768094,0.138537796753063,0.00205603930320608,,
0.0318849199167852,0.167020682781924,0.00263104088093868,,
0.032124656156761,0.19281076080228,0.00316583305298401,,
0.0323643923967369,0.2161154670357,0.00365385936946039,,
0.0326041286367127,0.236125916104216,0.00413647069213363,,
0.0328438648766885,0.252876101280639,0.00452920234778365,,
0.0330836011166644,0.266113777029239,0.0048538343029616,,
0.0333233373566402,0.275298334426204,0.00509718904718026,,
0.033563073596616,0.280830739575799,0.00529557472922804,,
0.0338028098365918,0.282038080191289,0.00541467997928091,,
0.0340425460765677,0.279299110863458,0.00543777062046846,,
0.0342822823165435,0.272813542070055,0.00538766654428757,,
0.0345220185565193,0.262152788172659,0.005278871319367,,
0.0347617547964952,0.248075517214406,0.00508459918658888,,
0.035001491036471,0.230299932689457,0.00478335323589674,,
0.0352412272764468,0.209244963056459,0.00448241187860576,,
0.0354809635164226,0.18534015967181,0.00406310983290981,,
0.0357206997563985,0.158630138706073,0.00361129013408767,,
0.0359604359963743,0.129553529264635,0.00309913017477692,,
0.0362001722363501,0.0986953632982746,0.0025174121587086,,
0.036439908476326,0.0663779974678875,0.00194374279252019,,
0.0366796447163018,0.0331430064152645,0.00132878409858517,,
0.0369193809562776,-0.000521149706566593,0.000699301837464805,,
0.0371591171962534,-0.0341663777560384,2.28845022185453E-05,,
0.0373988534362293,-0.0676756327142759,-0.000622225861754533,,
0.0376385896762051,-0.0999511346703377,-0.00123030505219912,,
0.0378783259161809,-0.130898291548326,-0.00188135960255131,,
0.0381180621561568,-0.159773259076059,-0.00249084023031276,,
0.0383577983961326,-0.186530407079099,-0.00303150428626298,,
0.0385975346361084,-0.210360077605097,-0.00352548709592204,,
0.0388372708760842,-0.231444211921016,-0.00401091513838336,,
0.0390770071160601,-0.249128777526584,-0.00442170549069543,,
0.0393167433560359,-0.26337041368461,-0.00477253555509582,,
0.0395564795960117,-0.273671196205887,-0.0050277186764025,,
0.0397962158359876,-0.280045707431876,-0.0052341145495669,,
0.0400359520759634,-0.282612972103305,-0.0053850836537781,,
0.0402756883159392,-0.280939962279056,-0.00543197103903825,,
0.040515424555915,-0.275037638858174,-0.00541170173268979,,
0.0407551607958909,-0.265598952775425,-0.00529259494428613,,
0.0409948970358667,-0.252405313766599,-0.00512058428176987,,
0.0412346332758425,-0.235350541140069,-0.00489274841751763,,
0.0414743695158184,-0.215079396503522,-0.00456108004709677,,
0.0417141057557942,-0.191639827754542,-0.00416328721826176,,
0.04195384199577,-0.165410541198012,-0.00369896380647683,,
0.0421935782357458,-0.136978113933476,-0.00319977368033397,,
0.0424333144757217,-0.106487645087055,-0.00266900737157894,,
0.0426730507156975,-0.074562022754247,-0.00207525330110325,,
0.0429127869556733,-0.0414476981629147,-0.00146935241498403,,
0.0431525231956492,-0.00775592250692661,-0.000865419079169705,,
0.043392259435625,0.0258381466326863,-0.000216053637679625,,
0.0436319956756008,0.0593894827517941,0.000444564837806638,,
0.0438717319155766,0.0920039034320651,0.00111057215513677,,
0.0441114681555525,0.123276748697971,0.0017172483699146,,
0.0443512043955283,0.15270468633963,0.00233479149270988,,
0.0445909406355041,0.179955123085585,0.00289733243129353,,
0.04483067687548,0.204462920775394,0.00342705727675208,,
0.0450704131154558,0.226149663109284,0.00393276847071578,,
0.0453101493554316,0.244690289416021,0.00434190509622789,,
0.0455498855954074,0.259667609529319,0.00472384983808638,,
0.0457896218353833,0.271203883345131,0.00501292435952649,,
0.0460293580753591,0.278309636223695,0.0052241921887628,,
0.0462690943153349,0.28189071162792,0.0053808516515188,,
0.0465088305553108,0.281367678771298,0.00541682443989489,,
0.0467485667952866,0.276820692245961,0.00545496322579231,,
0.0469883030352624,0.268374329671009,0.00534982312168841,,
0.0472280392752382,0.255992859481274,0.00517941080535422,,
0.0474677755152141,0.239949966151585,0.00494091724875378,,
0.0477075117551899,0.220532081634072,0.00464513859578153,,
0.0479472479951657,0.198073151205361,0.00427586986214301,,
0.0481869842351416,0.172503063740284,0.00383527396865757,,
0.0484267204751174,0.144693476285346,0.00336910453625849,,
0.0486664567150932,0.11467744053833,0.00281193859436391,,
0.048906192955069,0.0830486074829623,0.00225463727762465,,
0.0491459291950449,0.0502244570009242,0.00163843559647558,,
0.0493856654350207,0.0167151778997372,0.000997066500947774,,
0.0496254016749965,-0.0169138260877123,0.000351180808316531,,
0.0498651379149724,-0.0506160314978576,-0.000293092692977837,,
0.0501048741549482,-0.0835197329982936,-0.00093104203531702,,
0.050344610394924,-0.115325751159586,-0.00158797769967745,,
0.0505843466348998,-0.145267788766575,-0.00219467852806288,,
0.0508240828748757,-0.173036574636962,-0.00277259374166539,,
0.0510638191148515,-0.198562480504568,-0.00330269702135011,,
0.0513035553548273,-0.221040339005639,-0.00380732521655336,,
0.0515432915948032,-0.240514042022252,-0.00422346902864756,,
0.051783027834779,-0.256559253075087,-0.00460271396535772,,
0.0520227640747548,-0.268737922489544,-0.00491826042241117,,
0.0522625003147306,-0.277197032541799,-0.00515173280293979,,
0.0525022365547065,-0.281922290605785,-0.00532746165864451,,
0.0527419727946823,-0.282297568611848,-0.0054260022390511,,
0.0529817090346581,-0.27875570135751,-0.00544496702416453,,
0.053221445274634,-0.271262502426366,-0.00538804805521487,,
0.0534611815146098,-0.259595470396398,-0.00524268008521833,,
0.0537009177545856,-0.244550356881079,-0.00500166517212852,,
0.0539406539945614,-0.225886746389905,-0.00472942482034311,,
0.0541803902345373,-0.204072287853489,-0.00438796023386079,,
0.0544201264745131,-0.179207947086381,-0.0039569390339631,,
0.0546598627144889,-0.151798939448517,-0.00346435919997123,,
0.0548995989544648,-0.122329427647926,-0.00296279539898814,,
0.0551393351944406,-0.0911060754283683,-0.0023873538530097,,
0.0553790714344164,-0.058499139062423,-0.00179794408438028,,
0.0556188076743922,-0.0250507726226679,-0.00117106009727497,,
0.0558585439143681,0.00863424300747755,-0.000551549424174791,,
0.0560982801543439,0.0422236525578489,0.00010289103565464,,
0.0563380163943197,0.075464437918337,0.000777143911730338,,
0.0565777526342956,0.107407901890779,0.00140662771120104,,
0.0568174888742714,0.137834150491695,0.00203461623397416,,
0.0570572251142472,0.166373265449798,0.00258907467896696,,
0.057296961354223,0.192230364297793,0.00315284937466176,,
0.0575366975941989,0.21572802098312,0.00366333560861509,,
0.0577764338341747,0.235607711837481,0.004121837902062,,
0.0580161700741505,0.252581750441092,0.00451262815936548,,
0.0582559063141264,0.265768049993288,0.00486520578994742,,
0.0584956425541022,0.275138604672723,0.00511639996837632,,
0.058735378794078,0.280635278257149,0.00529723614778099,,
0.0589751150340538,0.282267921069938,0.00541212324072982,,
0.0592148512740297,0.279465600642782,0.00545230187940637,,
0.0594545875140055,0.273145169623534,0.00540760664362638,,
0.0596943237539813,0.262490016890407,0.005286233864918,,
0.0599340599939572,0.24881409832361,0.00508736821751077,,
0.060173796233933,0.230997181069224,0.00480152115544508,,
0.0604135324739088,0.209911694748136,0.00447240644687463,,
0.0606532687138846,0.185987577003937,0.00408438829719415,,
0.0608930049538605,0.159518406101792,0.00361747737984786,,
0.0611327411938363,0.130312776738558,0.00310188689889479,,
0.0613724774338121,0.0995204727382644,0.00252334403828369,,
0.061612213673788,0.0673045072955165,0.0019482470828196,,
0.0618519499137638,0.033949574070086,0.00132099696829258,,
0.0620916861537396,0.000335466282439674,0.000699561818701344,,
0.0623314223937154,-0.033275792637173,6.93426876856584E-05,,
0.0625711586336913,-0.066724979937209,-0.000610622083841328,,
0.0628108948736671,-0.099130274389449,-0.0012254438645809,,
0.0630506311136429,-0.130009637865416,-0.00187830751513518,,
0.0632903673536188,-0.159078907850225,-0.00246408523820518,,
0.0635301035935946,-0.185818045212984,-0.00300851517620959,,
0.0637698398335704,-0.209720530874487,-0.00353392956353282,,
0.0640095760735463,-0.230996505066639,-0.00399724381738187,,
0.0642493123135221,-0.248688410128836,-0.00442678666243745,,
0.0644890485534979,-0.263144290820175,-0.00477237556664223,,
0.0647287847934737,-0.2732711958196,-0.0050773750925841,,
0.0649685210334496,-0.280068112088954,-0.0052478612497433,,
0.0652082572734254,-0.282416931353869,-0.00537287376576323,,
0.0654479935134012,-0.280895394394393,-0.00541701827205987,,
0.0656877297533771,-0.27539944509845,-0.00541432462031333,,
0.0659274659933529,-0.265934491486713,-0.00532632789431675,,
0.0661672022333287,-0.252802223855359,-0.00513713693328066,,
0.0664069384733045,-0.235792839973771,-0.00485775863511861,,
0.0666466747132804,-0.215626958596773,-0.00458507985343681,,
0.0668864109532562,-0.192521335124418,-0.00420492113652271,,
0.067126147193232,-0.166286254260023,-0.0037587148787197,,
0.0673658834332078,-0.137675555456838,-0.00324460736766063,,
0.0676056196731837,-0.107357563841201,-0.00268229872000392,,
0.0678453559131595,-0.0752967409915413,-0.00213404290427599,,
0.0680850921531353,-0.0423276603840274,-0.00149231691142937,,
0.0683248283931112,-0.00860053945006224,-0.000867242024526593,,
0.068564564633087,0.0249701593144947,-0.000234956888772953,,
0.0688043008730628,0.058548535536973,0.000409822729840137,,
0.0690440371130387,0.0911702956738732,0.00107740531809464,,
0.0692837733530145,0.122417452841577,0.00171626382558676,,
0.0695235095929903,0.152007462102812,0.00230783036163373,,
0.0697632458329661,0.179321998379525,0.00288138281318373,,
0.070002982072942,0.204170308228207,0.00341153839678565,,
0.0702427183129178,0.225832328181872,0.00390305984562511,,
0.0704824545528936,0.244298401060745,0.00431830372267017,,
0.0707221907928695,0.259358000345727,0.00467125055737494,,
0.0709619270328453,0.270651299518396,0.00499494411874046,,
0.0712016632728211,0.278435758991559,0.00521766958259162,,
0.0714413995127969,0.281819827928371,0.00537937483502704,,
0.0716811357527728,0.281396070879837,0.005399607220963,,
0.0719208719927486,0.276831122000118,0.00542332243245847,,
0.0721606082327244,0.268616338596174,0.00533944540913378,,
0.0724003444727002,0.256277553141046,0.00519427742470358,,
0.0726400807126761,0.240376234066861,0.00492565681167312,,
0.0728798169526519,0.221215037387771,0.00466555558377912,,
0.0731195531926277,0.198475276171199,0.00429558536230656,,
0.0733592894326036,0.173400022597801,0.00385779849685663,,
0.0735990256725794,0.145367161146462,0.00338451265498785,,
0.0738387619125552,0.115550039159864,0.00282118100424089,,
0.0740784981525311,0.0839164016575583,0.0022905516086813,,
0.0743182343925069,0.0511005322071774,0.00163591270163588,,
0.0745579706324827,0.0176380179990517,0.00103274392602604,,
0.0747977068724585,-0.0160647668418801,0.000417674470853946,,
0.0750374431124344,-0.0497727665598905,-0.000273980226214832,,
0.0752771793524102,-0.0826931266954386,-0.000891201833753463,,
0.075516915592386,-0.114466213873698,-0.0015377520938058,,
0.0757566518323619,-0.144499077256472,-0.00217127098667014,,
0.0759963880723377,-0.172382059277701,-0.00273535335246722,,
0.0762361243123135,-0.198034763915755,-0.00329254390796985,,
0.0764758605522893,-0.220629136290812,-0.00377610439290876,,
0.0767155967922652,-0.240167156124728,-0.00420733327012579,,
0.076955333032241,-0.255946601590151,-0.00461116873977252,,
0.0771950692722168,-0.268610447716512,-0.00491571291396298,,
0.0774348055121927,-0.277102392180002,-0.00516085214477569,,
0.0776745417521685,-0.281596650503767,-0.00531928840237317,,
0.0779142779921443,-0.282136679996794,-0.00541647677267942,,
0.0781540142321201,-0.278679023350095,-0.00544443783158854,,
0.078393750472096,-0.271188335285693,-0.00536476512021355,,
0.0786334867120718,-0.260163119423582,-0.00523255004709577,,
0.0788732229520476,-0.244828869945794,-0.00500880311850516,,
0.0791129591920234,-0.226368784518382,-0.00473755961785116,,
