Time domain (s),Current (AC) (A),Potential (AC) (V),Frequency (Hz),Column 5
0,-0.263717729481171,-0.00432308108301793,1000,0.4
3.125E-05,-0.208670699147773,-0.00354295536722704,,
6.25E-05,-0.145568086166578,-0.00261663251778943,,
9.375E-05,-0.0771201611266757,-0.00156486752044627,,
0.000125,-0.00631962160330703,-0.000496280455791531,,
0.00015625,0.0648707284073938,0.000609025010446462,,
0.0001875,0.134977478643481,0.00171636927159202,,
0.00021875,0.199376320554167,0.00274448987411757,,
0.00025,0.255949485090767,0.00364418247206943,,
0.00028125,0.302547915517814,0.00443995279083342,,
0.0003125,0.337450211265555,0.00504377365002107,,
0.00034375,0.359199949292569,0.00545496723739625,,
0.000375,0.36723224673672,0.00565559430105322,,
0.00040625,0.361119100754325,0.0056422604216122,,
0.0004375,0.341243648281795,0.0053830387673881,,
0.00046875,0.308622349126903,0.00495199037178695,,
0.0005,0.263550688479336,0.00435119421621399,,
0.00053125,0.209054962787587,0.00353230326663301,,
0.0005625,0.146065077926274,0.00259755464849087,,
0.00059375,0.077802105583318,0.00158268219421442,,
0.000625,0.00714948199377736,0.000506126147362007,,
0.00065625,-0.0645632539379151,-0.000596664983763429,,
0.0006875,-0.134789983641422,-0.0016978017707947,,
0.00071875,-0.199567975691865,-0.0027428301718242,,
0.00075,-0.255924870954904,-0.00365049175197329,,
0.00078125,-0.302538381873642,-0.00443440705435671,,
0.0008125,-0.337309200001294,-0.0050220823189191,,
0.00084375,-0.359505950380676,-0.00542832359041201,,
0.000875,-0.367713666877601,-0.005615265812561,,
0.00090625,-0.361609881200393,-0.00561061757449988,,
0.0009375,-0.341645910286213,-0.00538991601643835,,
0.00096875,-0.308799906027158,-0.00493391314624381,,
0.001,-0.26374777490523,-0.00431586358829961,,
0.00103125,-0.208616270706497,-0.00352547156227789,,
0.0010625,-0.145579815437894,-0.00257368654884438,,
0.00109375,-0.077009339735628,-0.00157531868855942,,
0.001125,-0.00628605161988748,-0.000500875111857813,,
0.00115625,0.0648988959924489,0.000621458712372291,,
0.0011875,0.134816417836628,0.00172538176314108,,
0.00121875,0.199330761290955,0.00273270183523078,,
0.00125,0.255957227565429,0.00365365576877474,,
0.00128125,0.302603095094692,0.00442039000448036,,
0.0013125,0.337313331247102,0.00502789998401987,,
0.00134375,0.358991711391977,0.00545484935700769,,
0.001375,0.367166060134298,0.00565708655961261,,
0.00140625,0.361117222915321,0.00564481628277091,,
0.0014375,0.340918233227373,0.00541807067568012,,
0.00146875,0.308492749345819,0.00498913341067997,,
0.0015,0.263908055686651,0.00433044458867293,,
0.00153125,0.209089919482886,0.00354912265484497,,
0.0015625,0.146194446588712,0.00261083762503711,,
0.00159375,0.0777720601592592,0.00158676514222922,,
0.001625,0.00719478124851217,0.000510862795714662,,
0.00165625,-0.0644012397666441,-0.000598853808256639,,
0.0016875,-0.134870528489764,-0.00169771470005298,,
0.00171875,-0.199477839419689,-0.00272541200481857,,
0.00175,-0.256122130719782,-0.00365431214821266,,
0.00178125,-0.302607890806609,-0.00441808865779736,,
0.0018125,-0.337906757262095,-0.00502902788501292,,
0.00184375,-0.359513923973983,-0.00543506152627593,,
0.001875,-0.367688706063767,-0.0056431029984827,,
0.00190625,-0.362089799070071,-0.00561689872385696,,
0.0019375,-0.341783772558913,-0.00537432633501034,,
0.00196875,-0.308717223331335,-0.0049521256663243,,
0.002,-0.263469276936069,-0.00431252141136529,,
0.00203125,-0.208643022689842,-0.00355398254178585,,
0.0020625,-0.145639444048718,-0.00259010273254434,,
0.00209375,-0.0771053695332929,-0.00157385857919756,,
0.002125,-0.00629003841654144,-0.000492122492984137,,
0.00215625,0.0649357594165826,0.000616014781686491,,
0.0021875,0.134994610313161,0.00170676737809838,,
0.00221875,0.199321372095936,0.00271717377309688,,
0.00225,0.255955811963718,0.00362920094628372,,
0.00228125,0.302458241482931,0.00443383640611072,,
0.0023125,0.337093797422657,0.00504315209887984,,
0.00234375,0.359079247579379,0.00544483220305336,,
0.002375,0.367064165700976,0.00564143257979044,,
0.00240625,0.361437004452732,0.00563123056795378,,
0.0024375,0.341171134806422,0.00538869166785405,,
0.00246875,0.308697000449757,0.00496836235034115,,
0.0025,0.263647209404125,0.00434864907145416,,
0.00253125,0.209099077559258,0.00354180603343579,,
0.0025625,0.146219089614406,0.00261005264881087,,
0.00259375,0.0777833271932813,0.00155352823076704,,
0.002625,0.00710395162039594,0.000513713357845891,,
0.00265625,-0.0645012563609629,-0.000626255640469253,,
0.0026875,-0.134804312997512,-0.00171552535517128,,
0.00271875,-0.199429708961533,-0.00270201676627746,,
0.00275,-0.255899274564792,-0.00366106347957507,,
0.00278125,-0.302741477384347,-0.0044398831342396,,
0.0028125,-0.337697768225901,-0.00502288738839285,,
0.00284375,-0.3596992233489,-0.0054394592685103,,
0.002875,-0.367933922947817,-0.00564887243978784,,
0.00290625,-0.361707528828584,-0.00562014311365067,,
0.0029375,-0.341627825252116,-0.0053651477392771,,
0.00296875,-0.308657594720511,-0.00494795564756778,,
0.003,-0.263559991004862,-0.0043227649492481,,
0.00303125,-0.208597665655446,-0.00352545012947969,,
0.0030625,-0.145534516183159,-0.00261122207585052,,
0.00309375,-0.0769853611760426,-0.00157361879977014,,
0.003125,-0.00630222992514991,-0.000497847729143519,,
0.00315625,0.0648918757635582,0.000602406294521352,,
0.0031875,0.134924639142901,0.001718316977108,,
0.00321875,0.199504273614894,0.00271362664503183,,
0.00325,0.256230063127747,0.003627831926313,,
0.00328125,0.302407279821355,0.00441839675426881,,
0.0033125,0.337053409439163,0.00502082448158792,,
0.00334375,0.359092883579529,0.00542266801084601,,
0.003375,0.367209250431383,0.00563918749420234,,
0.00340625,0.361092117652334,0.00559971363852974,,
0.0034375,0.341505216810091,0.00540142810805166,,
0.00346875,0.308541573159914,0.00496473752838345,,
0.0035,0.26386674322857,0.00432666973712958,,
0.00353125,0.209068107660612,0.00352768717776852,,
0.0035625,0.146118841901441,0.00258180154197829,,
0.00359375,0.0778086635749155,0.00158707859689944,,
0.003625,0.00715416214637114,0.000494347485324287,,
0.00365625,-0.0645095188525791,-0.000607071946730819,,
0.0036875,-0.134808762031459,-0.00171443630112433,,
0.00371875,-0.199599407827804,-0.00272178584331106,,
0.00375,-0.256101214482264,-0.00365409514113324,,
0.00378125,-0.302753668892956,-0.00443623553993389,,
0.0038125,-0.337778024175935,-0.00502862468050136,,
0.00384375,-0.359666115602774,-0.00541803450783362,,
0.003875,-0.367868805269135,-0.00563040808433124,,
0.00390625,-0.361438044486642,-0.00563858469675926,,
0.0039375,-0.341543351386781,-0.00539461917604411,,
0.00396875,-0.308670306246074,-0.00498771348781402,,
0.004,-0.263557390920088,-0.00433488251740366,,
0.00403125,-0.208604194757212,-0.00352338186447509,,
0.0040625,-0.145641581896199,-0.00259916076878941,,
0.00409375,-0.0770004416677337,-0.00157996558707074,,
0.004125,-0.0062923496030075,-0.000496042015913911,,
0.00415625,0.064890922399141,0.00060680403675617,,
0.0041875,0.134929088176848,0.00169159027803145,,
0.00421875,0.199434995800574,0.00272295794945077,,
0.00425,0.256063831041176,0.00366171985901342,,
0.00428125,0.302269244209669,0.00441341362873926,,
0.0043125,0.337219179288441,0.00503999611937767,,
0.00434375,0.359187988902607,0.00544112968720301,,
0.004375,0.367028717878553,0.00565142562184695,,
0.00440625,0.360888068777211,0.00564433672391651,,
0.0044375,0.341516946081406,0.00537738050872205,,
0.00446875,0.30837840339541,0.00494632675492168,,
0.0045,0.263965575339825,0.00431911199674317,,
0.00453125,0.209017145999036,0.00353637549824848,,
0.0045625,0.146114595096309,0.00258464406681025,,
0.00459375,0.0778286264480161,0.00159178577515506,,
0.004625,0.0071407861546988,0.000526069365879067,,
0.00465625,-0.064492127174422,-0.000632188506858977,,
0.0046875,-0.134770974132739,-0.001723451471773,,
0.00471875,-0.199525045403258,-0.00272819960810544,,
0.00475,-0.256138077906398,-0.00366644043276754,,
0.00478125,-0.302457605906653,-0.00442241004568933,,
0.0048125,-0.337734400531388,-0.00501737915931288,,
0.00484375,-0.35977058123104,-0.00544485899405078,,
0.004875,-0.367890877099886,-0.00563047372227521,,
0.00490625,-0.361577524589868,-0.00562100310466906,,
0.0049375,-0.34182317828816,-0.00539644766162173,,
0.00496875,-0.308531808397095,-0.00493779784087689,,
0.005,-0.263737894583087,-0.00432982035843166,,
0.00503125,-0.208652845232323,-0.00353052300485057,,
0.0050625,-0.145633146065598,-0.00258938473381232,,
0.00509375,-0.0770112464644625,-0.00159036317318906,,
0.005125,-0.00628298929781995,-0.000494158608791651,,
0.00515625,0.0648359739409104,0.000606782603957967,,
0.0051875,0.134863594930366,0.00168479876017269,,
0.00521875,0.199501211292827,0.00272931277405064,,
0.00525,0.256008651464298,0.00365500603504731,,
0.00528125,0.302542282000803,0.00443563140294145,,
0.0053125,0.337221057127445,0.00504577493753189,,
0.00534375,0.359028343697464,0.00544686831886132,,
0.005375,0.367010863963102,0.00566626247624624,,
0.00540625,0.361058778787561,0.0056196595361464,,
0.0054375,0.341093652280147,0.00538101604707908,,
0.00546875,0.308279542394324,0.0049723488507647,,
0.0055,0.26390311552558,0.00433133672888886,,
0.00553125,0.208982853769846,0.00352591093463639,,
0.0055625,0.146103559180934,0.00257516005370562,,
0.00559375,0.0778002277443144,0.00155743703729794,,
0.005625,0.00713821495975531,0.000508651198873444,,
0.00565625,-0.0644709798182575,-0.000623043399872625,,
0.0056875,-0.134833896184277,-0.00169763834571013,,
0.00571875,-0.19962130631957,-0.00274736990634539,,
0.00575,-0.25614934494042,-0.00365655589425096,,
0.00578125,-0.302687222282056,-0.00441030453348246,,
0.0058125,-0.337807145125407,-0.00500502315127971,,
0.00584375,-0.359863779825284,-0.00544420663326228,,
0.005875,-0.367786180352974,-0.00562429036005874,,
0.00590625,-0.362017978950638,-0.00561035636227469,,
0.0059375,-0.341597317590764,-0.00540630005094123,,
0.00596875,-0.308482233447398,-0.00496051794628194,,
0.006,-0.263673816938316,-0.0043168762880037,,
0.00603125,-0.208522089858005,-0.00353509488856929,,
0.0060625,-0.145546534352782,-0.00258398500827228,,
0.00609375,-0.0770109575661542,-0.00156713135973252,,
0.006125,-0.00627455346721882,-0.000504325792332061,,
0.00615625,0.0648923380008515,0.00061319502920254,,
0.0061875,0.134966904965399,0.00169055882462876,,
0.00621875,0.199584096217466,0.00271947244067983,,
0.00625,0.256037974642587,0.00364898341881581,,
0.00628125,0.302759215740474,0.00444213089892775,,
0.0063125,0.336951283887194,0.00505119743541993,,
0.00634375,0.359124344605298,0.00545175499679962,,
0.006375,0.367047005141465,0.00565135060705391,,
0.00640625,0.360903582616365,0.00561779756182235,,
0.0064375,0.341476789216559,0.00537768592609345,,
0.00646875,0.308538741956493,0.00496655395801193,,
0.0065,0.263532863453717,0.0043256784702228,,
0.00653125,0.208937785633757,0.00351509005075812,,
0.0065625,0.146246303835044,0.00260076688908795,,
0.00659375,0.0777445570403131,0.00156890090511563,,
0.006625,0.00712717904437986,0.000513115918602036,,
0.00665625,-0.0645273149883678,-0.000617937035754856,,
0.0066875,-0.134775885403979,-0.00170076217601522,,
0.00671875,-0.199449700724465,-0.00271784622713289,,
0.00675,-0.256166967737224,-0.00362550646773263,,
0.00678125,-0.30279544358833,-0.00443036831148813,,
0.0068125,-0.337800789362626,-0.00502245203468421,,
0.00684375,-0.359938951165092,-0.00543549687998457,,
0.006875,-0.367798429641244,-0.00563530681821867,,
0.00690625,-0.361945176576957,-0.00563739785557127,,
0.0069375,-0.341563978725991,-0.00538156526252687,,
0.00696875,-0.30831507688624,-0.00496511260234778,,
0.007,-0.263651282870272,-0.00431597209183909,,
0.00703125,-0.208523245451238,-0.00354157295175739,,
0.0070625,-0.145561268166503,-0.00262177237065409,,
0.00709375,-0.0770229757357778,-0.00158120868935363,,
0.007125,-0.00624803260252076,-0.000501452457853269,,
0.00715625,0.0649376372555863,0.000574928107965889,,
0.0071875,0.134954251219498,0.00169819693800788,,
0.00721875,0.199377967274524,0.00273346269955876,,
0.00725,0.255745205096998,0.00363361342356727,,
0.00728125,0.302491811466351,0.0044125643541193,,
0.0073125,0.337063520879952,0.00507322231444052,,
0.00734375,0.359035623934832,0.00544489650144753,,
0.007375,0.366874908419236,0.00566786189879531,,
0.00740625,0.3608782173449,0.00565651859046623,,
0.0074375,0.341381943901958,0.00540584594353444,,
0.00746875,0.308627953754083,0.00496743538182898,,
0.0075,0.263770251193612,0.00432979356743424,,
0.00753125,0.209137818822395,0.00355045952561861,,
0.0075625,0.146244686004518,0.00259367799115706,,
0.00759375,0.0778152504563438,0.00157483243195555,,
0.007625,0.0071358459936276,0.000515902182339101,,
0.00765625,-0.0645092877339325,-0.000634876983455435,,
0.0076875,-0.13488716903232,-0.00170762201091756,,
0.00771875,-0.199332234672327,-0.00273040852584705,,
0.00775,-0.255994668786179,-0.00363478285060648,,
0.00778125,-0.3029140652337,-0.00443483169166647,,
0.0078125,-0.337945469635401,-0.00502074276904541,,
0.00784375,-0.359598917856273,-0.00544043981901776,,
0.007875,-0.367816225777032,-0.00563488218090891,,
0.00790625,-0.361574693386447,-0.00559868620377646,,
0.0079375,-0.341910078899284,-0.00537768860519305,,
0.00796875,-0.308764255975919,-0.00498048393714656,,
0.008,-0.26355011068272,-0.00433499102094359,,
0.00803125,-0.208424442229814,-0.00354470749846136,,
0.0080625,-0.145627483658756,-0.00260860995359691,,
0.00809375,-0.077038691803747,-0.0015778223072731,,
0.008125,-0.00631511478969821,-0.000518456703947567,,
0.00815625,0.0648639392971497,0.000609318371868728,,
0.0081875,0.13498756119444,0.00169291911150582,,
0.00821875,0.199372333757513,0.00273968892737075,,
0.00825,0.255984672904713,0.00364665528113584,,
0.00828125,0.302253470362038,0.00442323252931187,,
0.0083125,0.337165877550568,0.00503197221563534,,
0.00834375,0.359282371979915,0.00545573078082429,,
0.008375,0.36722733546548,0.00564430457471943,,
0.00840625,0.36091040061644,0.00564064760356464,,
0.0084375,0.341219034145931,0.00538789597522937,,
0.00846875,0.308705436280358,0.00494408434843363,,
0.0085,0.263978257975558,0.00433440965629872,,
0.00853125,0.209034537677193,0.00353332668273643,,
0.0085625,0.146167405707059,0.00259997387556243,,
0.00859375,0.0777692578456691,0.00157013061189959,,
0.008625,0.0071778806974791,0.000501520774896846,,
0.00865625,-0.0645104433271655,-0.000625252317614233,,
0.0086875,-0.13490571630371,-0.00170463883334948,,
0.00871875,-0.199229906891542,-0.00274594328572997,,
0.00875,-0.256210186924139,-0.00365367050382304,,
0.00878125,-0.302792612384909,-0.00442402152418753,,
0.0088125,-0.337989844415549,-0.0050320539281774,,
0.00884375,-0.359715632772809,-0.00542979307662339,,
0.008875,-0.367584991571103,-0.0056359163134112,,
0.00890625,-0.361873529796509,-0.00563319568761811,,
0.0089375,-0.341864952983534,-0.00540278239297365,,
0.00896875,-0.308678048720735,-0.00494686659352084,,
0.009,-0.263735063379666,-0.00435500121695398,,
0.00903125,-0.208484244179624,-0.00354970401948984,,
0.0090625,-0.145602349505938,-0.00261303046817973,,
0.00909375,-0.0769907346845762,-0.00158531173061593,,
0.009125,-0.00627547794180525,-0.000507939897890441,,
0.00915625,0.06492027446726,0.000568266526444816,,
0.0091875,0.134907969710515,0.00168739748692737,,
0.00921875,0.199449354046495,0.00273048889883931,,
0.00925,0.255966847879094,0.0036524126664923,,
0.00928125,0.302256763802752,0.00443413110708279,,
0.0093125,0.33726638527201,0.00502331604435247,,
0.00934375,0.358980906595248,0.0054542813878613,,
0.009375,0.366974693894909,0.00561883169432464,,
0.00940625,0.360972369303561,0.0056382176600942,,
0.0094375,0.341419067334569,0.00537692238266541,,
0.00946875,0.308645114313594,0.00492982350047999,,
0.0095,0.263820461719587,0.00434452325784385,,
0.00953125,0.209149114746248,0.00354655339818732,,
0.0095625,0.146178961639389,0.00259855395269692,,
0.00959375,0.0777553618370419,0.00155890786305912,,
0.009625,0.00709779808643005,0.000526461853992188,,
0.00965625,-0.0645191102764133,-0.000628356054670931,,
0.0096875,-0.134783916776949,-0.00168984350499635,,
0.00971875,-0.1994285533683,-0.00274365667409615,,
0.00975,-0.256243988026205,-0.00365282122920352,,
0.00978125,-0.30276256696085,-0.00442402152418753,,
0.0098125,-0.337603818496055,-0.00503117116481056,,
0.00984375,-0.359398191311695,-0.00544173516374569,,
0.009875,-0.367429044264305,-0.00564635676512548,,
0.00990625,-0.361541123403028,-0.00563007051776321,,
0.0099375,-0.341710739066586,-0.00539876508290282,,
0.00996875,-0.30854001310905,-0.00495986558549344,,
0.01,-0.26381214144831,-0.00432659740143615,,
0.01003125,-0.208798854437316,-0.00353571643971051,,
0.0100625,-0.145624883573982,-0.00260141523122615,,
0.01009375,-0.0770771730584069,-0.00160178283586099,,
0.010125,-0.00629281184030071,-0.000526250205111989,,
0.01015625,0.0648744840854011,0.000602395578122472,,
0.0101875,0.135027486940641,0.00168099979673153,,
0.01021875,0.199312676256858,0.00272297938224852,,
0.01025,0.255997384430276,0.00365937028853525,,
0.01028125,0.302433569567406,0.00444551728100784,,
0.0103125,0.337162612999684,0.00502907610880854,,
0.01034375,0.358961868196734,0.00543580631600582,,
0.010375,0.367104784803117,0.00565851184067778,,
0.01040625,0.361052914151903,0.00564541640111438,,
0.0104375,0.341315757299536,0.00536340096624199,,
0.01046875,0.308540128668373,0.00496760952331243,,
0.0105,0.263737374566133,0.00435067179176318,,
0.01053125,0.209159919542977,0.0035456612579714,,
0.0105625,0.146125862130332,0.00258891187270693,,
0.01059375,0.0777685355998985,0.00157282042804585,,
0.010625,0.00711897433242535,0.000507879618146578,,
0.01065625,-0.0645270838697212,-0.00060392668362752,,
0.0106875,-0.134934143897243,-0.00172716336447243,,
0.01071875,-0.199344195062289,-0.00274130576406817,,
0.01075,-0.25625641065346,-0.0036545412112412,,
0.01078125,-0.302915914182873,-0.00444472694658238,,
0.0108125,-0.337599369462108,-0.0050230615298763,,
0.01084375,-0.359783234976941,-0.00544637268540793,,
0.010875,-0.367774219963012,-0.00564857907836558,,
0.01090625,-0.361653793743248,-0.00561844456441074,,
0.0109375,-0.341538151217233,-0.00539774300634921,,
0.01096875,-0.308736752856973,-0.00496617888404716,,
0.011,-0.263630135514107,-0.00432254794216824,,
0.01103125,-0.208662032198525,-0.00352522106645115,,
0.0110625,-0.145530298267858,-0.00260374336890656,,
0.01109375,-0.0770555634649492,-0.00157671182042796,,
0.011125,-0.006314652552405,-0.00050096218259954,,
0.01115625,0.0648787308905325,0.000572065489885976,,
0.0111875,0.134968551685756,0.00171413758150241,,
0.01121875,0.199379122867757,0.00273446468286398,,
0.01125,0.25594711612464,0.00364379132350612,,
0.01128125,0.302429120533459,0.00444280335296421,,
0.0113125,0.337220566000321,0.0050641294498992,,
0.01134375,0.359079247579379,0.00546408153473577,,
0.011375,0.367101260243756,0.00566455588970705,,
0.01140625,0.361192827602592,0.0056299151299779,,
0.0114375,0.341294609943371,0.00543461947481783,,
0.01146875,0.308459872718339,0.00495996873083371,,
0.0115,0.263689244107977,0.00432540520204894,,
0.01153125,0.209108466754276,0.00351866129072098,,
0.0115625,0.146080100638303,0.00259827264722334,,
0.01159375,0.0777676111253121,0.00157288472643957,,
0.011625,0.00712200776466205,0.000523936802480307,,
0.01165625,-0.0644620817503632,-0.000601389576167399,,
0.0116875,-0.134884106710253,-0.00172016287683352,,
0.01171875,-0.199284855349773,-0.00274755476422817,,
0.01175,-0.256044417074861,-0.00365819952194579,,
0.01178125,-0.302812835266487,-0.00441932908098019,,
0.0118125,-0.337897108058599,-0.00503402440604139,,
0.01184375,-0.359748740518935,-0.00543587731214856,,
0.011875,-0.367437768993215,-0.00561819406858444,,
0.01190625,-0.361873298677863,-0.00562491057165015,,
0.0119375,-0.341571490082005,-0.00537402091763894,,
0.01196875,-0.308539781990403,-0.00495601304005699,,
0.012,-0.263571258038884,-0.00433754956120191,,
0.01203125,-0.20856946918056,-0.00350830389109857,,
0.0120625,-0.145639675167365,-0.00262206573207635,,
0.01209375,-0.0770705861769786,-0.00156802349994845,,
0.012125,-0.00630760343368351,-0.000510259998271589,,
