Time domain (s),Current (AC) (A),Potential (AC) (V),Frequency (Hz),Column 5
0,-0.22729877093073,-0.00536797103409059,15.849,0.3
0.000231062488169601,-0.223348018684711,-0.00527267736871906,,
0.000462124976339201,-0.219193499945437,-0.00521125567240466,,
0.000693187464508802,-0.214703490780773,-0.00511648776518703,,
0.000924249952678403,-0.210641101536554,-0.00503432490970646,,
0.001155312440848,-0.206234144117957,-0.00495994327490124,,
0.0013863749290176,-0.201415597697342,-0.00487333776302101,,
0.0016174374171872,-0.196950504056498,-0.00476210048163628,,
0.00184849990535681,-0.19200371028847,-0.00468893959154482,,
0.00207956239352641,-0.187155419754148,-0.00458686364598959,,
0.00231062488169601,-0.182221566607017,-0.00449665833375024,,
0.00254168736986561,-0.177133778014271,-0.00437535278372136,,
0.00277274985803521,-0.172010644143548,-0.00427542094563682,,
0.00300381234620481,-0.166806003675523,-0.0041679658369711,,
0.00323487483437441,-0.161414448492949,-0.00403943275532193,,
0.00346593732254401,-0.156030087909307,-0.0039253038040914,,
0.00369699981071361,-0.150494640748084,-0.00380740089511367,,
0.00392806229888321,-0.144889999893771,-0.00371156997062894,,
0.00415912478705281,-0.13922857482238,-0.00360290890419801,,
0.00439018727522241,-0.133533156478181,-0.00350254167264286,,
0.00462124976339201,-0.127577187423648,-0.00336776356992319,,
0.00485231225156161,-0.121856322410741,-0.0032239687148663,,
0.00508337473973121,-0.115893351900871,-0.00312958198231028,,
0.00531443722790081,-0.109813191514429,-0.00303555177950221,,
0.00554549971607042,-0.103981220648209,-0.00287859818365277,,
0.00577656220424002,-0.0977121658253654,-0.00275943509809995,,
0.00600762469240962,-0.0915758006526322,-0.00261568131789902,,
0.00623868718057922,-0.0853214730289455,-0.00247043734193086,,
0.00646974966874882,-0.0791112787168312,-0.00234332380729674,,
0.00670081215691842,-0.0727341117664044,-0.002222307424252,,
0.00693187464508802,-0.0663591659673259,-0.00209048506815313,,
0.00716293713325762,-0.0600032448124045,-0.00193158945312311,,
0.00739399962142722,-0.0536157446796182,-0.00180283128126435,,
0.00762506210959682,-0.0471328798965523,-0.00170638259094869,,
0.00785612459776642,-0.0406648871703401,-0.00152353540602634,,
0.00808718708593602,-0.0341930798581167,-0.00138180579471703,,
0.00831824957410562,-0.0276983367439273,-0.00127647014860877,,
0.00854931206227522,-0.0211591223168733,-0.00111895136274409,,
0.00878037455044482,-0.0146293236401001,-0.000986670611254681,,
0.00901143703861442,-0.00813202137327028,-0.000842231702459451,,
0.00924249952678403,-0.00155755824003693,-0.000701065638171627,,
0.00947356201495363,0.00500352969920782,-0.000553025286023079,,
0.00970462450312323,0.0115588233305875,-0.000394666930106702,,
0.00993568699129283,0.0181384530550005,-0.000254289503049066,,
0.0101667494794624,0.0246303955870551,-0.000110494647992176,,
0.010397811967632,0.0311387794676769,5.34761762156499E-05,,
0.0106288744558016,0.0376652947033266,0.000175001887471993,,
0.0108599369439712,0.0441471696254656,0.000321218516024402,,
0.0110909994321408,0.0506319658444866,0.000482100511078887,,
0.0113220619203104,0.0570427880664298,0.000609820310584208,,
0.01155312440848,0.0634843201200581,0.000726867219567939,,
0.0117841868966496,0.0697923658062441,0.000864652001729471,,
0.0120152493848192,0.0760531395974308,0.00104184564350485,,
0.0122463118729888,0.082374150047465,0.0011760881301055,,
0.0124773743611584,0.0887193034469372,0.00130585838641029,,
0.012708436849328,0.0948272765111313,0.00143677216669991,,
0.0129394993374976,0.100918639226112,0.00160430500239972,,
0.0131705618256672,0.107124536093227,0.00173747954275028,,
0.0134016243138368,0.113045932444165,0.0018747122788505,,
0.0136326868020064,0.119020250140271,0.00199912308797545,,
0.013863749290176,0.12500345244177,0.00214845154760068,,
0.0140948117783456,0.130806089624423,0.00227273091718727,,
0.0143258742665152,0.136639991926598,0.00241226384521021,,
0.0145569367546848,0.142253662244,0.00255458657743635,,
0.0147879992428544,0.147961852208452,0.00266501879164815,,
0.015019061731024,0.153486338470631,0.0028063688712896,,
0.0152501242191936,0.159008120722473,0.00292073769967782,,
0.0154811867073632,0.164206001164656,0.00305569981775111,,
0.0157122491955328,0.169558227482595,0.00319795683020851,,
0.0159433116837024,0.174786238325677,0.00329586614239474,,
0.016174374171872,0.179860458580839,0.00343124886699142,,
0.0164054366600416,0.184949019747967,0.00354700766849803,,
0.0166364991482112,0.189750593675127,0.0036669199594197,,
0.0168675616363808,0.194519309048101,0.00377327097596281,,
0.0170986241245504,0.199332278447396,0.00387059866819151,,
0.01732968661272,0.204060409522366,0.00400728593020716,,
0.0175607491008896,0.208516425414221,0.00409917202554411,,
0.0177918115890593,0.212705323713495,0.00422278762546169,,
0.0180228740772289,0.216969934302206,0.00432276382439012,,
0.0182539365653985,0.22122411513676,0.00442829334381756,,
0.0184849990535681,0.225253283682553,0.00452194730094702,,
0.0187160615417377,0.228966276162507,0.00461967588376799,,
0.0189471240299073,0.232889022587178,0.00472490309225693,,
0.0191781865180769,0.236463724252752,0.00481505747167521,,
0.0194092490062465,0.240156243511582,0.00487135302599073,,
0.0196403114944161,0.243516942073339,0.00498536368163638,,
0.0198713739825857,0.24668584904476,0.00506644873290174,,
0.0201024364707553,0.249751037905396,0.00518463916586986,,
0.0203334989589249,0.253043170490749,0.00525463072009114,,
0.0205645614470945,0.255858431538804,0.00533558433181813,,
0.0207956239352641,0.258559737865512,0.00538462442361132,,
0.0210266864234337,0.261262589340984,0.0054700601235993,,
0.0212577489116033,0.263798564749942,0.00554561157029676,,
0.0214888113997729,0.266095814674857,0.00560000125130466,,
0.0217198738879425,0.268293595648089,0.00565833411846572,,
0.0219509363761121,0.270369889299748,0.00569962256347889,,
0.0221819988642817,0.272072450094109,0.00578011285083324,,
0.0224130613524513,0.274137155130039,0.00584006242431734,,
0.0226441238406209,0.275664148396087,0.00586732298459047,,
0.0228751863287905,0.277056327432475,0.00592286933353625,,
0.0231062488169601,0.278594523027062,0.00596548203189951,,
0.0233373113051297,0.27973754682525,0.00601123284924343,,
0.0235683737932993,0.280737837506362,0.00604636992385776,,
0.0237994362814689,0.281777722624551,0.0060762987067613,,
0.0240304987696385,0.282279509685668,0.00612535194250796,,
0.0242615612578081,0.282862610200493,0.00615730489430355,,
0.0244926237459777,0.283454015889924,0.00616491524357965,,
0.0247236862341473,0.283622823392393,0.00617114219171322,,
0.0249547487223169,0.283997328824074,0.00620917093617335,,
0.0251858112104865,0.283697183676662,0.00622465451380183,,
0.0254168736986561,0.284005633998681,0.00623737786112333,,
0.0256479361868257,0.283528955604979,0.00624797188792181,,
0.0258789986749953,0.283050925206108,0.00628027972647116,,
0.0261100611631649,0.282499886528138,0.00625586811819367,,
0.0263411236513345,0.281646964410395,0.00624618431019908,,
0.0265721861395041,0.280969609820966,0.00623739100507725,,
0.0268032486276737,0.279932428713113,0.0062430034733687,,
0.0270343111158433,0.278538125097175,0.00620300313583178,,
0.0272653736040129,0.277280760290449,0.00621475711655739,,
0.0274964360921825,0.27567863416575,0.00617407657940916,,
0.0277274985803521,0.274055455389141,0.00617180267539386,,
0.0279585610685217,0.272245120468489,0.00613196335129196,,
0.0281896235566913,0.270322375975254,0.00610662180827992,,
0.0284206860448609,0.268331258649212,0.00607261839968487,,
0.0286517485330305,0.266026862411263,0.00602349944416858,,
0.0288828110212001,0.263664909381854,0.00601086810452411,,
0.0291138735093697,0.261362830867051,0.00597390730631409,,
0.0293449359975393,0.258896000865283,0.00591130265415352,,
0.0295759984857089,0.256006958963746,0.00586957060069748,,
0.0298070609738785,0.253357608264228,0.0057965559370925,,
0.0300381234620481,0.250069724837977,0.00579074959548187,,
0.0302691859502177,0.246749586431276,0.00571102822942748,,
0.0305002484383873,0.243711823961201,0.00566824465966409,,
0.0307313109265569,0.240097141571358,0.00556469659127856,,
0.0309623734147265,0.236675795920614,0.0055358981884055,,
0.0311934359028961,0.233055512366502,0.0054615822733699,,
0.0314244983910657,0.229209443949246,0.00539662485347137,,
0.0316555608792353,0.225473081094236,0.00532446454686575,,
0.0318866233674049,0.22120480077721,0.00524168392555424,,
0.0321176858555745,0.2171248354658,0.00515285708547442,,
0.0323487483437441,0.213017636907423,0.00507922137005012,,
0.0325798108319137,0.208416570175345,0.00499850763548038,,
0.0328108733200833,0.203937183908434,0.00490226760543244,,
0.0330419358082529,0.199451617046467,0.00481263898416806,,
0.0332729982964225,0.194775055311497,0.00471886015947742,,
0.0335040607845921,0.190090719546808,0.00463327987599671,,
0.0337351232727617,0.184957735352714,0.00452616322414245,,
0.0339661857609313,0.179923230249377,0.00445965810367888,,
0.0341972482491009,0.174971269890169,0.00432967754411218,,
0.0344283107372705,0.169703254179869,0.00422637921084945,,
0.0346593732254401,0.164416527683754,0.0041162328776343,,
0.0348904357136097,0.159001746983821,0.00400733850602242,,
0.0351214982017793,0.153728733682988,0.00386712866437655,,
0.0353525606899489,0.148092199992467,0.00379689066102085,,
0.0355836231781185,0.142495140024278,0.00365454821286404,,
0.0358146856662881,0.136800880541652,0.00352391374159389,,
0.0360457481544577,0.131088658704644,0.00342286302443862,,
0.0362768106426273,0.125165499918397,0.00332637325926743,,
0.0365078731307969,0.119378531509929,0.00317470517585772,,
0.0367389356189665,0.113296246543937,0.00308511927244348,,
0.0369699981071361,0.107312271668056,0.00295586163033823,,
0.0372010605953057,0.101201401449929,0.00279379339344921,,
0.0374321230834753,0.0950237035477581,0.00270129939024688,,
0.0376631855716449,0.0887874831361498,0.00253560670808506,,
0.0378942480598145,0.0826561396968998,0.00244522888145182,,
0.0381253105479841,0.0762868433479897,0.00229427057154963,,
0.0383563730361537,0.0700061999094157,0.00214457736720508,,
0.0385874355243233,0.0636753391360108,0.00202083689972632,,
0.0388184980124929,0.0572672209244046,0.00187632898517309,,
0.0390495605006625,0.0508515701125737,0.00173931969628827,,
0.0392806229888321,0.0443760447861369,0.00161128444189096,,
0.0395116854770017,0.0379070863419472,0.00146039185175795,,
0.0397427479651713,0.0314620777035999,0.00130899979137933,,
0.0399738104533409,0.0249062046414337,0.00116917441038344,,
0.0402048729415105,0.0183955271806153,0.00102796562824548,,
0.0404359354296801,0.0118786691247408,0.000907964615635137,,
0.0406669979178497,0.00532086462661963,0.000747411219426564,,
0.0408980604060193,-0.0011971522908279,0.000615025316306639,,
0.0411291228941889,-0.0077629239622636,0.000476225163710708,,
0.0413601853823585,-0.014354094016508,0.000311439414364401,,
0.0415912478705281,-0.0208846652676632,0.00019242091230387,,
0.0418223103586977,-0.0274040341902793,4.07002530788958E-05,,
0.0420533728468673,-0.0339527609394118,-0.000108444191192714,,
0.0422844353350369,-0.040418049655287,-0.000249582324578501,,
0.0425154978232065,-0.0469395431574536,-0.00038182364420658,,
0.0427465603113761,-0.0533505585229923,-0.000544746238095417,,
0.0429776227995457,-0.0597497921292053,-0.000676892264057649,,
0.0432086852877153,-0.066126234791149,-0.000847725875166461,,
0.0434397477758849,-0.0725167769355644,-0.000975222227456385,,
0.0436708102640545,-0.0787352281363864,-0.00112769209205066,,
0.0439018727522241,-0.0851186722536671,-0.0012339067400724,,
0.0441329352403937,-0.0914185817658926,-0.0013760470999391,,
0.0443639977285633,-0.0974523876894135,-0.00153419350959982,,
0.0445950602167329,-0.103590877441697,-0.00166385861427409,,
0.0448261227049025,-0.109708314542071,-0.00180117514307998,,
0.0450571851930721,-0.115617929133683,-0.001946981023075,,
0.0452882476812417,-0.121686549190294,-0.00208827852690119,,
0.0455193101694113,-0.127613305276007,-0.00221886370834445,,
0.0457503726575809,-0.133271060619083,-0.00234152308562008,,
0.0459814351457505,-0.139071549079236,-0.00247883632843715,,
0.0462124976339201,-0.144739685890571,-0.00260654626997736,,
0.0464435601220897,-0.150352680205389,-0.00274612027285581,,
0.0466746226102593,-0.155896480827118,-0.00288141098977546,,
0.0469056850984289,-0.161232458940086,-0.0029901657068776,,
0.0471367475865985,-0.166614405228783,-0.00312914823183341,,
0.0473678100747681,-0.171793405884506,-0.00323557482611081,,
0.0475988725629377,-0.177102681895395,-0.00335168851437162,,
0.0478299350511073,-0.182028423011514,-0.0034889261794544,,
0.0480609975392769,-0.187017515226958,-0.00360139734950593,,
0.0482920600274465,-0.191964888425773,-0.00372469913752527,,
0.0485231225156161,-0.196612937337458,-0.00382968153987395,,
0.0487541850037857,-0.201320571048354,-0.00394377105924271,,
0.0489852474919553,-0.205933033252567,-0.00407322586065551,,
0.0492163099801249,-0.210296340218581,-0.00417703680811821,,
0.0494473724682945,-0.214538739293809,-0.0042758530531195,,
0.0496784349564641,-0.219150187494145,-0.0043807434477916,,
0.0499094974446337,-0.222992103324098,-0.00449055953916666,,
0.0501405599328033,-0.227106206766013,-0.00457106625646331,,
0.0503716224209729,-0.230975645558325,-0.00467928042846344,,
0.0506026849091425,-0.234714181278784,-0.00475701377149873,,
0.0508337473973121,-0.238279418908179,-0.004863874116253,,
0.0510648098854817,-0.24167039272853,-0.00494144973184207,,
0.0512958723736513,-0.245119551057027,-0.00500862847994066,,
0.0515269348618209,-0.248210476301764,-0.00511551346960859,,
0.0517579973499905,-0.251555868233576,-0.00522254632875674,,
0.0519890598381601,-0.254487208582529,-0.00530150205949997,,
0.0522201223263297,-0.257258239747214,-0.00535394643533849,,
0.0524511848144993,-0.260029126054202,-0.00542974597416457,,
0.0526822473026689,-0.262678283610124,-0.00548115197764965,,
0.0529133097908385,-0.265031110604646,-0.00557065080236985,,
0.0531443722790081,-0.26725626968254,-0.00562116301699378,,
0.0533754347671778,-0.269515711748635,-0.00568568668641545,,
0.0536064972553474,-0.27192937897574,-0.0057620152693838,,
0.053837559743517,-0.273503209563698,-0.00579417688144668,,
0.0540686222316865,-0.27522851301643,-0.00585770161037624,,
0.0542996847198561,-0.276513497357313,-0.00589215191340209,,
0.0545307472080258,-0.277884672027689,-0.00594584496485639,,
0.0547618096961954,-0.279560530719972,-0.0059833824540414,,
0.054992872184365,-0.280433877772938,-0.00601821557472304,,
0.0552239346725346,-0.28159351192034,-0.00605850179325573,,
0.0554549971607042,-0.282466569257913,-0.00611203711726382,,
0.0556860596488738,-0.283141026693411,-0.00612875786954792,,
0.0559171221370434,-0.283674247874696,-0.00613469729369154,,
0.056148184625213,-0.284019202336265,-0.00619112428754498,,
0.0563792471133826,-0.284342717858733,-0.00617991249491601,,
0.0566103096015522,-0.284423500167552,-0.00623273804541613,,
0.0568413720897218,-0.283991775945703,-0.0062266129629247,,
0.0570724345778914,-0.284094335194916,-0.00626633399144216,,
0.057303497066061,-0.283633736005539,-0.00625910481682812,,
0.0575345595542306,-0.283158940761894,-0.00627478555376415,,
0.0577656220424002,-0.282304328637691,-0.00625129730824447,,
0.0579966845305698,-0.281643922398766,-0.00625659432164349,,
0.0582277470187394,-0.280605968716532,-0.00623995407607669,,
0.058458809506909,-0.279497565907838,-0.00624835306258342,,
0.0586898719950786,-0.278266082342909,-0.00621716246011061,,
0.0589209344832482,-0.277005047807868,-0.00623155508957041,,
0.0591519969714178,-0.275264099723901,-0.00619429198042143,,
0.0593830594595874,-0.273466463994654,-0.00614386027251523,,
0.059614121947757,-0.271795578749955,-0.00609506991584485,,
0.0598451844359266,-0.269884616016046,-0.00606269471453214,,
0.0600762469240962,-0.267409287696077,-0.00605668792762515,,
0.0603073094122658,-0.265291275027789,-0.00602976911015229,,
0.0605383719004354,-0.262865005181077,-0.00598631684173689,,
0.060769434388605,-0.260144384494818,-0.00593127982100228,,
0.0610004968767746,-0.257549114002042,-0.00589725176749356,,
0.0612315593649442,-0.254656981802976,-0.00584851398663888,,
0.0614626218531138,-0.251821247533798,-0.0058240268006271,,
0.0616936843412834,-0.248808062586251,-0.00575738695463635,,
0.061924746829453,-0.24545615205809,-0.00568461052519442,,
0.0621558093176226,-0.242230122868298,-0.00562226875211103,,
0.0623868718057922,-0.238775942806318,-0.00554595167010241,,
0.0626179342939618,-0.234972752267264,-0.00550360349381007,,
0.0628489967821314,-0.231404038053151,-0.00544340418520317,,
0.063080059270301,-0.227547153594547,-0.00536622288822919,,
0.0633111217584706,-0.223531698244035,-0.00528952791754778,,
0.0635421842466402,-0.21924791815347,-0.0051757275651636,,
0.0637732467348098,-0.215063896729982,-0.00513470528521554,,
0.0640043092229794,-0.210903004252056,-0.00502784329746664,,
0.064235371711149,-0.206430764298179,-0.00493524578562754,,
0.0644664341993186,-0.201821971822281,-0.00485767181303265,,
0.0646974966874882,-0.197463107158964,-0.00478498410527939,,
0.0649285591756578,-0.192418775875206,-0.0046666622327729,,
0.0651596216638274,-0.187597766873749,-0.0045886906555741,,
0.065390684151997,-0.182552035298924,-0.00447851967744528,,
0.0656217466401666,-0.177667433768647,-0.00439654083731833,,
0.0658528091283362,-0.172528462123092,-0.0042758530531195,,
0.0660838716165058,-0.167057621494564,-0.00418287272362505,,
0.0663149341046754,-0.161725940826597,-0.00406804714284092,,
0.066545996592845,-0.156376973806831,-0.00393801400745897,,
0.0667770590810146,-0.150878030785158,-0.00383633402351347,,
0.0670081215691842,-0.145325683559327,-0.00371531599747454,,
0.0672391840573538,-0.139446247654512,-0.00359859768733717,,
0.0674702465455234,-0.133847063106773,-0.00350674773787274,,
0.067701309033693,-0.127985686128137,-0.00337019520138426,,
0.0679323715218626,-0.12226052367023,-0.00325087438838567,,
0.0681634340100322,-0.116330435857495,-0.00311662204381946,,
0.0683944964982018,-0.110298368226333,-0.00299864191411281,,
0.0686255589863714,-0.104166445356297,-0.00289510698968121,,
0.068856621474541,-0.0980770623631698,-0.00274931425364011,,
0.0690876839627106,-0.0919578386845376,-0.00264103600486454,,
0.0693187464508802,-0.0856798992563006,-0.00249378264695244,,
0.0695498089390498,-0.0795168319814891,-0.00234797676695742,,
0.0697808714272194,-0.0731645805548822,-0.00220594320171585,,
0.070011933915389,-0.0668574281578254,-0.00208501882634815,,
0.0702429964035586,-0.060421400696669,-0.00193855574866086,,
0.0704740588917282,-0.0540321622715232,-0.00181162622938036,,
0.0707051213798978,-0.0475606929605919,-0.00166074514020709,,
0.0709361838680674,-0.0410776350339305,-0.00153457632725518,,
0.071167246356237,-0.0346503956063695,-0.00140622561796544,,
0.0713983088444066,-0.0281084288830796,-0.00125783202205731,,
0.0716293713325762,-0.0215858248052388,-0.0011489310784687,,
0.0718604338207458,-0.0150428440780725,-0.000950224070238814,,
0.0720914963089154,-0.0085517224062988,-0.000829350627692182,,
0.072322558797085,-0.0019262693638526,-0.000664919765099636,,
0.0725536212852546,0.00455640227561784,-0.000531442913810576,,
0.0727846837734242,0.011144144031042,-0.000388660143199715,,
0.0730157462615938,0.0176673758255682,-0.000257457195925515,,
0.0732468087497634,0.0242060591077345,-0.000106472598115914,,
0.073477871237933,0.0307630910314737,1.52239845401247E-05,,
0.0737089337261026,0.0372274140293713,0.000171518739703114,,
0.0739399962142722,0.0436981107659206,0.00031522487307134,,
0.0741710587024418,0.050237566622469,0.000455930898974888,,
0.0744021211906114,0.0566120778484576,0.000603366629246871,,
0.074633183678781,0.0630140154650077,0.000741848040962001,,
0.0748642461669506,0.0694418343233552,0.000869150519932749,,
0.0750953086551202,0.0757319417981089,0.00100562419269856,,
0.0753263711432898,0.0819946228823012,0.00116230340851109,,
0.0755574336314594,0.0882262078476174,0.00131531217521275,,
0.075788496119629,0.0944473630587765,0.00144946922611355,,
0.0760195586077986,0.100622163807015,0.00158361641904881,,
