Time domain (s),Current (AC) (A),Potential (AC) (V),Frequency (Hz),Column 5
0,0.249949637807473,0.00625500438862936,1.2589,0.3
0.00193931706251489,0.247680393703905,0.00618919042428168,,
0.00387863412502979,0.245632878447975,0.00619206591684618,,
0.00581795118754468,0.243411147668902,0.00609789675900263,,
0.00775726825005958,0.241175896838143,0.00602262676529453,,
0.00969658531257447,0.238771259074128,0.00599204080850901,,
0.0116359023750894,0.2362640620609,0.00595056752337397,,
0.0135752194376043,0.234059714205422,0.00588587538796403,,
0.0155145365001192,0.231402637762084,0.00583997066361475,,
0.017453853562634,0.228781099740318,0.00578925196068214,,
0.0193931706251489,0.226427258741921,0.00573957771917444,,
0.0213324876876638,0.223665691613415,0.00568618124065479,,
0.0232718047501787,0.221004752298167,0.00561520944211003,,
0.0252111218126936,0.218237004574606,0.00554060996684758,,
0.0271504388752085,0.215292723604755,0.00549159334919969,,
0.0290897559377234,0.212525169024789,0.00540812239911936,,
0.0310290730002383,0.209533374730444,0.00535565003256,,
0.0329683900627532,0.20665534201385,0.00527268197131336,,
0.0349077071252681,0.203581075404225,0.00522570699636837,,
0.036847024187783,0.200655360362492,0.00513250493243689,,
0.0387863412502979,0.19751827379843,0.00507255370629256,,
0.0407256583128128,0.194429931849282,0.00501513411709942,,
0.0426649753753277,0.191128117941205,0.00493342972523125,,
0.0446042924378426,0.187945715061048,0.00486017128685967,,
0.0465436095003575,0.184640834998392,0.00476344470289414,,
0.0484829265628724,0.181373255792618,0.00471767752079,,
0.0504222436253872,0.177993991302744,0.00460970685827578,,
0.0523615606879021,0.174508739264838,0.00456679367776092,,
0.054300877750417,0.171019769212718,0.00446520153686958,,
0.0562401948129319,0.167516144390289,0.00438738701162444,,
0.0581795118754468,0.163963654238198,0.00431665591200936,,
0.0601188289379617,0.160472945893719,0.00420467933160262,,
0.0620581460004766,0.156868524257387,0.00411911516047736,,
0.0639974630629915,0.153174652993388,0.00405178393323657,,
0.0659367801255064,0.149466320102675,0.00395687978402037,,
0.0678760971880213,0.145860667175922,0.00387886324360265,,
0.0698154142505362,0.141981184916644,0.00380611629045546,,
0.0717547313130511,0.13835281347447,0.00370744692227598,,
0.073694048375566,0.134499019313394,0.00360774598725655,,
0.0756333654380809,0.130526248697488,0.00353177108954172,,
0.0775726825005958,0.12676400460068,0.00342703266979072,,
0.0795119995631107,0.122842996468369,0.00334913218064248,,
0.0814513166256256,0.118703349785949,0.003237877697023,,
0.0833906336881405,0.114817493788019,0.00316743887467918,,
0.0853299507506553,0.110858436367394,0.00305653254486815,,
0.0872692678131702,0.106811305467219,0.00296186909458074,,
0.0892085848756851,0.102736168745697,0.00288803899625245,,
0.0911479019382,0.0986538857111402,0.00275495397939629,,
0.0930872190007149,0.0944613176835516,0.00268113677565385,,
0.0950265360632298,0.090481787041803,0.0025720013022501,,
0.0969658531257447,0.0862930818861245,0.00248550442277429,,
0.0989051701882596,0.0820377421899973,0.0023889669593955,,
0.100844487250774,0.0779564248734185,0.00229726066738145,,
0.102783804313289,0.0737229104035832,0.00217766768514416,,
0.104723121375804,0.0695058131393657,0.00208437965730957,,
0.106662438438319,0.0652985661985188,0.00198698685309351,,
0.108601755500834,0.0610397499176725,0.00186153113265286,,
0.110541072563349,0.0567562112566019,0.00177089079303894,,
0.112480389625864,0.0524786600469918,0.00166630281011892,,
0.114419706688379,0.0481721372980563,0.00156656748953843,,
0.116359023750894,0.04388067974957,0.0014485003665845,,
0.118298340813409,0.0395192800765621,0.00137507429860184,,
0.120237657875923,0.0352222455067557,0.00125995143933499,,
0.122176974938438,0.0308741968847869,0.00114929870303859,,
0.124116292000953,0.0265257378326778,0.00103139061330593,,
0.126055609063468,0.0222511079199497,0.000943759010306522,,
0.127994926125983,0.0178661688712399,0.000821724653216727,,
0.129934243188498,0.0134949430178107,0.000727559793568311,,
0.131873560251013,0.00915384756528012,0.000627274304007219,,
0.133812877313528,0.00475483317704797,0.000515108603013292,,
0.135752194376043,0.000427233633253146,0.000403750962709726,,
0.137691511438557,-0.00392660929658068,0.000320125277603278,,
0.139630828501072,-0.0083036294578749,0.000203936465935861,,
0.141570145563587,-0.0127181194766967,7.59705995201365E-05,,
0.143509462626102,-0.0170905041916989,-1.25722208537127E-05,,
0.145448779688617,-0.0214335310801845,-0.00013806232685587,,
0.147388096751132,-0.025764196778558,-0.000232502270994139,,
0.149327413813647,-0.0301104588222683,-0.000320237030677184,,
0.151266730876162,-0.034502447612214,-0.000432714350820707,,
0.153206047938677,-0.0387478886990717,-0.000513279720970594,,
0.155145365001192,-0.0430927987376135,-0.000625993441848216,,
0.157084682063706,-0.0474466899533462,-0.000744039073826031,,
0.159023999126221,-0.0517499292611582,-0.000818776091334072,,
0.160963316188736,-0.0560198995846447,-0.000944233960872065,,
0.162902633251251,-0.0602698795459967,-0.00104221346872801,,
0.164841950313766,-0.0645657793971795,-0.00117538874768242,,
0.166781267376281,-0.0688143590674641,-0.00126903782391086,,
0.168720584438796,-0.0730409203678613,-0.00137783373989642,,
0.170659901501311,-0.0772162986154501,-0.0014912050846343,,
0.172599218563826,-0.0813727487906797,-0.00158509485979152,,
0.17453853562634,-0.0856615023288289,-0.00169731213912749,,
0.176477852688855,-0.0897638240114187,-0.0017995726493667,,
0.17841716975137,-0.0938164112181663,-0.00189813886086254,,
0.180356486813885,-0.0980074340969909,-0.00199561977807949,,
0.1822958038764,-0.102129311568625,-0.00210536559519658,,
0.184235120938915,-0.10612448684161,-0.00219509256833783,,
0.18617443800143,-0.110183978931897,-0.00232819907616966,,
0.188113755063945,-0.114166213583982,-0.00238957515401106,,
0.19005307212646,-0.118181089503708,-0.00250402749483225,,
0.191992389188975,-0.122062696342536,-0.00259523519620775,,
0.193931706251489,-0.126001859972825,-0.00269665755838977,,
0.195871023314004,-0.129866615032945,-0.00280206864568378,,
0.197810340376519,-0.133878448941042,-0.00288168626380036,,
0.199749657439034,-0.13756208359448,-0.00300863775615756,,
0.201688974501549,-0.141451223033533,-0.00305866659876664,,
0.203628291564064,-0.145242390383767,-0.00317119334815441,,
0.205567608626579,-0.148876628562654,-0.00326885049137315,,
0.207506925689094,-0.152590007329799,-0.00336363429112474,,
0.209446242751609,-0.156170648160935,-0.00343501871640495,,
0.211385559814123,-0.15988059862926,-0.00354135606475658,,
0.213324876876638,-0.163396777785396,-0.00362530626359803,,
0.215264193939153,-0.166995042969621,-0.00372639981385037,,
0.217203511001668,-0.170388141369523,-0.00381709388090368,,
0.219142828064183,-0.173944542679423,-0.00391132751167422,,
0.221082145126698,-0.177320885872415,-0.00399172095401745,,
0.223021462189213,-0.180854061664956,-0.00407149545625751,,
0.224960779251728,-0.184095638914185,-0.00413230632143469,,
0.226900096314243,-0.187450494882178,-0.00423303882329273,,
0.228839413376758,-0.190689706122362,-0.00431931434571808,,
0.230778730439272,-0.193888550351087,-0.00439171099595903,,
0.232718047501787,-0.19703891553734,-0.00448049451526211,,
0.234657364564302,-0.200215355108986,-0.00458861991280202,,
0.236596681626817,-0.203142639442433,-0.00465312722582034,,
0.238535998689332,-0.206333709641439,-0.00471837382840645,,
0.240475315751847,-0.209229752998313,-0.00478272425730086,,
0.242414632814362,-0.212185670869793,-0.00488495682927148,,
0.244353949876877,-0.215091661121836,-0.0049351232141257,,
0.246293266939392,-0.217839901342251,-0.00501180301584725,,
0.248232584001906,-0.220598716174521,-0.005089239299918,,
0.250171901064421,-0.223197125250725,-0.00517154114091412,,
0.252111218126936,-0.226004322553667,-0.00523814597317207,,
0.254050535189451,-0.228540249676726,-0.00528143739486175,,
0.255989852251966,-0.231419248111297,-0.00534960462106149,,
0.257929169314481,-0.233812104115987,-0.00544107236324454,,
0.259868486376996,-0.236138760153317,-0.00550733333988918,,
0.261807803439511,-0.238845812501992,-0.00555481980005901,,
0.263747120502026,-0.240929638753876,-0.00561260473584069,,
0.265686437564541,-0.243216603782331,-0.00566452693341901,,
0.267625754627055,-0.245303182330451,-0.0057433364908448,,
0.26956507168957,-0.247512213918121,-0.00577634662970272,,
0.271504388752085,-0.249700096282082,-0.00583684802482809,,
0.2734437058146,-0.251890972371774,-0.00588459452580459,,
0.275383022877115,-0.253753021490122,-0.0059695096694603,,
0.27732233993963,-0.255660507639312,-0.00602612549615777,,
0.279261657002145,-0.257711885767152,-0.00607755125219489,,
0.28120097406466,-0.259551771657916,-0.00613395861642685,,
0.283140291127175,-0.260958291606269,-0.00616673020545289,,
0.285079608189689,-0.262610973067091,-0.00621500538443476,,
0.287018925252204,-0.264520004365045,-0.00625965503579629,,
0.288958242314719,-0.266215611989968,-0.00630985795530936,,
0.290897559377234,-0.267537486757592,-0.00635075743139035,,
0.292836876439749,-0.269132659712853,-0.00636624812676034,,
0.294776193502264,-0.270330150004973,-0.00643620770034392,,
0.296715510564779,-0.271888239389898,-0.0064601916293574,,
0.298654827627294,-0.27311957809713,-0.00651281658184555,,
0.300594144689809,-0.273991042000041,-0.00652947853539798,,
0.302533461752323,-0.275125374336431,-0.0065481477460918,,
0.304472778814838,-0.276444496807819,-0.00658767609791555,,
0.306412095877353,-0.277440345186234,-0.00664013127169394,,
0.308351412939868,-0.278318569114987,-0.00664147230858525,,
0.310290730002383,-0.279112968723292,-0.00670936874848982,,
0.312230047064898,-0.279955461086877,-0.00672318959503926,,
0.314169364127413,-0.280737692648665,-0.00674249708771457,,
0.316108681189928,-0.281432623305286,-0.00674414759465769,,
0.318047998252443,-0.281812923044832,-0.00677518056374016,,
0.319987315314958,-0.282497230803699,-0.00676746100522596,,
0.321926632377472,-0.282930065601222,-0.0068125060905424,,
0.323865949439987,-0.283256478277623,-0.006847166736343,,
0.325805266502502,-0.283379317604363,-0.00682627750784714,,
0.327744583565017,-0.283928424846378,-0.00686822789264552,,
0.329683900627532,-0.284314325750194,-0.00689090517032964,,
0.331623217690047,-0.284154016565926,-0.00688067546583993,,
0.333562534752562,-0.283950829503457,-0.00688126002038203,,
0.335501851815077,-0.284280091047891,-0.00687703059634126,,
0.337441168877592,-0.284188154696431,-0.00689439530480263,,
0.339380485940107,-0.284176228079409,-0.00688299649122825,,
0.341319803002621,-0.28389829444548,-0.00689195392994968,,
0.343259120065136,-0.283630597422112,-0.00689515178715139,,
0.345198437127651,-0.283279848652679,-0.00688268702117645,,
0.347137754190166,-0.282876323395773,-0.00691650522072518,,
0.349077071252681,-0.282285159135837,-0.00690737585419754,,
0.351016388315196,-0.281849427184382,-0.00688758696366332,,
0.352955705377711,-0.281103120331357,-0.00689420618421543,,
0.354895022440226,-0.280530063283499,-0.00684453624090287,,
0.356834339502741,-0.27992740697963,-0.00685731047692961,,
0.358773656565255,-0.27909674466127,-0.0068406678652555,,
0.36071297362777,-0.278070765881956,-0.00685547084939975,,
0.362652290690285,-0.27733141219837,-0.00680499284539593,,
0.3645916077528,-0.276178344933216,-0.00678634082748308,,
0.366530924815315,-0.275205142641374,-0.00674932262163486,,
0.36847024187783,-0.274100506132792,-0.00671308024001371,,
0.370409558940345,-0.272782880524269,-0.0067282098869903,,
0.37234887600286,-0.271547292657936,-0.00670116564301981,,
0.374288193065375,-0.27021904415166,-0.00667687224395408,,
0.376227510127889,-0.268812620775105,-0.00666325556167546,,
0.378166827190404,-0.267627105385906,-0.00662354238745966,,
0.380106144252919,-0.265886302159635,-0.00659577604670147,,
0.382045461315434,-0.264324398188699,-0.00655415017563765,,
0.383984778377949,-0.262839317082875,-0.0064932705393379,,
0.385924095440464,-0.261150614341491,-0.00646422978371408,,
0.387863412502979,-0.259515798663253,-0.00647203530613139,,
0.389802729565494,-0.257679775644399,-0.00640794061984895,,
0.391742046628009,-0.255657996772571,-0.00637243967689383,,
0.393681363690524,-0.253458863794171,-0.00633267277523863,,
0.395620680753038,-0.251697587346777,-0.00630127875776232,,
0.397559997815553,-0.249508304691748,-0.00623556795009828,,
0.399499314878068,-0.247280972748404,-0.00620316170766122,,
0.401438631940583,-0.245139203417869,-0.00611771143870765,,
0.403377949003098,-0.243370780657442,-0.00610371651525421,,
0.405317266065613,-0.240733791148036,-0.00604532983214945,,
0.407256583128128,-0.238272755454134,-0.00600472263333973,,
0.409195900190643,-0.236036200904105,-0.00594640257225976,,
0.411135217253158,-0.233451456737283,-0.0059022687043182,,
0.413074534315672,-0.23106135302883,-0.00584498235917552,,
0.415013851378187,-0.228491577490659,-0.00579321489662288,,
0.416953168440702,-0.225938605445297,-0.00572612866650646,,
0.418892485503217,-0.223233098245387,-0.0056566354470986,,
0.420831802565732,-0.220405186291826,-0.00559015311340261,,
0.422771119628247,-0.217730147494107,-0.00553152358227127,,
0.424710436690762,-0.214943326840489,-0.00548544907921311,,
0.426649753753277,-0.212060513819907,-0.00541603967461057,,
0.428589070815792,-0.208881080522531,-0.00535099938539219,,
0.430528387878307,-0.205859542114478,-0.00529747825921278,,
0.432467704940821,-0.202897733363335,-0.0052031049370993,,
0.434407022003336,-0.19986170918562,-0.00514490952367952,,
0.436346339065851,-0.196891353830376,-0.00505456146133687,,
0.438285656128366,-0.193568318269742,-0.00498886784645336,,
0.440224973190881,-0.190409841052478,-0.00492541144215286,,
0.442164290253396,-0.187183763576788,-0.0048238493886279,,
0.444103607315911,-0.183814373553234,-0.00477141355672739,,
0.446042924378426,-0.180398387637265,-0.00468010269866825,,
0.447982241440941,-0.17711924395871,-0.00463497164944826,,
0.449921558503455,-0.173668975054539,-0.00452254805674457,,
0.45186087556597,-0.170117160905032,-0.0044622701677679,,
0.453800192628485,-0.166667278288052,-0.00436882955400453,,
0.455739509691,-0.163040620995288,-0.00427502359365262,,
0.457678826753515,-0.159502858042354,-0.00423334829334454,,
0.45961814381603,-0.155887547935826,-0.00411985874824028,,
0.461557460878545,-0.152277500992275,-0.00405060622776121,,
0.46349677794106,-0.148528583803558,-0.00396495179453771,,
0.465436095003575,-0.144940941517085,-0.00388137983687065,,
0.46737541206609,-0.141138282122919,-0.00377265054290987,,
0.469314729128604,-0.137317177515381,-0.00367822564245435,,
0.471254046191119,-0.13339790767543,-0.00358395977522008,,
0.473193363253634,-0.129491916457669,-0.00349703307622784,,
0.475132680316149,-0.125481144839348,-0.00340018614279725,,
0.477071997378664,-0.121702145535631,-0.00332828593409795,,
0.479011314441179,-0.117783213696971,-0.00323572000305061,,
0.480950631503694,-0.113843470635896,-0.00310868254678986,,
0.482889948566209,-0.109842501055047,-0.00301903723935659,,
0.484829265628724,-0.105743607671277,-0.00293663439077418,,
0.486768582691238,-0.101746694105933,-0.00284798841371625,,
0.488707899753753,-0.0975698189954795,-0.00273928061073159,,
0.490647216816268,-0.0935990763873263,-0.00263651721165825,,
0.492586533878783,-0.0893914914451873,-0.00254931327907792,,
0.494525850941298,-0.0852095946012502,-0.00246685885215348,,
0.496465168003813,-0.0810963603055145,-0.00235517454901757,,
0.498404485066328,-0.0768972253956788,-0.00224930140574342,,
0.500343802128843,-0.0726569509000009,-0.00217401421925478,,
0.502283119191358,-0.0684363287651654,-0.00203691898631098,,
0.504222436253873,-0.0642397530079701,-0.00194517615963763,,
0.506161753316387,-0.0599397971412816,-0.00183799851413102,,
0.508101070378902,-0.0556523473224021,-0.00173798810906023,,
0.510040387441417,-0.0513442794247025,-0.00162752449335102,,
0.511979704503932,-0.0470712188036879,-0.00153982626832683,,
0.513919021566447,-0.0427235081830113,-0.00143101101046295,,
0.515858338628962,-0.0383731901237954,-0.00134229626228244,,
0.517797655691477,-0.0341157258481177,-0.00124593072671031,,
0.519736972753992,-0.0297721195288455,-0.00111628211688775,,
0.521676289816506,-0.0254124822911466,-0.00102185721643222,,
0.523615606879021,-0.0210963023624359,-0.000905253628931568,,
0.525554923941536,-0.0167022855647374,-0.000803216624841063,,
0.527494241004051,-0.0123760621690605,-0.000714037671583068,,
0.529433558066566,-0.00795505355389044,-0.000604124224854896,,
0.531372875129081,-0.00364635793950549,-0.000499678082374722,,
0.533312192191596,0.000779913838642046,-0.00037855494265937,,
0.535251509254111,0.00498310476398335,-0.000256260544762021,,
0.537190826316626,0.00949706373448936,-0.000182041459771298,,
0.539130143379141,0.0138651992903904,-8.26843803656274E-05,,
0.541069460441655,0.0182202010817973,4.33730873976579E-05,,
0.54300877750417,0.0225785104572771,0.000143675769739726,,
0.544948094566685,0.0269083552953697,0.000240260513264978,,
0.5468874116292,0.0312738109838831,0.000346292689760386,,
0.548826728691715,0.0355948436454308,0.000439064934175448,,
0.55076604575423,0.0399086817080461,0.000561288411852878,,
0.552705362816745,0.0441910615075437,0.00068333996172365,,
0.55464467987926,0.04851129745176,0.000784192813046314,,
0.556583996941775,0.0528419631501334,0.000861113313697537,,
0.55852331400429,0.0571094708927773,0.000977370896487528,,
0.560462631066804,0.0613930336967974,0.00105049179261352,,
0.562401948129319,0.06564255494211,0.00116717919491993,,
0.564341265191834,0.0698625493602601,0.00130032008831327,,
0.566280582254349,0.0740871792247023,0.00139243900706321,,
0.568219899316864,0.0782527071489205,0.00150353445746187,,
0.570159216379379,0.0824806204544862,0.00160701780422468,,
0.572098533441894,0.0866171768393789,0.00170098494689563,,
0.574037850504409,0.0907718887222489,0.00176673014012074,,
0.575977167566924,0.0948373682639964,0.00190495579839256,,
0.577916484629438,0.0989323987758559,0.00199357168808412,,
0.579855801691953,0.103130930111956,0.00213621589098478,,
0.581795118754468,0.10712439123553,0.00221612793546955,,
0.583734435816983,0.111086563096633,0.00231452221915918,,
0.585673752879498,0.115049652389814,0.0024191574822261,,
0.587613069942013,0.119062983160776,0.00252868838958475,,
0.589552387004528,0.12308693682949,0.00262355815323945,,
0.591491704067043,0.126979359709667,0.00270699471775915,,
0.593431021129558,0.130887451364028,0.00282704330868322,,
0.595370338192073,0.134819444538334,0.00288432965382635,,
0.597309655254587,0.138635768841882,0.00300102995071816,,
0.599248972317102,0.14230221371532,0.00309641549779283,,
0.601188289379617,0.146065809817296,0.00319514074250948,,
0.603127606442132,0.149792708636126,0.00329806962209656,,
0.605066923504647,0.153623687709983,0.00336343657414728,,
0.607006240567162,0.15721502386772,0.00345936799200786,,
0.608945557629677,0.160837238857787,0.00354880913517075,,
0.610884874692192,0.164295281791677,0.00366449505800404,,
0.612824191754707,0.167937583715677,0.00372976315156626,,
0.614763508817221,0.171436548948864,0.00382557421996177,,
0.616702825879736,0.174822573464581,0.00390456215248669,,
0.618642142942251,0.178194281211281,0.00401873940881758,,
0.620581460004766,0.181489504094161,0.00409913714935595,,
0.622520777067281,0.184932288684006,0.00420338987305335,,
0.624460094129796,0.188377197853402,0.00427823004724504,,
0.626399411192311,0.191444318149993,0.00434548820516811,,
0.628338728254826,0.194697846159195,0.00442380132105225,,
0.630278045317341,0.197783097810814,0.00452645941434371,,
0.632217362379855,0.20082938274204,0.00460418797568574,,
0.63415667944237,0.203806473980178,0.00466867809592308,,
0.636095996504885,0.206840759865533,0.00476114087028634,,
0.6380353135674,0.2097929597228,0.00482230848566223,,
0.639974630629915,0.212803295802314,0.00490378507318656,,
0.64191394769243,0.215497455815988,0.0049787971751849,,
0.643853264754945,0.21842454700584,0.00503400749206362,,
0.64579258181746,0.221171628364682,0.0051157806550548,,
0.647731898879975,0.223947101832064,0.00515678113872209,,
