Time domain (s),Current (AC) (A),Potential (AC) (V),Frequency (Hz),Column 5
0,0.0286436894671375,0.00154996904675331,19.953,0.4
0.000232479921565679,0.0177339648727391,0.00132203124027486,,
0.000464959843131359,0.00683464061743809,0.00110268798578517,,
0.000697439764697038,-0.00412136548594313,0.00084470273609405,,
0.000929919686262717,-0.0151689523530421,0.000624040024978623,,
0.0011623996078284,-0.0260930640831916,0.000368668237090919,,
0.00139487952939408,-0.0370236471354462,0.000126990667559834,,
0.00162735945095976,-0.047837110813533,-0.000110997781619382,,
0.00185983937252543,-0.0587515155605251,-0.00033185204836661,,
0.00209231929409111,-0.0695404228824101,-0.000568705898803312,,
0.00232479921565679,-0.0802876132885826,-0.000800062236558485,,
0.00255727913722247,-0.0909112129984825,-0.0010350634895202,,
0.00278975905878815,-0.101584734336049,-0.00129029462467134,,
0.00302223898035383,-0.11197397973829,-0.00152959181407697,,
0.00325471890191951,-0.122285107037979,-0.00175315866931802,,
0.00348719882348519,-0.132760964153036,-0.00201038439423096,,
0.00371967874505087,-0.142801740415856,-0.00223169812658464,,
0.00395215866661655,-0.153001410748219,-0.00246212213762842,,
0.00418463858818223,-0.162859372161574,-0.00267720964216966,,
0.00441711850974791,-0.172554106030764,-0.00289258916858381,,
0.00464959843131359,-0.182289690120741,-0.003117837158916,,
0.00488207835287927,-0.191798200140428,-0.0033050526492393,,
0.00511455827444495,-0.200986321936257,-0.00356329643205644,,
0.00534703819601063,-0.210086156409082,-0.0037756860831526,,
0.0055795181175763,-0.219336218002201,-0.00395944955345184,,
0.00581199803914198,-0.228041995182563,-0.00416668461663461,,
0.00604447796070766,-0.236595754073119,-0.00437578165414187,,
0.00627695788227334,-0.244701951704523,-0.00458205090186636,,
0.00650943780383902,-0.253082082711817,-0.00480496405676911,,
0.0067419177254047,-0.261081850206458,-0.00497939354354937,,
0.00697439764697038,-0.268561485186913,-0.00516298823056482,,
0.00720687756853606,-0.276446097815883,-0.00536940616832471,,
0.00743935749010174,-0.283569405622932,-0.00551528850775052,,
0.00767183741166742,-0.290691326718101,-0.00570785014161901,,
0.0079043173332331,-0.297587676014183,-0.00586774015407254,,
0.00813679725479878,-0.303963026101153,-0.00604043492376682,,
0.00836927717636446,-0.310188957983092,-0.00619107668389329,,
0.00860175709793014,-0.316101666319218,-0.00634721327760124,,
0.00883423701949581,-0.32215974828406,-0.00649204540992621,,
0.0090667169410615,-0.327692728683812,-0.00663145504436313,,
0.00929919686262717,-0.33275746270554,-0.00674637770711239,,
0.00953167678419285,-0.337481758960817,-0.00691171031070148,,
0.00976415670575853,-0.342290182403458,-0.00700985109263552,,
0.00999663662732421,-0.346565646247026,-0.0071167471725424,,
0.0102291165488899,-0.35070839020778,-0.00727610136504619,,
0.0104615964704556,-0.354406577451788,-0.00734784631672225,,
0.0106940763920213,-0.357860876743964,-0.0074354421620515,,
0.0109265563135869,-0.361053318609535,-0.00755784487129407,,
0.0111590362351526,-0.363773353961443,-0.00764403686835591,,
0.0113915161567183,-0.366322534853847,-0.00773642294403309,,
0.011623996078284,-0.368348347571012,-0.00779293051589747,,
0.0118564759998496,-0.370556224002041,-0.00785338172258987,,
0.0120889559214153,-0.372219353783019,-0.0079139186604742,,
0.012321435842981,-0.37321015942102,-0.00798465761019473,,
0.0125539157645467,-0.374307972992399,-0.00801798561104805,,
0.0127863956861124,-0.374934535643349,-0.00808127666347236,,
0.013018875607678,-0.375215807036269,-0.00809226097243521,,
0.0132513555292437,-0.375302014291453,-0.00811076819348777,,
0.0134838354508094,-0.3750433925259,-0.00814256374928535,,
0.0137163153723751,-0.374140180854963,-0.00814629305613357,,
0.0139487952939408,-0.373136432572753,-0.00815347304345559,,
0.0141812752155064,-0.372011347001074,-0.00815714876830853,,
0.0144137551370721,-0.370404841288514,-0.00816377150288305,,
0.0146462350586378,-0.36850533491172,-0.00812906108656053,,
0.0148787149802035,-0.366522510262823,-0.00812960762290871,,
0.0151111949017692,-0.363761798029113,-0.00807930484605857,,
0.0153436748233348,-0.360741308436616,-0.00801837140141171,,
0.0155761547449005,-0.3576949335557,-0.00797778839844332,,
0.0158086346664662,-0.354560502470427,-0.00793693748550073,,
0.0160411145880319,-0.350403602492568,-0.00788704193181156,,
0.0162735945095976,-0.346427437296356,-0.00780893009958694,,
0.0165060744311632,-0.34199111487475,-0.00776464993896786,,
0.0167385543527289,-0.337459109333449,-0.00767184592373038,,
0.0169710342742946,-0.332707309959226,-0.00760454827763457,,
0.0172035141958603,-0.327131110372559,-0.00752361669292601,,
0.017435994117426,-0.321917767061063,-0.00739834198875444,,
0.0176684740389916,-0.31619619384568,-0.00730602021147142,,
0.0179009539605573,-0.309950674658441,-0.00720336782556341,,
0.018133433882123,-0.303962332745213,-0.00708540170550176,,
0.0183659138036887,-0.297306173502617,-0.00698248140961955,,
0.0185983937252543,-0.290410922020106,-0.00684619024728805,,
0.01883087364682,-0.283672253420671,-0.00669381377007516,,
0.0190633535683857,-0.275884710623276,-0.00657240902548839,,
0.0192958334899514,-0.26871148118856,-0.00645214825649321,,
0.0195283134115171,-0.260814677050981,-0.00628671920531287,,
0.0197607933330827,-0.252860208811075,-0.00613226374669651,,
0.0199932732546484,-0.244627242602008,-0.00595526098460875,,
0.0202257531762141,-0.236189620831371,-0.00577844977815323,,
0.0204582330977798,-0.227765808399869,-0.00565788091268749,,
0.0206907130193455,-0.21885757128508,-0.00548520623624116,,
0.0209231929409111,-0.20986289579646,-0.00528533601826275,,
0.0211556728624768,-0.200697654746645,-0.00510032676658101,,
0.0213881527840425,-0.191436730577136,-0.00493344296423803,,
0.0216206327056082,-0.182054411338496,-0.00470763638160854,,
0.0218531126271739,-0.172359041893028,-0.00451379815671071,,
0.0220855925487395,-0.162622244430156,-0.0043212458996913,,
0.0223180724703052,-0.152792710610334,-0.00411112008788139,,
0.0225505523918709,-0.142778397432549,-0.00390939325377815,,
0.0227830323134366,-0.132568500100074,-0.00368976065651561,,
0.0230155122350023,-0.122213922494824,-0.00347097465477342,,
0.0232479921565679,-0.111823059262057,-0.00328299830012169,,
0.0234804720781336,-0.101378114265983,-0.00307257242914005,,
0.0237129519996993,-0.0908534333368309,-0.00285703215674138,,
0.023945431921265,-0.0801408529479877,-0.00263669093759544,,
0.0241779118428307,-0.0694754207630521,-0.00238853262577665,,
0.0244103917643963,-0.0585185479647461,-0.00214179825547278,,
0.024642871685962,-0.0477555837109427,-0.00194116449406678,,
0.0248753516075277,-0.0369055455070304,-0.00166743819381177,,
0.0251078315290934,-0.0259601708613931,-0.00146364309470393,,
0.025340311450659,-0.0150472106059422,-0.00120544217748275,,
0.0255727913722247,-0.00418931436804535,-0.000983912777599461,,
0.0258052712937904,0.00681199099007068,-0.000755910672727289,,
0.0260377512153561,0.0178026071107812,-0.000520855837771173,,
0.0262702311369218,0.0287493106886365,-0.000261918168119823,,
0.0265027110584874,0.0396897740630335,-3.3668246520957E-05,,
0.0267351909800531,0.0505005509868535,0.000224564819896855,,
0.0269676709016188,0.0613160080632673,0.000465050190040284,,
0.0272001508231845,0.0721277383515047,0.000673217579935326,,
0.0274326307447502,0.082837978664051,0.000917392070430623,,
0.0276651106663158,0.0935087554676894,0.00116740297972484,,
0.0278975905878815,0.104030200735789,0.00139154852051115,,
0.0281300705094472,0.114575480114321,0.00160584435107758,,
0.0283625504310129,0.124938117982371,0.00187928264810999,,
0.0285950303525786,0.135178985213491,0.00209362268382218,,
0.0288275102741442,0.145252089197006,0.00230690179603421,,
0.0290599901957099,0.15530941933289,0.00254379583296682,,
0.0292924701172756,0.165279184391541,0.0027794507862664,,
0.0295249500388413,0.174813030792862,0.00301732269460686,,
0.029757429960407,0.184466914441264,0.00321700135695346,,
0.0299899098819726,0.193882196976876,0.00343222951423172,,
0.0302223898035383,0.203423930302012,0.00364259242636944,,
0.030454869725104,0.212315295755599,0.00387957487359358,,
0.0306873496466697,0.221321758295195,0.00407957770700973,,
0.0309198295682354,0.229960048830748,0.00429944338595023,,
0.031152309489801,0.238434707364503,0.00448440575338616,,
0.0313847894113667,0.246911214847432,0.00468441126590191,,
0.0316172693329324,0.254940045511884,0.00485133793384085,,
0.0318497492544981,0.26286441054807,0.00504316147572892,,
0.0320822291760638,0.270481156665624,0.00524318306284277,,
0.0323147090976294,0.278043358782578,0.00543382780084256,,
0.0325471890191951,0.2852195927597,0.00561352037907614,,
0.0327796689407608,0.292053077783905,0.00578277518469505,,
0.0330121488623265,0.298866224367209,0.00593456225996336,,
0.0332446287838922,0.305149878131138,0.00611404051021713,,
0.0334771087054578,0.311351715894168,0.0062685388344299,,
0.0337095886270235,0.317041163617672,0.00642908120767149,,
0.0339420685485892,0.322944396089288,0.00658749905481359,,
0.0341745484701549,0.328329460555212,0.00671940988905906,,
0.0344070283917205,0.333396505763406,0.00683817973904466,,
0.0346395083132862,0.338249535104842,0.00695636018708612,,
0.0348719882348519,0.343014046004629,0.00710561551309352,,
0.0351044681564176,0.347052150998132,0.00720269805062701,,
0.0353369480779833,0.350921770498259,0.00732111158034643,,
0.0355694279995489,0.354782145252523,0.0074267565206716,,
0.0358019079211146,0.358092457627863,0.00750980861283024,,
0.0360343878426803,0.361038758134799,0.00762065904396358,,
0.036266867764246,0.363830902504448,0.00768243908413035,,
0.0364993476858117,0.366530830534101,0.00781035002245334,,
0.0367318276073773,0.368551038624086,0.00786864723294878,,
0.036964307528943,0.370128192268527,0.00791355698200835,,
0.0371967874505087,0.371752031879582,0.00797675158684186,,
0.0374292673720744,0.372970951621783,0.00803261081656759,,
0.0376617472936401,0.373954361463092,0.00807125415131882,,
0.0378942272152057,0.37427862092428,0.00811206219866589,,
0.0381267071367714,0.374734618014034,0.0081303524126386,,
0.0383591870583371,0.374553883232388,0.00817454684206576,,
0.0385916669799028,0.374084019023838,0.00819110367850273,,
0.0388241469014685,0.373605603425363,0.00821321160961519,,
0.0390566268230341,0.372485371345263,0.00819803718864787,,
0.0392891067445998,0.371039261973448,0.00821190420893858,,
0.0395215866661655,0.369437840871114,0.0082231671442754,,
0.0397540665877312,0.367380422679026,0.00816992003680284,,
0.0399865465092968,0.365265455943932,0.00813879693504127,,
0.0402190264308625,0.362887476189001,0.00808858256848266,,
0.0404515063524282,0.359711443747339,0.00807300896165319,,
0.0406839862739939,0.356756822969126,0.00801938142201664,,
0.0409164661955596,0.353064702589592,0.00796065555556158,,
0.0411489461171252,0.349246391429011,0.00792907432774337,,
0.0413814260386909,0.345291951385579,0.00785261550006267,,
0.0416139059602566,0.341003544897802,0.00779544351146066,,
0.0418463858818223,0.336246892032,0.00770746187576776,,
0.042078865803388,0.331185855908617,0.00765264749494321,,
0.0423113457249536,0.325957952122386,0.00753050197927596,,
0.0425438256465193,0.320664179521871,0.00743545823665004,,
0.042776305568085,0.31455294026831,0.0073305152204588,,
0.0430087854896507,0.308700785017595,0.00722823522941596,,
0.0432412654112164,0.30244139871156,0.00710941179743507,,
0.043473745332782,0.29586769104614,0.00698969890433832,,
0.0437062252543477,0.288879125410062,0.00687112194953432,,
0.0439387051759134,0.281914596113231,0.00671647359573591,,
0.0441711850974791,0.274938279765424,0.00660221267062466,,
0.0444036650190448,0.267096655204723,0.00644683828079495,,
0.0446361449406104,0.259470433222658,0.0062738863175249,,
0.0448686248621761,0.251638053407821,0.00614613612518689,,
0.0451011047837418,0.243137740704292,0.00598332455445938,,
0.0453335847053075,0.234865282096486,0.00580727287278204,,
0.0455660646268732,0.226163693941594,0.0056187928473781,,
0.0457985445484388,0.217296133708608,0.00544936657937534,,
0.0460310244700045,0.208331041406754,0.00529390377925409,,
0.0462635043915702,0.199229155755941,0.00508468752180802,,
0.0464959843131359,0.189875524119311,0.00489404278380867,,
0.0467284642347015,0.180385301362537,0.00470410532814247,,
0.0469609441562672,0.17063189224694,0.00448684105505626,,
0.0471934240778329,0.160937389496397,0.00430401928831792,,
0.0474259039993986,0.151013819277237,0.00407054110356286,,
0.0476583839209643,0.140898016123761,0.00387379069724014,,
0.0478908638425299,0.130732724690081,0.00368377554768085,,
0.0481233437640956,0.120367053389794,0.00347662755523981,,
0.0483558236856613,0.109996066360635,0.00325074729736707,,
0.048588303607227,0.099489672694395,0.00304260267982004,,
0.0488207835287927,0.088839898797767,0.0028070026480651,,
0.0490532634503583,0.0782052342826609,0.00259191380397361,,
0.049285743371924,0.0674380810033877,0.00234740978420955,,
0.0495182232934897,0.0566564250290401,0.00214775121511135,,
0.0497507032150554,0.0458453592069117,0.00190857190609428,,
0.0499831831366211,0.0349456016041483,0.00168156642632811,,
0.0502156630581867,0.0240342880690546,0.00142476935737434,,
0.0504481429797524,0.0131629580598237,0.00120983054286894,,
0.0506806229013181,0.00222960158380986,0.00097008326470549,,
0.0509131028228838,-0.00871895094321831,0.000701496817315572,,
0.0511455827444495,-0.0197195629453945,0.000472177934917273,,
0.0513780626660151,-0.0306812314556176,0.00022890630103678,,
0.0516105425875808,-0.0416251616097136,-4.78755124788677E-06,,
0.0518430225091465,-0.0524153978638166,-0.000230807122307386,,
0.0520755024307122,-0.0633042640003587,-0.000469395689830066,,
0.0523079823522779,-0.0740411118470956,-0.000736740374487344,,
0.0525404622738435,-0.08479396466011,-0.00095153853625618,,
0.0527729421954092,-0.095396821471477,-0.00116856704856483,,
0.0530054221169749,-0.105970672892695,-0.00143042225784074,,
0.0532379020385406,-0.116383261278243,-0.00163969209728165,,
0.0534703819601062,-0.126735296578381,-0.00188670509395861,,
0.0537028618816719,-0.136895734520482,-0.00211184725985092,,
0.0539353418032376,-0.147136370632955,-0.00231724580015724,,
0.0541678217248033,-0.157125318539275,-0.00257221036488398,,
0.054400301646369,-0.16700078719011,-0.00282162517448414,,
0.0546327815679346,-0.17664305712652,-0.00301591214858998,,
0.0548652614895003,-0.186452945861382,-0.00323054018752478,,
0.055097741411066,-0.195582999097251,-0.00345758987243716,,
0.0553302213326317,-0.204873275334879,-0.00367905363437648,,
0.0555627012541974,-0.213882915755867,-0.00388791759020579,,
0.055795181175763,-0.222909081160086,-0.00408304044343266,,
0.0560276610973287,-0.231635196781349,-0.00431043305311229,,
0.0562601410188944,-0.24022865029946,-0.00449169156514806,,
0.0564926209404601,-0.248487964034241,-0.00470244830494826,,
0.0567251008620258,-0.256252337187314,-0.00491298401901963,,
0.0569575807835914,-0.264502810633861,-0.00509798121475269,,
0.0571900607051571,-0.271853539189171,-0.00530151778073495,,
0.0574225406267228,-0.279357730525827,-0.00547745827977275,,
0.0576550205482885,-0.286726486335572,-0.0056184874300067,,
0.0578875004698542,-0.293419509002302,-0.00581571069743525,,
0.0581199803914198,-0.300120967499634,-0.00595612901292686,,
0.0583524603129855,-0.306944572201696,-0.0061158676562445,,
0.0585849402345512,-0.3126298020099,-0.00628674063811063,,
0.0588174201561169,-0.318830484179698,-0.00643639514998062,,
0.0590499000776826,-0.324525709869367,-0.00657994265397699,,
0.0592823799992482,-0.329654694874852,-0.00670503383981602,,
0.0595148599208139,-0.335117819663667,-0.00685267232912601,,
0.0597473398423796,-0.339246638725963,-0.00697055405754554,,
0.0599798197639453,-0.343975499574511,-0.00708573391387057,,
0.060212299685511,-0.348406044029951,-0.00720397866030575,,
0.0604447796070766,-0.352267401038462,-0.00730502492591523,,
0.0606772595286423,-0.35592502695999,-0.00741231617303484,,
0.060909739450208,-0.35903449723143,-0.00752093759317907,,
0.0611422193717737,-0.362362374623912,-0.00759736695076274,,
0.0613746992933394,-0.364713544615837,-0.00769136048628782,,
0.061607179214905,-0.367256831982753,-0.00778060665706137,,
0.0618396591364707,-0.369292005005105,-0.00783656769257757,,
0.0620721390580364,-0.370946352277512,-0.00790207703959211,,
0.0623046189796021,-0.372765949382243,-0.00796351415499119,,
0.0625370989011678,-0.373918538072868,-0.00801989313006812,,
0.0627695788227334,-0.374517135367578,-0.00807291787226161,,
0.0630020587442991,-0.37511966167928,-0.0080851452835069,,
0.0632345386658648,-0.375075980255072,-0.00812663918038892,,
0.0634670185874305,-0.374830763371023,-0.0081464752349163,,
0.0636994985089961,-0.374439941739612,-0.00815557345765727,,
0.0639319784305618,-0.373762301867762,-0.0081805641000976,,
0.0641644583521275,-0.373005446079789,-0.00818583656839955,,
0.0643969382736932,-0.37149693467339,-0.00814922934945628,,
0.0646294181952589,-0.369615571110354,-0.00819274864574693,,
0.0648618981168245,-0.367350897271922,-0.00816044941919669,,
0.0650943780383902,-0.365304052757916,-0.00810355605696866,,
0.0653268579599559,-0.362680162762996,-0.00804694132111416,,
0.0655593378815216,-0.359715603882978,-0.00805368193607769,,
0.0657918178030873,-0.3564214698129,-0.00798203209244264,,
0.0660242977246529,-0.35274206095893,-0.00794461042717609,,
0.0662567776462186,-0.349024517528269,-0.00787612192124287,,
0.0664892575677843,-0.344809375651466,-0.00780220020102229,,
0.06672173748935,-0.34005642068401,-0.00774719292501613,,
0.0669542174109157,-0.335567172092331,-0.00766242754856972,,
0.0671866973324813,-0.33046384125662,-0.00757673788271029,,
0.067419177254047,-0.325244488860312,-0.00752873779209251,,
0.0676516571756127,-0.319539556187485,-0.00742104869866056,,
0.0678841370971784,-0.313698494631807,-0.00731687592364638,,
0.0681166170187441,-0.307684151870836,-0.00718572863282896,,
0.0683490969403097,-0.301018401204405,-0.00706440827988386,,
0.0685815768618754,-0.294450240386504,-0.00696587099118773,,
0.0688140567834411,-0.287425793580541,-0.00681138204382448,,
0.0690465367050068,-0.280371648028489,-0.00669013804522223,,
0.0692790166265724,-0.272998269845812,-0.00652146058559877,,
0.0695114965481381,-0.265636678714111,-0.00638325252739813,,
0.0697439764697038,-0.257697926542174,-0.00622780044367577,,
0.0699764563912695,-0.249539033859344,-0.00609088773020305,,
0.0702089363128352,-0.241206744411898,-0.00591629615788802,,
0.0704414162344008,-0.232833373625017,-0.00574981689960685,,
0.0706738961559665,-0.224070452359282,-0.00557441088096855,,
0.0709063760775322,-0.215343238924448,-0.00542205583655386,,
0.0711388559990979,-0.206329553927145,-0.00523496894301845,,
0.0713713359206636,-0.196856925077344,-0.0050617477302235,,
0.0716038158422292,-0.187588605111143,-0.00485417242137265,,
0.0718362957637949,-0.178060738904803,-0.00464748389453806,,
0.0720687756853606,-0.168148695728142,-0.00447248777816123,,
0.0723012556069263,-0.158598468792743,-0.00427148965918933,,
0.072533735528492,-0.148471023037444,-0.0040549098960887,,
0.0727662154500576,-0.138440704893383,-0.00384477336787947,,
0.0729986953716233,-0.128190881814707,-0.00365544674695562,,
0.073231175293189,-0.117776675598632,-0.0034390826513846,,
0.0734636552147547,-0.107357095874024,-0.00322570843113112,,
0.0736961351363204,-0.096835939504232,-0.00298707431891287,,
0.073928615057886,-0.0863845231860537,-0.00277898462291049,,
0.0741610949794517,-0.0756129497626643,-0.00255859116131951,,
0.0743935749010174,-0.0648419541358913,-0.00233579722635557,,
0.0746260548225831,-0.054054260186901,-0.00211492152681059,,
0.0748585347441487,-0.0431597894231787,-0.00185346282429721,,
0.0750910146657144,-0.0322868126935908,-0.0016214956517997,,
0.0753234945872801,-0.0213764525229143,-0.00138285216273193,,
0.0755559745088458,-0.0104493362503588,-0.0011543892527035,,
0.0757884544304115,0.000440049903138173,-0.000920116714873132,,
0.0760209343519772,0.0114144877185862,-0.000678389581997063,,
0.0762534142735428,0.0224131641020971,-0.000424784660391975,,
0.0764858941951085,0.0333097727133006,-0.000207863312073453,,
