Time domain (s),Current (AC) (A),Potential (AC) (V),Frequency (Hz),Column 5
0,0.0684672558833953,0.00158263496687772,501.19,0.3
6.23516031844211E-05,0.0142891736254695,0.000713917999574765,,
0.000124703206368842,-0.040805857852108,-0.000163822920163259,,
0.000187054809553263,-0.0951772768491326,-0.00108135147194277,,
0.000249406412737684,-0.14540846973295,-0.00192437480201813,,
0.000311758015922105,-0.189824446957457,-0.00271081880889223,,
0.000374109619106527,-0.226858910534921,-0.00337144864468231,,
0.000436461222290948,-0.255340444558614,-0.00392020617280631,,
0.000498812825475369,-0.273871944830463,-0.00428824063950284,,
0.00056116442865979,-0.282005945925588,-0.00452961743430391,,
0.000623516031844211,-0.279256788273093,-0.00456500229335832,,
0.000685867635028632,-0.26544195117523,-0.00445501280000427,,
0.000748219238213053,-0.241873652219848,-0.00414672680956008,,
0.000810570841397474,-0.208744310713965,-0.0036986441158251,,
0.000872922444581895,-0.167650886191102,-0.0030953301601957,,
0.000935274047766316,-0.120174983268936,-0.00238243641160674,,
0.000997625650950737,-0.068155184118961,-0.00160019334002603,,
0.00105997725413516,-0.0137731422241837,-0.000735056732418471,,
0.00112232885731958,0.0409852641093811,0.000151903952442467,,
0.001184680460504,0.0952882378447493,0.00106788558398296,,
0.00124703206368842,0.145495384350926,0.00193969789801507,,
0.00130938366687284,0.189940840116697,0.00270047236768445,,
0.00137173527005726,0.227014294557503,0.00336994389948408,,
0.00143408687324168,0.255078372842465,0.00390375037571955,,
0.00149643847642611,0.273361683594093,0.00429689706658376,,
0.00155879007961053,0.28134225624554,0.00454530203064873,,
0.00162114168279495,0.278786459475094,0.00460680830234228,,
0.00168349328597937,0.265315176547732,0.00446904353225763,,
0.00174584488916379,0.241540576089402,0.00414954048726779,,
0.00180819649234821,0.208878738656435,0.00370496735941073,,
0.00187054809553263,0.167850065523965,0.00312059602201176,,
0.00193289969871705,0.120416847336405,0.00239634513749243,,
0.00199525130190147,0.0684977001426366,0.00159868558232512,,
0.0020576029050859,0.0143304822119577,0.000746035799235045,,
0.00211995450827032,-0.0408554957561523,-0.000177806958621574,,
0.00218230611145474,-0.095210594119357,-0.00105796842443873,,
0.00224465771463916,-0.145335992598737,-0.00190930174376192,,
0.00230700931782358,-0.189928744499029,-0.00270262781350894,,
0.002369360921008,-0.227087737409693,-0.00336682746523476,,
0.00243171252419242,-0.255475983076758,-0.00388872853001221,,
0.00249406412737684,-0.273842297288554,-0.0042946166018889,,
0.00255641573056126,-0.282196723512046,-0.00452306072174347,,
0.00261876733374569,-0.279037328862703,-0.0045597650570679,,
0.00268111893693011,-0.26569496928534,-0.00445086307726061,,
0.00274347054011453,-0.241820537731084,-0.00415918652155112,,
0.00280582214329895,-0.208635329440202,-0.00369387833623858,,
0.00286817374648337,-0.167505255920093,-0.00309184620059266,,
0.00293052534966779,-0.120087344362476,-0.00238571552101252,,
0.00299287695285221,-0.0680747398114339,-0.00156881209732473,,
0.00305522855603663,-0.0137690862086781,-0.000719450461148963,,
0.00311758015922105,0.0410100830614032,0.000178868865893467,,
0.00317993176240548,0.0952463498274745,0.00106768073378616,,
0.0032422833655899,0.145480077720983,0.00193668539511593,,
0.00330463496877432,0.189857039939198,0.00268896761911241,,
0.00336698657195874,0.22675758257613,0.00339495369855358,,
0.00342933817514316,0.255175113640863,0.00393849357165621,,
0.00349168977832758,0.273665136325578,0.00430538931225666,,
0.003554041381512,0.281471421025032,0.00452664861269669,,
0.00361639298469642,0.278660988566865,0.00459059802424155,,
0.00367874458788084,0.265194003084503,0.00445909926018695,,
0.00374109619106526,0.241592362715947,0.00416958568155934,,
0.00380344779424969,0.208760269203543,0.00372608801723695,,
0.00386579939743411,0.167882248075565,0.00312576246448382,,
0.00392815100061853,0.120516895718876,0.00237084430045043,,
0.00399050260380295,0.0685153486386757,0.00158175230352864,,
0.00405285420698737,0.01430761883884,0.000680119223296582,,
0.00411520581017179,-0.0408041195597485,-0.000184472121286028,,
0.00417755741335621,-0.095229232476323,-0.00106268600397907,,
0.00423990901654063,-0.145512236129634,-0.00192573042832311,,
0.00430226061972505,-0.189960178619197,-0.00270730924301432,,
0.00436461222290948,-0.227208548728681,-0.00335508171643051,,
0.0044269638260939,-0.255544259337769,-0.00391239174028568,,
0.00448931542927832,-0.273978028950294,-0.00432958874804612,,
0.00455166703246274,-0.281973546087442,-0.00454276700945888,,
0.00461401863564716,-0.279022360234051,-0.00460609735165818,,
0.00467637023883158,-0.265378744933602,-0.00448497967259431,,
0.004738721842016,-0.241735216547771,-0.00419379716736046,,
0.00480107344520042,-0.208587864401607,-0.00370841968773306,,
0.00486342504838485,-0.167695260932169,-0.00312663759657594,,
0.00492577665156927,-0.120218247434329,-0.00237401797225489,,
0.00498812825475369,-0.0680661932073329,-0.00157043282388436,,
0.00505047985793811,-0.0137903802900824,-0.00070358963338446,,
0.00511283146112253,0.0410354814442119,0.000197764790328847,,
0.00517518306430695,0.0952636120363226,0.00107537466619068,,
0.00523753466749137,0.145539421090701,0.00191701676368705,,
0.00529988627067579,0.189956919321023,0.00268912426926304,,
0.00536223787386021,0.226741479228855,0.00340039729129238,,
0.00542458947704463,0.255047542296033,0.00390677492863034,,
0.00548694108022906,0.273523610355973,0.00429029366022871,,
0.00554929268341348,0.28140063389728,0.00453615908434957,,
0.0056116442865979,0.278785276470571,0.00457364968293028,,
0.00567399588978232,0.265343689371018,0.00444463020876196,,
0.00573634749296674,0.241636182169176,0.00414710939742813,,
0.00579869909615116,0.208820771434835,0.00372375332749009,,
0.00586105069933558,0.16786443057888,0.00312543410166777,,
0.00592340230252,0.120553158428931,0.00239697475059852,,
0.00598575390570442,0.0685318382731417,0.00156946129169944,,
0.00604810550888884,0.0143211871764241,0.000737629409894414,,
0.00611045711207327,-0.0407762103101983,-0.00016735507981247,,
0.00617280871525769,-0.0951677645270541,-0.00109447694707443,,
0.00623516031844211,-0.145452313329129,-0.00191484173659351,,
0.00629751192162653,-0.189798034570772,-0.00271772497178846,,
0.00635986352481095,-0.226925979648459,-0.00334761824049767,,
0.00642221512799537,-0.255505872048162,-0.00390862912416479,,
0.00648456673117979,-0.273815933187767,-0.00429001952246466,,
0.00654691833436421,-0.281939214813341,-0.00453552043373495,,
0.00660926993754864,-0.278952973397367,-0.00458220519116415,,
0.00667162154073306,-0.265552284454162,-0.00444913390059654,,
0.00673397314391748,-0.241699726412097,-0.00414967755614981,,
0.0067963247471019,-0.208505247228631,-0.00372888663243032,,
0.00685867635028632,-0.167593474257339,-0.00309166394416716,,
0.00692102795347074,-0.12013099481506,-0.00237923110852201,,
0.00698337955665516,-0.0681497760982869,-0.00158826382854516,,
0.00704573115983958,-0.0138194966871045,-0.000715677301267981,,
0.007108082763024,0.0410310149985659,0.000161834668249483,,
0.00717043436620842,0.0952748626507607,0.00106678300792185,,
0.00723278596939285,0.145465543665421,0.00193658899502314,,
0.00729513757257727,0.189802356158722,0.00269770086501753,,
0.00735748917576169,0.226744593669332,0.00339467353578371,,
0.00741984077894611,0.255187523116874,0.00391773441417742,,
0.00748219238213053,0.273588554889961,0.00429546010270077,,
0.00754454398531495,0.281367268341157,0.00454112971413334,,
0.00760689558849937,0.278726343530993,0.00460440131252593,,
0.00766924719168379,0.265289971308519,0.00444892603789659,,
0.00773159879486821,0.241601464607885,0.00415719826963779,,
0.00779395039805264,0.208809520820397,0.00370587412278311,,
0.00785630200123706,0.167883624223683,0.0030954235477858,,
0.00791865360442148,0.120574090366094,0.0023948208110256,,
0.0079810052076059,0.0685163143566532,0.00159396800278477,,
0.00804335681079032,0.0143025729624075,0.000700333117750418,,
0.00810570841397474,-0.0407793006077263,-0.000145943715456287,,
0.00816806001715916,-0.0951966394945818,-0.00108559759477922,,
0.00823041162034358,-0.145474235127219,-0.00193417296769827,,
0.00829276322352801,-0.189827150967794,-0.00269281759781759,,
0.00835511482671242,-0.22711062492576,-0.00334839245374274,,
0.00841746642989685,-0.255263476835806,-0.00391161752704061,,
0.00847981803308127,-0.273793238815296,-0.00431320976978311,,
0.00854216963626569,-0.282098027134744,-0.00454410907950065,,
0.00860452123945011,-0.278855822168829,-0.00457901193809107,,
0.00866687284263453,-0.265520464046803,-0.0044673294181079,,
0.00872922444581895,-0.241543618101032,-0.00416132841111239,,
0.00879157604900337,-0.208714856315651,-0.00370393105841327,,
0.00885392765218779,-0.167462040040599,-0.00311184319483804,,
0.00891627925537222,-0.120116798760791,-0.00239757122617235,,
0.00897863085855664,-0.0681499692418824,-0.00158471961888429,,
0.00904098246174106,-0.0137494821337346,-0.000709870701929738,,
0.00910333406492548,0.0410071859074707,0.000171319533627923,,
0.0091656856681099,0.0953124773659849,0.0010762573295402,,
0.00922803727129432,0.145520203302949,0.00190398768864775,,
0.00929038887447874,0.189646851421392,0.00271531496946897,,
0.00935274047766316,0.226811880069416,0.00335080848106806,,
0.00941509208084758,0.25499655238682,0.00392051495435375,,
0.00947744368403201,0.273569168101563,0.00430887477811126,,
0.00953979528721643,0.281617413440283,0.00454567859351096,,
0.00960214689040085,0.278613692528916,0.00459340266444075,,
0.00966449849358527,0.265209889145233,0.00446997439565333,,
0.00972685009676969,0.241623000118783,0.00417089310781771,,
0.00978920169995411,0.208761428065116,0.00370529270972364,,
0.00985155330313853,0.167848520375201,0.00310757899698411,,
0.00991390490632295,0.120485292598061,0.00238860300504173,,
0.00997625650950737,0.0685731227166806,0.0015920460259351,,
0.0100386081126918,0.0142620128073518,0.000703333570638343,,
0.0101009597158762,-0.0407511982145806,-0.000188900500547984,,
0.0101633113190606,-0.0951947080586268,-0.00109300082065378,,
0.0102256629222451,-0.145465881666713,-0.0019356972941651,,
0.0102880145254295,-0.189922950191164,-0.00270232656321889,,
0.0103503661286139,-0.227176583463625,-0.00337689374367267,,
0.0104127177317983,-0.255364104649063,-0.00389724487570842,,
0.0104750693349827,-0.273772282735184,-0.00430719681399605,,
0.0105374209381672,-0.281898702944184,-0.00456103482703973,,
0.0105997725413516,-0.279017724787759,-0.00457579307874312,,
0.010662124144536,-0.265552477597757,-0.00446034794263905,,
0.0107244757477204,-0.241779398145242,-0.00415815775181105,,
0.0107868273509048,-0.208777096839302,-0.00368889415019158,,
0.0108491789540893,-0.167598544276721,-0.00310834567897178,,
0.0109115305572737,-0.120172858689386,-0.00240620957823623,,
0.0109738821604581,-0.0682137549142974,-0.00160174176651617,,
0.0110362337636425,-0.0137870968489588,-0.000716572014628714,,
0.011098585366827,0.0410506190735095,0.000170423314015622,,
0.0111609369700114,0.0952767940867157,0.00108219497275464,,
0.0112232885731958,0.145459725214607,0.00192699417328912,,
0.0112856401763802,0.189869256271614,0.0027066781236571,,
0.0113479917795646,0.226754081848461,0.00338904919287097,,
0.0114103433827491,0.255074872114797,0.00390429262624137,,
0.0114726949859335,0.273663398033219,0.00431740317381868,,
0.0115350465891179,0.281560798223851,0.00453972588778218,,
0.0115973981923023,0.27883860824588,0.00457770149933001,,
0.0116597497954867,0.265253515454868,0.00448007531787464,,
0.0117221013986712,0.241647432783614,0.00416363297583056,,
0.0117844530018556,0.208664494123123,0.00372845885701878,,
0.01184680460504,0.167960398802896,0.00312299096181645,,
0.0119091562082244,0.120560908315701,0.00240285515625782,,
0.0119715078114088,0.0685843733311186,0.00158904557304762,,
0.0120338594145933,0.0142885941946829,0.000712297273014695,,
0.0120962110177777,-0.0407952349543553,-0.000176392588510321,,
0.0121585626209621,-0.0952654951863787,-0.00105935869452667,,
0.0122209142241465,-0.145360038976378,-0.00192466550854808,,
0.012283265827331,-0.189929323929815,-0.0027073348492892,,
0.0123456174305154,-0.227010962830481,-0.00336252109234048,,
0.0124079690336998,-0.255458551867264,-0.0039027381747454,,
0.0124703206368842,-0.273954175716249,-0.00432123055875211,,
0.0125326722400686,-0.281827915816432,-0.00451668626560897,,
0.0125950238432531,-0.279064272394276,-0.00456609131315622,,
0.0126573754464375,-0.265488305638151,-0.00444209368132098,,
0.0127197270496219,-0.24169702240176,-0.00414479127644718,,
0.0127820786528063,-0.208788733740931,-0.00372574157940386,,
0.0128444302559907,-0.167528916010542,-0.00309944222665326,,
0.0129067818591752,-0.120115060468431,-0.00238080363503546,,
0.0129691334623596,-0.0680915915901416,-0.00157412163368464,,
0.013031485065544,-0.0137605396045771,-0.000725016060255435,,
0.0130938366687284,0.041050425929914,0.00017203349681516,,
0.0131561882719128,0.0952122358399187,0.00107011182362582,,
0.0132185398750973,0.145573921365448,0.00193332344188057,,
0.0132808914782817,0.189919280462849,0.00270645821094551,,
0.0133432430814661,0.226784743394248,0.0033690250860996,,
0.0134055946846505,0.255004109129994,0.00391509546163782,,
0.013467946287835,0.273741138330409,0.00431852683740042,,
0.0135302978910194,0.281634482505536,0.00455391477643774,,
0.0135926494942038,0.278805266832706,0.00459036907402099,,
0.0136550010973882,0.265191274931217,0.00448097003123538,,
0.0137173527005726,0.24162184125721,0.00414095184150209,,
0.0137797043037571,0.20878878202683,0.00371542978197947,,
0.0138420559069415,0.167920659508121,0.00311111266288489,,
0.0139044075101259,0.120489541757162,0.00239705910067967,,
0.0139667591133103,0.0684383809158676,0.00157501333454269,,
0.0140291107164947,0.0143268124836432,0.000733963193866316,,
0.0140914623196792,-0.0407622556854232,-0.000172678172435603,,
0.0141538139228636,-0.0952588800182328,-0.00108788408447946,,
0.014216165526048,-0.145437972417163,-0.00191179458991098,,
0.0142785171292324,-0.189680941265998,-0.00268980509491845,,
0.0143408687324168,-0.227049736407278,-0.00336976766806441,,
0.0144032203356013,-0.255433539771646,-0.00389997872208969,,
0.0144655719387857,-0.273869047676531,-0.00428513173651091,,
0.0145279235419701,-0.281901793241712,-0.00452292817161615,,
0.0145902751451545,-0.279031099981748,-0.00457551442222526,,
0.014652626748339,-0.265586036297476,-0.00445165084676891,,
0.0147149783515234,-0.241800740512545,-0.00412842434819538,,
0.0147773299547078,-0.208580476659079,-0.00369823290917948,,
0.0148396815578922,-0.16757623619144,-0.00310344734925794,,
0.0149020331610766,-0.120127276800847,-0.00237349680925325,,
0.0149643847642611,-0.0681247640026692,-0.00157175079390282,,
0.0150267363674455,-0.0137487095593525,-0.00070607042952231,,
0.0150890879706299,0.0410091173434257,0.000161132755074345,,
0.0151514395738143,0.0952403382330645,0.00107975183290332,,
0.0152137911769987,0.145550454418594,0.00193075678941046,,
0.0152761427801832,0.189820970372738,0.00268654857928441,,
0.0153384943833676,0.226826027837786,0.00337517059201398,,
0.015400845986552,0.255107078809347,0.00393098038942563,,
0.0154631975897364,0.273560066209625,0.00430991409161141,,
0.0155255491929209,0.281371565786157,0.0045269890255244,,
0.0155879007961053,0.278538656242063,0.00458888089758913,,
0.0156502523992897,0.265239753973688,0.0044659346292657,,
0.0157126040024741,0.241375969460135,0.00416393723862329,,
0.0157749556056585,0.208673402871466,0.00370970903897394,,
0.015837307208843,0.167748834136972,0.00310722954664788,,
0.0158996588120274,0.120520758590786,0.00241094975154788,,
0.0159620104152118,0.068563055106765,0.00157314859524815,,
0.0160243620183962,0.0142837414618459,0.00071372519938917,,
0.0160867136215806,-0.0407610968238501,-0.00018563344115341,,
0.0161490652247651,-0.0951421730006499,-0.00106515324385326,,
0.0162114168279495,-0.145362163555928,-0.00193149937137482,,
0.0162737684311339,-0.189950086866332,-0.00271314144862744,,
0.0163361200343183,-0.227017384855031,-0.00336842409177152,,
0.0163984716375027,-0.25550727233923,-0.0038974753321801,,
0.0164608232406872,-0.273843456150127,-0.00431421443949986,,
0.0165231748438716,-0.281928785059184,-0.00453710501026006,,
0.016585526447056,-0.278935493901974,-0.0045661636132257,,
0.0166478780502404,-0.265599411491464,-0.00446605964813562,,
0.0167102296534248,-0.241696442970973,-0.00416726906682996,,
0.0167725812566093,-0.208714663172055,-0.00371362077398851,,
0.0168349328597937,-0.167709263842843,-0.00310453636905583,,
0.0168972844629781,-0.120200381651745,-0.00239015595028613,,
0.0169596360661625,-0.0681381391966578,-0.00157825930641664,,
0.017021987669347,-0.0137791296756443,-0.000701896606755348,,
0.0170843392725314,0.0410004017386787,0.000168499830914381,,
0.0171466908757158,0.0953295464312375,0.00106043265181022,,
0.0172090424789002,0.145482009156938,0.00192105653007468,,
0.0172713940820846,0.189758729849087,0.00271278446703382,,
0.0173337456852691,0.226706761667563,0.00338868468001996,,
0.0173960972884535,0.255204616325076,0.00392649176010584,,
0.0174584488916379,0.273701012748443,0.00429497508973409,,
0.0175208004948223,0.281596481503121,0.00454338005379906,,
0.0175831520980067,0.278714923915909,0.00459691223031822,,
0.0176455037011912,0.2651726607172,0.00447062810878229,,
0.0177078553043756,0.241763970800551,0.00414081929137433,,
0.01777020690756,0.208699380685061,0.00370697669884423,,
0.0178325585107444,0.167892726115622,0.00311398056564505,,
0.0178949101139289,0.120572931504521,0.00237210051415948,,
0.0179572617171133,0.0685787480238996,0.00160001710860636,,
0.0180196133202977,0.0142957887936154,0.000725156141640149,,
0.0180819649234821,-0.0407709954331197,-0.000185645491165065,,
0.0181443165266665,-0.0951423661442454,-0.0010517144684199,,
0.018206668129851,-0.145393935677388,-0.00193683451400961,,
0.0182690197330354,-0.189802138872177,-0.00269561169425669,,
0.0183313713362198,-0.226851909079584,-0.00337281632099851,,
0.0183937229394042,-0.255549329357151,-0.0039115316707079,,
0.0184560745425886,-0.273885706311643,-0.00430068980773379,,
0.0185184261457731,-0.282004787064015,-0.00454127883302657,,
0.0185807777489575,-0.279004929024557,-0.00458946381690017,,
0.0186431293521419,-0.265326596162816,-0.0044554481066732,,
0.0187054809553263,-0.24188470969069,-0.00416275483123529,,
0.0187678325585107,-0.20859636271981,-0.00371688632713152,,
0.0188301841616952,-0.167568269018126,-0.00310733046549494,,
0.0188925357648796,-0.120180632719105,-0.00237702896890246,,
0.018954887368064,-0.0681488103803094,-0.00157632377330419,,
0.0190172389712484,-0.0137927462991273,-0.000709638739206486,,
0.0190795905744329,0.0409932071397462,0.000171718690261891,,
0.0191419421776173,0.0951963256362391,0.0010629119416965,,
0.0192042937808017,0.145520806876685,0.00192764788641853,,
0.0192666453839861,0.190087218819139,0.00272819643186617,,
0.0193289969871705,0.226736457495372,0.00337276360219763,,
0.019391348590355,0.254933346145192,0.00393523705602217,,
0.0194537001935394,0.273571703111254,0.00431856298743494,,
0.0195160517967238,0.281630402347081,0.0045259225994978,,
0.0195784033999082,0.278889042867255,0.00461753883766924,,
0.0196407550030926,0.265107136752426,0.00446304262648223,,
0.0197031066062771,0.241534781781537,0.00416337992558669,,
0.0197654582094615,0.208863625170087,0.00374349727149159,,
0.0198278098126459,0.1679022384377,0.00309346240839803,,
0.0198901614158303,0.120443597724382,0.00239401044774556,,
0.0199525130190147,0.0684982795734231,0.00158199330376041,,
0.0200148646221992,0.014290911917829,0.000727624887766343,,
0.0200772162253836,-0.0408334291003661,-0.000187085467551196,,
0.020139567828568,-0.0952513474180081,-0.00107039198639525,,
0.0202019194317524,-0.14544883674441,-0.00192554817189761,,
0.0202642710349369,-0.18979726199639,-0.00270691008638035,,
0.0203266226381213,-0.226822840968461,-0.00337368693433637,,
0.0203889742413057,-0.255339865127827,-0.00391900870290396,,
