Time domain (s),Current (AC) (A),Potential (AC) (V),Frequency (Hz),Column 5
0,-0.278870090651947,-0.00676343359635778,1.5849,0.3
0.00154041658779734,-0.277724169699826,-0.00678561013430512,,
0.00308083317559467,-0.276703212653996,-0.00674902604616889,,
0.00462124976339201,-0.275718373460525,-0.00674859622665247,,
0.00616166635118935,-0.274557966738741,-0.00670870682643487,,
0.00770208293898669,-0.273524841646395,-0.00669876939921643,,
0.00924249952678402,-0.272539664451632,-0.00666809747852737,,
0.0107829161145814,-0.27100509029946,-0.00663041090333127,,
0.0123233327023787,-0.269723003112509,-0.00663316389733382,,
0.013863749290176,-0.268334686948032,-0.00656857062041238,,
0.0154041658779734,-0.266896153448724,-0.00657327929321472,,
0.0169445824657707,-0.265025557726275,-0.00654388178739174,,
0.018484999053568,-0.263715271574381,-0.00649037785399331,,
0.0200254156413654,-0.261976013496874,-0.00646130486190533,,
0.0215658322291627,-0.26017050716611,-0.00643694269171702,,
0.0231062488169601,-0.258362441682706,-0.00640456868574324,,
0.0246466654047574,-0.256536703560313,-0.00635986745604011,,
0.0261870819925547,-0.254502466926574,-0.00630050078443789,,
0.0277274985803521,-0.252552537472272,-0.00626432717393932,,
0.0292679151681494,-0.250769628942182,-0.00621324742261331,,
0.0308083317559468,-0.248469288719738,-0.00617855024215341,,
0.0323487483437441,-0.246343308878135,-0.00613317849400463,,
0.0338891649315414,-0.244354364417542,-0.00608406086877045,,
0.0354295815193388,-0.241856824584089,-0.0060649747331456,,
0.0369699981071361,-0.239502790442096,-0.00600320322134973,,
0.0385104146949334,-0.237183135860102,-0.00593472437599996,,
0.0400508312827308,-0.234890762810973,-0.00588575933669455,,
0.0415912478705281,-0.232476564438981,-0.00580811673925563,,
0.0431316644583254,-0.229869560472777,-0.0057517759970489,,
0.0446720810461228,-0.227200122839327,-0.00569655278558479,,
0.0462124976339201,-0.224719772785874,-0.00565068244679701,,
0.0477529142217175,-0.221708712417878,-0.00557398545229448,,
0.0492933308095148,-0.219172447293527,-0.00553478591240086,,
0.0508337473973121,-0.216238064932945,-0.00558294074191812,,
0.0523741639851095,-0.213594508541293,-0.00553758833564766,,
0.0539145805729068,-0.210617055158914,-0.00538221717686715,,
0.0554549971607042,-0.20770937490041,-0.00528929019742597,,
0.0569954137485015,-0.204599425011516,-0.00520843469910259,,
0.0585358303362988,-0.201398842490432,-0.00514839535995737,,
0.0600762469240962,-0.198356830861256,-0.00507450078870164,,
0.0616166635118935,-0.195248329549328,-0.0050234554229367,,
0.0631570800996908,-0.192065178237739,-0.00492105522135455,,
0.0646974966874882,-0.188822876700026,-0.00485991769334504,,
0.0662379132752855,-0.185657832600514,-0.00477242363259123,,
0.0677783298630829,-0.182234941801006,-0.00472414630451157,,
0.0693187464508802,-0.178998579428855,-0.00463190918539436,,
0.0708591630386775,-0.175518952698168,-0.004551361008025,,
0.0723995796264749,-0.171913734344504,-0.00448172594817686,,
0.0739399962142722,-0.168607309133085,-0.00440246722935678,,
0.0754804128020695,-0.16499185416886,-0.0043125511356279,,
0.0770208293898669,-0.161389146681938,-0.00421432877974537,,
0.0785612459776642,-0.157741967882152,-0.00412451369360278,,
0.0801016625654615,-0.154088511915511,-0.00405072227903114,,
0.0816420791532589,-0.150443892268365,-0.00398257224561194,,
0.0831824957410562,-0.146704487401726,-0.00384958393814694,,
0.0847229123288536,-0.143042050257895,-0.0038053469135213,,
0.0862633289166509,-0.139161795424235,-0.00370640246085108,,
0.0878037455044482,-0.135345471120687,-0.00362972480822688,,
0.0893441620922456,-0.131461305129218,-0.00352321338297079,,
0.0908845786800429,-0.127726535708871,-0.00342690157483805,,
0.0924249952678402,-0.123772306878133,-0.00336199667876746,,
0.0939654118556376,-0.119929328758405,-0.00325223796706497,,
0.0955058284434349,-0.115965056460702,-0.00316128815739969,,
0.0970462450312323,-0.111924540728673,-0.00304360357381528,,
0.0985866616190296,-0.1079202877067,-0.00294627739162401,,
0.100127078206827,-0.103869776793604,-0.00288598016076902,,
0.101667494794624,-0.0998566874521366,-0.00278897849231274,,
0.103207911382422,-0.0956282430016832,-0.00268056081750156,,
0.104748327970219,-0.0915789392360591,-0.00259904984441572,,
0.106288744558016,-0.0874806252830761,-0.002507102853472,,
0.107829161145814,-0.0833108481997568,-0.00240886330480894,,
0.109369577733611,-0.0790541564984611,-0.00231215391362349,,
0.110909994321408,-0.07492397385222,-0.00221332981041789,,
0.112450410909206,-0.0706437186322729,-0.0020955764557109,,
0.113990827497003,-0.0665083211089533,-0.00199891864286794,,
0.1155312440848,-0.0622082203845682,-0.00189320023461947,,
0.117071660672598,-0.0578912195955766,-0.00179845296952674,,
0.118612077260395,-0.0536420604945056,-0.0017224587299336,,
0.120152493848192,-0.0493137125192781,-0.00160059630065001,,
0.12169291043599,-0.0450510816524207,-0.00149945117205608,,
0.123233327023787,-0.0406819320926433,-0.00138192132349779,,
0.124773743611584,-0.0363684561742696,-0.00129797112465635,,
0.126314160199382,-0.0320798957797159,-0.0011931811265633,,
0.127854576787179,-0.0276816298229163,-0.00106566012334675,,
0.129394993374976,-0.0233776179407223,-0.000973693790524699,,
0.130935409962774,-0.0190023360717876,-0.000865690891546755,,
0.132475826550571,-0.0146077398433026,-0.000770614814523896,,
0.134016243138368,-0.0102535106262778,-0.000642083735443943,,
0.135556659726166,-0.00592941181015143,-0.000560998283679393,,
0.137097076313963,-0.00154736991537413,-0.000427960546969697,,
0.13863749290176,0.00281381247108882,-0.00035534039058005,,
0.140177909489558,0.00721207842788839,-0.000256224010103612,,
0.141718326077355,0.0116140141130025,-0.00013742189577659,,
0.143258742665152,0.015974786069325,-4.22448111674356E-05,,
0.14479915925295,0.0202645294684012,7.07998707376589E-05,,
0.146339575840747,0.0246464023625325,0.000166256338032689,,
0.147879992428544,0.0289903708260462,0.000278041648754446,,
0.149420409016342,0.0333432480379025,0.000376659438592331,,
0.150960825604139,0.0376211855347036,0.000515817805214702,,
0.152501242191936,0.0419018511847911,0.000590176581548363,,
0.154041658779734,0.0462344241761701,0.000695890691601697,,
0.155582075367531,0.0505399812071282,0.000815853318622661,,
0.157122491955328,0.0548990390140406,0.000915055663002651,,
0.158662908543126,0.0591420175200555,0.00101095269530171,,
0.160203325130923,0.0634348270737104,0.00112523310831625,,
0.16174374171872,0.0676416877273662,0.00125708454316076,,
0.163284158306518,0.0718462306578761,0.00135965667254911,,
0.164824574894315,0.0760476832908578,0.00144501882850179,,
0.166364991482112,0.0802087930553289,0.00153844439858153,,
0.16790540806991,0.0844330124896306,0.00165540688537824,,
0.169445824657707,0.0885716934540738,0.00176121125753026,,
0.170986241245504,0.0927833826976173,0.00182822871652366,,
0.172526657833302,0.0967858974272307,0.00194379858808746,,
0.174067074421099,0.100963593397966,0.00204066271429859,,
0.175607491008896,0.10505497832446,0.00215035265487806,,
0.177147907596694,0.10910189193809,0.00225031148160681,,
0.178688324184491,0.113080843149052,0.00235213142684199,,
0.180228740772288,0.117043377154396,0.00243265811323523,,
0.181769157360086,0.121012284898392,0.00254699010459181,,
0.183309573947883,0.124902776342614,0.00264045006023306,,
0.18484999053568,0.128880568692003,0.00272751430147045,,
0.186390407123478,0.132656719127686,0.00282681980253452,,
0.187930823711275,0.136513434585644,0.00291706470819353,,
0.189471240299073,0.140396562430287,0.00301695046560457,,
0.19101165688687,0.144184301481701,0.00312866055791128,,
0.192552073474667,0.14783394286233,0.00322266638433799,,
0.194092490062465,0.151500774022959,0.00330304263390069,,
0.195632906650262,0.155280207899766,0.00339400963634695,,
0.197173323238059,0.158861862734778,0.00349321198072738,,
0.198713739825857,0.162468239950014,0.00355660176300265,,
0.200254156413654,0.165959503582331,0.00365085258655418,,
0.201794573001451,0.169565880797567,0.00372864991901833,,
0.203334989589249,0.173135753873253,0.0038605013538624,,
0.204875406177046,0.17646381116737,0.00391003375492982,,
0.206415822764843,0.179908334049574,0.00400399230121007,,
0.207956239352641,0.183193706609084,0.00410357288676488,,
0.209496655940438,0.186500518107695,0.00418040742351256,,
0.211037072528235,0.189620173462263,0.00427117241078623,,
0.212577489116033,0.19313459018309,0.00433605366678336,,
0.21411790570383,0.196171411078137,0.00441536396394548,,
0.215658322291627,0.199307483638323,0.00450311591640906,,
0.217198738879425,0.202399905745925,0.00458208235795832,,
0.218739155467222,0.205382815434877,0.00465002822710714,,
0.220279572055019,0.208199814775292,0.00473322409269716,,
0.221819988642817,0.211242405835254,0.00482685597614507,,
0.223360405230614,0.214105180207803,0.00488034271676341,,
0.224900821818411,0.21698437178597,0.00493408734909107,,
0.226441238406209,0.21969031355897,0.00504682041184656,,
0.227981654994006,0.222232083275793,0.0051106400136387,,
0.229522071581803,0.225026098528342,0.00517412865440292,,
0.231062488169601,0.227649761129658,0.00525080845612447,,
0.232602904757398,0.230349136020411,0.00535041053265495,,
0.234143321345195,0.232625526437013,0.00538120280280818,,
0.235683737932993,0.235205152298554,0.00543955939854701,,
0.23722415452079,0.237827849181892,0.00549029529426015,,
0.238764571108587,0.240076813207932,0.00558279245418492,,
0.240304987696385,0.242360349937566,0.00561360191711868,,
0.241845404284182,0.244687923406976,0.0056706303705516,,
0.243385820871979,0.246595988986952,0.00574814832033077,,
0.244926237459777,0.248779091046925,0.00580854655877205,,
0.246466654047574,0.251052004878807,0.00585415900585007,,
0.248007070635371,0.253073252605749,0.00589206908719442,,
0.249547487223169,0.255020333192017,0.00598688727250751,,
0.251087903810966,0.256695853883007,0.00599696224197155,,
0.252628320398763,0.258704740419836,0.00604965381648448,,
0.254168736986561,0.260322511175771,0.00611896221350028,,
0.255709153574358,0.26226012772586,0.00614724433767799,,
0.257249570162155,0.263779008960897,0.00619235819411701,,
0.258789986749953,0.265274712964474,0.00622624516478831,,
0.26033040333775,0.266939610757712,0.0063047431030645,,
0.261870819925547,0.268419283842862,0.00632639311210426,,
0.263411236513345,0.269666025751836,0.00638438006305897,,
0.264951653101142,0.270958542692943,0.0064254579142391,,
0.266492069688939,0.272141740358996,0.0064429988487027,,
0.268032486276737,0.273418226381677,0.0064844678356426,,
0.269572902864534,0.274332568162789,0.00650114053468309,,
0.271113319452331,0.275706784844795,0.00653208753986201,,
0.272653736040129,0.276607799717817,0.00657548211823578,,
0.274194152627926,0.277583947449491,0.00662209174659179,,
0.275734569215723,0.278815237870824,0.00663688183615019,,
0.277274985803521,0.279267000740706,0.00665513627101078,,
0.278815402391318,0.279939719883843,0.00667811012416131,,
0.280355818979115,0.280624993360689,0.00673491077325084,,
0.281896235566913,0.281346191546298,0.00673792380806049,,
0.28343665215471,0.281931416640673,0.00675604070067592,,
0.284977068742507,0.282365796586959,0.0067600681095441,,
0.286517485330305,0.282793802794595,0.00677369768640856,,
0.288057901918102,0.28306632840785,0.00682433042543806,,
0.289598318505899,0.283157299041332,0.00681286713893625,,
0.291138735093697,0.283764349361998,0.0068310699954548,,
0.292679151681494,0.283687864498179,0.00684001024139569,,
0.294219568269291,0.283830983902447,0.00682990088637014,,
0.295759984857089,0.283915967084468,0.00685950685465819,,
0.297300401444886,0.283748897874358,0.00685759845600575,,
0.298840818032683,0.283638033450539,0.00684924276460741,,
0.300381234620481,0.283459375624699,0.00688202939731664,,
0.301921651208278,0.28337168843234,0.00683103560989329,,
0.303462067796075,0.28296280344066,0.00686812043776674,,
0.305002484383873,0.282467196974599,0.00685054941593721,,
0.30654290097167,0.282165120391232,0.00686007421642021,,
0.308083317559468,0.281752372527641,0.00681963679631936,,
0.309623734147265,0.280921661923382,0.00683067456149988,,
0.311164150735062,0.280455799571028,0.00682283465352107,,
0.31270456732286,0.279665262834633,0.00681695472253718,,
0.314244983910657,0.278774484572172,0.00680237524454164,,
0.315785400498454,0.278208960124539,0.00679169852775452,,
0.317325817086252,0.277297322353764,0.00676381183753216,,
0.318866233674049,0.276023347197824,0.00677801307435333,,
0.320406650261846,0.275133920940532,0.00674921516675564,,
0.321947066849644,0.274131891967061,0.00670279895718195,,
0.323487483437441,0.272837057302808,0.00670012977798562,,
0.325027900025238,0.271805091072034,0.00666715832288389,,
0.326568316613036,0.270323679694524,0.00664440797588206,,
0.328108733200833,0.268985580864878,0.00661695540337126,,
0.32964914978863,0.26764497116849,0.00659718370561757,,
0.331189566376428,0.266055013090307,0.00655861600041296,,
0.332729982964225,0.264599482954595,0.00653712932278916,,
0.334270399552022,0.263048539882704,0.00650366787343915,,
0.33581081613982,0.261541633550588,0.00647408339612721,,
0.337351232727617,0.259726470040048,0.00643016443794364,,
0.338891649315414,0.257792330074679,0.00639569291272979,,
0.340432065903212,0.256133999163688,0.00632274394441046,,
0.341972482491009,0.254194451177645,0.00630834069241626,,
0.343512899078806,0.252116032946434,0.00626197176298948,,
0.345053315666604,0.250156591170054,0.00620156922635307,,
0.346593732254401,0.247889278502442,0.00615819613895541,,
0.348134148842198,0.245774935562468,0.00611411384935545,,
0.349674565429996,0.243563055106765,0.00608593488186182,,
0.351214982017793,0.241291300136456,0.00603561161288413,,
0.35275539860559,0.239027850340754,0.00597333936135147,,
0.354295815193388,0.236484535475167,0.00593735487144009,,
0.355836231781185,0.234257010388228,0.00585610179006402,,
0.357376648368982,0.231915723723538,0.00581777908198378,,
0.35891706495678,0.22916072347728,0.00576482531756595,,
0.360457481544577,0.226661831638659,0.00572222160710245,,
0.361997898132374,0.224022138118917,0.00564659486319608,,
0.363538314720172,0.221321411222995,0.00559659395885559,,
0.365078731307969,0.218583214469546,0.00552694600442161,,
0.366619147895766,0.215788619786209,0.00546558926845897,,
0.368159564483564,0.213047525878828,0.00539748866428402,,
0.369699981071361,0.210122752412122,0.00534831301341487,,
0.371240397659158,0.207126902102271,0.00527431528547551,,
0.372780814246956,0.204008985040063,0.0051902941664137,,
0.374321230834753,0.201139474784621,0.00514428628538077,,
0.37586164742255,0.197898501109127,0.00505066729651826,,
0.377402064010348,0.194892800475906,0.00500514511153893,,
0.378942480598145,0.19153767893547,0.00490030353510384,,
0.380482897185942,0.188216985240932,0.00483051803842471,,
0.38202331377374,0.185056769731308,0.00475584979203925,,
0.383563730361537,0.181714419811125,0.00468633937985086,,
0.385104146949334,0.178479650873637,0.00460714943215335,,
0.386644563537132,0.174986069518174,0.00453397695768532,,
0.388184980124929,0.171505815070802,0.00443864298895225,,
0.389725396712726,0.168041977829047,0.00435962496906139,,
0.391265813300524,0.164397744469092,0.00429489844808995,,
0.392806229888321,0.160965389633404,0.0041958336459551,,
0.394346646476118,0.157203918110978,0.00411645027947527,,
0.395887063063916,0.153576464100883,0.00405396741637976,,
0.397427479651713,0.150025374239859,0.0039491301381398,,
0.39896789623951,0.146179088536058,0.00382424177946117,,
0.400508312827308,0.142581209639024,0.00376666315704677,,
0.402048729415105,0.138684151312556,0.00369070545211247,,
0.403589146002902,0.134883085353052,0.00359428833819875,,
0.4051295625907,0.131074897223464,0.00347307923457985,,
0.406669979178497,0.127143628337642,0.00342583777153482,,
0.408210395766294,0.123263952934769,0.00332819567199927,,
0.409750812354092,0.119423099394591,0.00322963375869856,,
0.411291228941889,0.115208899284306,0.00313512504343727,,
0.412831645529686,0.111327485589073,0.00304390874567151,,
0.414372062117484,0.107349306952493,0.00293891673240587,,
0.415912478705281,0.103180881874343,0.00285805908498515,,
0.417452895293078,0.0991922734836055,0.00274080432091717,,
0.418993311880876,0.0950452873445556,0.00264431843588042,,
0.420533728468673,0.0910151289378358,0.00256407972856287,,
0.42207414505647,0.0868119621554439,0.00245767360908866,,
0.423614561644268,0.0826688388883041,0.00233839009690318,,
0.425154978232065,0.078478009153075,0.00227623819483513,,
0.426695394819862,0.0742906560025649,0.002190394641024,,
0.42823581140766,0.0700691164356508,0.00207030736634284,,
0.429776227995457,0.0658251480687089,0.00194706951460732,,
0.431316644583254,0.0616053950800532,0.00186202542509673,,
0.432857061171052,0.0572650480589551,0.00176188177597547,,
0.434397477758849,0.0530512342358612,0.0016615404098772,,
0.435937894346646,0.0487452909177121,0.00155218143032521,,
0.437478310934444,0.0444198400964173,0.00146652699710126,,
0.439018727522241,0.0400887639679034,0.00133713412989067,,
0.440559144110038,0.0357903773929284,0.00124620151300592,,
0.442099560697836,0.0314825267817738,0.001133038630734,,
0.443639977285633,0.0271725033051698,0.00104293126732014,,
0.445180393873431,0.0228024604562631,0.000957070520728465,,
0.446720810461228,0.0184165556895758,0.00084833048128008,,
0.448261227049025,0.014090284008,0.00075262686776334,,
0.449801643636823,0.00974341839055373,0.000656747028244808,,
0.45134206022462,0.00533066666409142,0.000527302582692624,,
0.452882476812417,0.000992854652684358,0.000416495111370097,,
0.454422893400215,-0.00338783523692442,0.000312599137871405,,
0.455963309988012,-0.00777856859349937,0.000195292795461377,,
0.457503726575809,-0.012122368056367,0.000123873984620104,,
0.459044143163607,-0.0164420245697968,-1.81211908105716E-05,,
0.460584559751404,-0.0208794986764835,-0.000125438527659671,,
0.462124976339201,-0.0251862145690146,-0.000215786590002764,,
0.463665392926999,-0.0295257648727811,-0.000313252463536529,,
0.465205809514796,-0.0338566237147501,-0.000445258633406276,,
0.466746226102593,-0.0382259181322242,-0.000534572979812076,,
0.468286642690391,-0.0424685103510481,-0.000632094729883459,,
0.469827059278188,-0.046884931805825,-0.000740957267893805,,
0.471367475865985,-0.0511132313985817,-0.000843305891133905,,
0.472907892453783,-0.0554734480670672,-0.000945104345392966,,
0.47444830904158,-0.0597535101434188,-0.00104894874054962,,
0.475988725629377,-0.0640689174977475,-0.00116993433801982,,
0.477529142217175,-0.068246372038988,-0.00125151408222868,,
0.479069558804972,-0.0724314557522509,-0.00135389709102984,,
0.480609975392769,-0.0766217060566934,-0.00146210630337551,,
0.482150391980567,-0.080838803320911,-0.00156643424548841,,
0.483690808568364,-0.0850871898476,-0.00165657599446334,,
0.485231225156161,-0.0891851175133921,-0.00175952636502608,,
0.486771641743959,-0.0932108094744659,-0.00185659680460493,,
0.488312058331756,-0.0974433582263237,-0.00197595123701033,,
0.489852474919553,-0.101582232334362,-0.00208041242317325,,
0.491392891507351,-0.105636702691166,-0.00216960856921222,,
0.492933308095148,-0.109536271884377,-0.00225199637411144,,
0.494473724682945,-0.113590935384776,-0.00237356652612375,,
0.496014141270743,-0.117687076472309,-0.00246735314459734,,
0.49755455785854,-0.121586162806531,-0.00256762144137834,,
0.499094974446337,-0.12549051230373,-0.00267096724589599,,
0.500635391034135,-0.129350873347053,-0.00274310600442762,,
0.502175807621932,-0.133219153277792,-0.00286534882398293,,
0.503716224209729,-0.137149432302687,-0.00295918702079856,,
0.505256640797527,-0.140865321936574,-0.00304891614303759,,
0.506797057385324,-0.144715204939841,-0.00313783720458582,,
0.508337473973121,-0.148459148680974,-0.00326461462003946,,
0.509877890560919,-0.152077114511941,-0.00332020102899477,,
0.511418307148716,-0.155808986778355,-0.00345488927264714,,
0.512958723736513,-0.15941584685258,-0.00352635966183046,,
0.514499140324311,-0.162928694281694,-0.00362441008990677,,
0.516039556912108,-0.166384419492438,-0.00371675251480541,,
0.517579973499905,-0.170021120252168,-0.00378645204758099,,
