Time domain (s),Current (AC) (A),Potential (AC) (V),Frequency (Hz),Column 5
0,0.18017083839425,0.00262366034704975,39.811,0.5
0.000239167174273442,0.204729407281876,0.00317865919529359,,
0.000478334348546884,0.228387934490528,0.00367885817913249,,
0.000717501522820326,0.251361056801716,0.00418024679304896,,
0.000956668697093768,0.273262484753412,0.00468305972596905,,
0.00119583587136721,0.294579761609892,0.00517539663076061,,
0.00143500304564065,0.314372876152733,0.0056155071566204,,
0.00167417021991409,0.333290987610081,0.00606342311247632,,
0.00191333739418754,0.350627340895698,0.00648278390011958,,
0.00215250456846098,0.366875898516665,0.00684179726269196,,
0.00239167174273442,0.382143340486001,0.00723060397988418,,
0.00263083891700786,0.395710427886155,0.00757532154972651,,
0.0028700060912813,0.408175817173156,0.00789605229270718,,
0.00310917326555475,0.418895739864193,0.00816212479391076,,
0.00334834043982819,0.428032769489743,0.00841406740317785,,
0.00358750761410163,0.435713162980106,0.00867314779290762,,
0.00382667478837507,0.442345765810701,0.00887557508498338,,
0.00406584196264851,0.446891582748366,0.00901801507810029,,
0.00430500913692196,0.449950121419446,0.00918473728241764,,
0.0045441763111954,0.451456409156436,0.00926406213967157,,
0.00478334348546884,0.4511576483753,0.00931297454910274,,
0.00502251065974228,0.450010554511926,0.00935557463567571,,
0.00526167783401572,0.446036724027034,0.00934123433297662,,
0.00550084500828917,0.441191295137916,0.00931747410231987,,
0.00574001218256261,0.434644660509301,0.0092480264117949,,
0.00597917935683605,0.42676424199453,0.0091519132035538,,
0.00621834653110949,0.417052956128696,0.00903811335222704,,
0.00645751370538294,0.406212734699575,0.00886436261918799,,
0.00669668087965638,0.393706205513938,0.00869356977589897,,
0.00693584805392982,0.379525424315496,0.00845493564732536,,
0.00717501522820326,0.364398425448404,0.00819532113796884,,
0.0074141824024767,0.347959773123389,0.00788781390210458,,
0.00765334957675015,0.329945888265738,0.00758491547119933,,
0.00789251675102359,0.310801081780728,0.00724301821483886,,
0.00813168392529703,0.290925687440613,0.00686698181235279,,
0.00837085109957047,0.269794568625465,0.00648898292487532,,
0.00861001827384391,0.247775608239215,0.00604923252512757,,
0.00884918544811735,0.224749748833826,0.00562345016288379,,
0.0090883526223908,0.200919249755785,0.00519420006942939,,
0.00932751979666424,0.176317306647442,0.00467141025320661,,
0.00956668697093768,0.151121530381531,0.00421206332807156,,
0.00980585414521112,0.125178710301062,0.00369639915322972,,
0.0100450213194846,0.0990352977493071,0.00315648513807298,,
0.010284188493758,0.0723979226904699,0.0026225475978281,,
0.0105233556680314,0.0454353651052515,0.00209964043714184,,
0.0107625228423049,0.0184638347662786,0.0015428004947311,,
0.0110016900165783,-0.0086150494288789,0.000989464700778431,,
0.0112408571908518,-0.0356230382297473,0.000457190214825154,,
0.0114800243651252,-0.0624152553553508,-0.000115612620968264,,
0.0117191915393987,-0.0890813574123741,-0.000693287275172594,,
0.0119583587136721,-0.115638651530589,-0.00126123447799786,,
0.0121975258879455,-0.14172241122932,-0.001797555324758,,
0.012436693062219,-0.167252484637085,-0.00234832977231969,,
0.0126758602364924,-0.192140704695254,-0.00289395724893549,,
0.0129150274107659,-0.216267127320042,-0.00340569240743438,,
0.0131541945850393,-0.239865824348521,-0.00393523155348241,,
0.0133933617593128,-0.262148044620618,-0.00439336052401451,,
0.0136325289335862,-0.283730319169008,-0.00491475839211963,,
0.0138716961078596,-0.304527247238591,-0.00537088036769173,,
0.0141108632821331,-0.323773839507297,-0.00583694020540459,,
0.0143500304564065,-0.341899298607287,-0.00623795276997008,,
0.01458919763068,-0.359078752831205,-0.00663264896531635,,
0.0148283648049534,-0.374771496235416,-0.00704647837773686,,
0.0150675319792268,-0.389465320342205,-0.00743127110500863,,
0.0153066991535003,-0.402499220469852,-0.00770017403559686,,
0.0155458663277737,-0.413804748338728,-0.00801930444287802,,
0.0157850335020472,-0.42444295867937,-0.00829264218491055,,
0.0160242006763206,-0.43255035594524,-0.00854144684137159,,
0.0162633678505941,-0.440199256133888,-0.00873573690186502,,
0.0165025350248675,-0.445391182272733,-0.00893514156241837,,
0.0167417021991409,-0.449163781908602,-0.00906888187980037,,
0.0169808693734144,-0.451324619619079,-0.00918836282170021,,
0.0172200365476878,-0.45231594931451,-0.00931315056579773,,
0.0174592037219613,-0.451039761286448,-0.00931933340511026,,
0.0176983708962347,-0.448506962147605,-0.00936685386642377,,
0.0179375380705082,-0.444742235837164,-0.00933000163537701,,
0.0181767052447816,-0.438837383627285,-0.00927126466190709,,
0.018415872419055,-0.431412979609648,-0.00921786888470244,,
0.0186550395933285,-0.422740830838695,-0.00909599249720516,,
0.0188942067676019,-0.412592114360974,-0.0089436389201123,,
0.0191333739418754,-0.400523654164961,-0.00876914163350451,,
0.0193725411161488,-0.387196029347218,-0.0085391485084334,,
0.0196117082904222,-0.372687618507734,-0.00831478791760532,,
0.0198508754646957,-0.35643813878559,-0.0080417718612571,,
0.0200900426389691,-0.339022342937088,-0.0077388107117593,,
0.0203292098132426,-0.320990299779348,-0.0074128702792402,,
0.020568376987516,-0.301230948325734,-0.00706559338618762,,
0.0208075441617895,-0.280710934332494,-0.00667320968604246,,
0.0210467113360629,-0.258613772673404,-0.00629767503229628,,
0.0212858785103363,-0.23614415306993,-0.00584747692894538,,
0.0215250456846098,-0.212626671875829,-0.00537411745633687,,
0.0217642128588832,-0.188511598188596,-0.00495993196416533,,
0.0220033800331567,-0.163590182488079,-0.00449693117522232,,
0.0222425472074301,-0.138053583441219,-0.00395729231260056,,
0.0224817143817036,-0.112053238433518,-0.00344803150373485,,
0.022720881555977,-0.0857162555655899,-0.00292053172353324,,
0.0229600487302504,-0.0588809124772773,-0.00236108187840189,,
0.0231992159045239,-0.0319761990081596,-0.00180768741221815,,
0.0234383830787973,-0.00485940226848238,-0.00127897372377417,,
0.0236775502530708,0.0222543444442269,-0.000729702499252305,,
0.0239167174273442,0.0491570009184128,-0.000169672001345322,,
0.0241558846016176,0.0758962326918063,0.000381927903820856,,
0.0243950517758911,0.102530770516255,0.000954034765555445,,
0.0246342189501645,0.128684680835248,0.00151078164166751,,
0.024873386124438,0.154324768006437,0.00205411078534512,,
0.0251125532987114,0.179607079921204,0.00258640145674205,,
0.0253517204729849,0.204129864190102,0.00315392783804302,,
0.0255908876472583,0.227854534425442,0.00366113107243837,,
0.0258300548215317,0.250722359875377,0.00417903288480703,,
0.0260692219958052,0.272731354475837,0.00466375049219936,,
0.0263083891700786,0.293596376170749,0.00514284365807072,,
0.0265475563443521,0.313917216309899,0.00558379582697865,,
0.0267867235186255,0.332874765325251,0.00604194502931454,,
0.027025890692899,0.350213955845256,0.00647383739637597,,
0.0272650578671724,0.366714743603384,0.00684892290407246,,
0.0275042250414458,0.381844012257987,0.00722212685399404,,
0.0277433922157193,0.395379038909549,0.00757341166742576,,
0.0279825593899927,0.407770092655563,0.007892770694093,,
0.0282217265642662,0.418386456291411,0.00816702898320854,,
0.0284608937385396,0.428055751088292,0.00844010978132959,,
0.028700060912813,0.43562123658591,0.00865415822164195,,
0.0289392280870865,0.441910817778905,0.00885874627038863,,
0.0291783952613599,0.446926197007909,0.0090200382585035,,
0.0294175624356334,0.449925721203702,0.00916241755620817,,
0.0296567296099068,0.451432292664132,0.00925037330106271,,
0.0298958967841803,0.451419241385944,0.00932971029739926,,
0.0301350639584537,0.449546099242487,0.00934799984824553,,
0.0303742311327271,0.446225967560764,0.00937388037196518,,
0.0306133983070006,0.441386780587302,0.00930006261176874,,
0.030852565481274,0.434970658740569,0.00925562952375047,,
0.0310917326555475,0.426952634357944,0.00916165684037651,,
0.0313308998298209,0.417661542905084,0.00901956483428901,,
0.0315700670040944,0.406430634300632,0.0088535628821953,,
0.0318092341783678,0.393988794059058,0.00865066621226607,,
0.0320484013526412,0.380022791503845,0.00844378387694222,,
0.0322875685269147,0.365061770848495,0.00820844753242556,,
0.0325267357011881,0.348225054538738,0.0079007460712428,,
0.0327659028754616,0.330574335682847,0.0075797401757276,,
0.033005070049735,0.311468399308963,0.00725616079473923,,
0.0332442372240084,0.291581088584416,0.00690161866085814,,
0.0334834043982819,0.270233453319976,0.00649302928568218,,
0.0337225715725553,0.24822612559472,0.00606195428350365,,
0.0339617387468288,0.225162034455942,0.00564578607453692,,
0.0342009059211022,0.201395302220788,0.00522137542860701,,
0.0344400730953757,0.17691060782356,0.00469508955664733,,
0.0346792402696491,0.151610669590153,0.00421023841934787,,
0.0349184074439225,0.126025624766105,0.00370683876411082,,
0.035157574618196,0.0996401961209899,0.00317825051285192,,
0.0353967417924694,0.0729993809154564,0.00265360746338006,,
0.0356359089667429,0.0462096818353729,0.00210301914841526,,
0.0358750761410163,0.0191804847074485,0.00155100651444684,,
0.0361142433152898,-0.00788701508472408,0.000993980439438769,,
0.0363534104895632,-0.034937278677985,0.000436149138630437,,
0.0365925776638366,-0.0617833323261151,-0.000124142349548606,,
0.0368317448381101,-0.0884178701505635,-0.000673848557857237,,
0.0370709120123835,-0.115048223054289,-0.00123417039374241,,
0.037310079186657,-0.140945931107977,-0.00181678363131166,,
0.0375492463609304,-0.166543459763335,-0.00233237092529848,,
0.0377884135352038,-0.191366423430563,-0.00289021841155002,,
0.0380275807094773,-0.215661590570622,-0.0033857499181984,,
0.0382667478837507,-0.239058347441481,-0.00391694200263615,,
0.0385059150580242,-0.261706287226288,-0.00443236744219089,,
0.0387450822322976,-0.283080876217422,-0.00489179124818095,,
0.0389842494065711,-0.303568262015191,-0.00537308158797067,,
0.0392234165808445,-0.323197384410362,-0.00581619046718806,,
0.0394625837551179,-0.341416117590882,-0.00627051585856186,,
0.0397017509293914,-0.358263331667877,-0.00662703059333625,,
0.0399409181036648,-0.374486070455907,-0.00700156377278249,,
0.0401800852779383,-0.388731327805833,-0.00737221042267411,,
0.0404192524522117,-0.402123854360219,-0.00771857890772587,,
0.0406584196264852,-0.413804180891851,-0.00801629395043779,,
0.0408975868007586,-0.42392296454677,-0.00829206153213446,,
0.041136753975032,-0.432793152278058,-0.00850726318527695,,
0.0413759211493055,-0.439572227333973,-0.00874038212407102,,
0.0416150883235789,-0.445175268735748,-0.00892036425275222,,
0.0418542554978524,-0.449192721699367,-0.0090472095713201,,
0.0420934226721258,-0.451544789007646,-0.00920649051811395,,
0.0423325898463992,-0.45230828878166,-0.00927862701539484,,
0.0425717570206727,-0.451262767909404,-0.00932406157771259,,
0.0428109241949461,-0.448688261425046,-0.00937214852953927,,
0.0430500913692196,-0.444543345706513,-0.0093278651568709,,
0.043289258543493,-0.438793903010277,-0.00925681106110599,,
0.0435284257177665,-0.431585979976502,-0.00920398177441406,,
0.0437675928920399,-0.423022639144358,-0.00911203227144286,,
0.0440067600663133,-0.412642049686216,-0.00894391609582756,,
0.0442459272405868,-0.400674595034443,-0.00876108330595837,,
0.0444850944148602,-0.387446557143745,-0.00855837681498706,,
0.0447242615891337,-0.372551076602775,-0.00830648276204959,,
0.0449634287634071,-0.357156526532823,-0.00805309964833567,,
0.0452025959376805,-0.33971320951075,-0.00774591409815528,,
0.045441763111954,-0.321096128622049,-0.00741718976940131,,
0.0456809302862274,-0.301436151302901,-0.00707624340783086,,
0.0459200974605009,-0.281017639369918,-0.00669240359852896,,
0.0461592646347743,-0.259383159708775,-0.0062553824691447,,
0.0463984318090478,-0.236761535272924,-0.00587033077478161,,
0.0466375989833212,-0.213267603124249,-0.00540872193395581,,
0.0468767661575946,-0.189037621444271,-0.00494565438005923,,
0.0471159333318681,-0.164159118913884,-0.00446326545331077,,
0.0473551005061415,-0.138682385512627,-0.00395076957898022,,
0.047594267680415,-0.112777584372967,-0.00345748582575967,,
0.0478334348546884,-0.0863274667837877,-0.00293760938931786,,
0.0480726020289619,-0.0596520727841412,-0.00238529732464965,,
0.0483117692032353,-0.0326835924721362,-0.00187119706825944,,
0.0485509363775087,-0.0055794923563487,-0.00133254551767426,,
0.0487901035517822,0.0215234728656833,-0.000745388216919274,,
0.0490292707260556,0.0484581900884621,-0.000182927879348149,,
0.0492684379003291,0.0752995977652807,0.00036350886942893,,
0.0495076050746025,0.101814900814542,0.000930323091228313,,
0.0497467722488759,0.128182171159569,0.00150877464670751,,
0.0499859394231494,0.153760725809952,0.0020565871581586,,
0.0502251065974228,0.179086731134306,0.00258371467316643,,
0.0504642737716963,0.203430166724404,0.00313900485938801,,
0.0507034409459697,0.227432070224956,0.00364998334841626,,
0.0509426081202432,0.250099551461615,0.0041662787555441,,
0.0511817752945166,0.272342937088016,0.00464316260841535,,
0.05142094246879,0.293424156043352,0.00513127106616373,,
0.0516601096430635,0.313239117290986,0.00557793669653028,,
0.0518992768173369,0.332073814057305,0.00602579195697439,,
0.0521384439916104,0.349819580265219,0.00644359894206792,,
0.0523776111658838,0.366148715342827,0.0068342265216228,,
0.0526167783401572,0.381423817845013,0.00720109791688195,,
0.0528559455144307,0.394971328327884,0.00756156392298379,,
0.0530951126887041,0.407401535908464,0.0078805344990136,,
0.0533342798629776,0.418328860433319,0.00817738766687359,,
0.053573447037251,0.427504476446557,0.00841837273107604,,
0.0538126142115245,0.435462635183579,0.00865805891345994,,
0.0540517813857979,0.441940041293109,0.00885020035636463,,
0.0542909485600713,0.446967620629985,0.00900624421451335,,
0.0545301157343448,0.449868692792488,0.00917585552044686,,
0.0547692829086182,0.451547768103754,0.0092516802756033,,
0.0550084500828917,0.450898892599046,0.00932411013404266,,
0.0552476172571651,0.449529643283032,0.00937182482067511,,
0.0554867844314386,0.446170925213622,0.00935842327368341,,
0.055725951605712,0.441566093800671,0.00931781399662768,,
0.0559651187799854,0.435120180992856,0.00926775242072742,,
0.0562042859542589,0.427283455887673,0.00915688618098542,,
0.0564434531285323,0.417692468759921,0.00906967901287992,,
0.0566826203028058,0.40667577135182,0.00890681299041107,,
0.0569217874770792,0.394472542522341,0.00871084369018282,,
0.0571609546513526,0.380484125815457,0.00844138843134479,,
0.0574001218256261,0.36516901830839,0.00821823972557789,,
0.0576392889998995,0.348535731704307,0.00791397362471979,,
0.057878456174173,0.330746839533684,0.00762050726085484,,
0.0581176233484464,0.311912426490804,0.00725271329533195,,
0.0583567905227199,0.29200639001929,0.00689363923734732,,
0.0585959576969933,0.270975993024943,0.00650929970248582,,
0.0588351248712667,0.248729202717276,0.00608414047980643,,
0.0590742920455402,0.225974582919452,0.00563390595920854,,
0.0593134592198136,0.202098404367752,0.00519986497455882,,
0.0595526263940871,0.177462698170182,0.00472661880005276,,
0.0597917935683605,0.152306926909154,0.00421959360553315,,
0.060030960742634,0.126505684824683,0.00369130478497404,,
0.0602701279169074,0.100368514188584,0.00321298852037755,,
0.0605092950911808,0.0737382322157183,0.00265315022460877,,
0.0607484622654543,0.0468846953618878,0.0021280094727576,,
0.0609876294397277,0.0198554627685336,0.00158156058489789,,
0.0612267966140012,-0.00723523141476707,0.00101201102319326,,
0.0614659637882746,-0.0342841473216933,0.000467775494695122,,
0.061705130962548,-0.0611231788147113,-9.54131878212472E-05,,
0.0619442981368215,-0.0877755912158089,-0.000676486785103236,,
0.0621834653110949,-0.114305718814751,-0.0012295271947167,,
0.0624226324853684,-0.140398344870947,-0.00175013197610374,,
0.0626617996596418,-0.165972395411738,-0.00231893700741992,,
0.0629009668339153,-0.190806069638783,-0.00285841199242931,,
0.0631401340081887,-0.215028958232789,-0.00339980090609959,,
0.0633793011824621,-0.238423729039576,-0.00389250198336422,,
0.0636184683567356,-0.261076704915423,-0.00440807106872709,,
0.063857635531009,-0.282566769346179,-0.00489484827377051,,
0.0640968027052825,-0.303228077611979,-0.00535283359849403,,
0.0643359698795559,-0.322489778153806,-0.00582342536031044,,
0.0645751370538293,-0.341186017881953,-0.00621339945259525,,
0.0648143042281028,-0.358208856767613,-0.00665742887889653,,
0.0650534714023762,-0.374216249465536,-0.00703479248772698,,
0.0652926385766497,-0.388464840565869,-0.00739665044194648,,
0.0655318057509231,-0.401642872200465,-0.00772459989260632,,
0.0657709729251966,-0.413618058315948,-0.00799876511542319,,
0.06601014009947,-0.423695063694493,-0.00828796661499842,,
0.0662493072737435,-0.432281102401747,-0.00852912971907616,,
0.0664884744480169,-0.439511794241492,-0.00877689648399071,,
0.0667276416222903,-0.444965242460121,-0.00892766388764743,,
0.0669668087965638,-0.449177684357107,-0.00907203804122991,,
0.0672059759708372,-0.451182190452763,-0.00919366962389789,,
0.0674451431451107,-0.451845535852854,-0.00927668476220767,,
0.0676843103193841,-0.451053380011514,-0.00933196007400738,,
0.0679234774936575,-0.448975956992066,-0.00934197684018434,,
0.068162644667931,-0.444753868498158,-0.00936857154658632,,
0.0684018118422044,-0.439221261440084,-0.00929321009974249,,
0.0686409790164779,-0.431996244069116,-0.00923955737862636,,
0.0688801461907513,-0.423038173002637,-0.00911852263417678,,
0.0691193133650247,-0.412856544606006,-0.00894883444738781,,
0.0693584805392982,-0.400799362416688,-0.00877260734153573,,
0.0695976477135716,-0.3878968971721,-0.00857718430001642,,
0.0698368148878451,-0.373154627288123,-0.00834215750210188,,
0.0700759820621185,-0.35724561569263,-0.00807593730872824,,
0.070315149236392,-0.340179083397384,-0.00775650140120598,,
0.0705543164106654,-0.321729966784497,-0.00740946931298225,,
0.0707934835849388,-0.302177165994384,-0.00707988513255664,,
0.0710326507592123,-0.281472448042436,-0.00671830233087212,,
0.0712718179334857,-0.259978978930414,-0.00630403591148454,,
0.0715109851077592,-0.237200739156303,-0.00587173890834203,,
0.0717501522820326,-0.21391080416018,-0.00543987891216702,,
0.0719893194563061,-0.189695292375585,-0.00498212220682914,,
0.0722284866305795,-0.164744653160864,-0.00450364813416115,,
0.0724676538048529,-0.139296930481232,-0.00397383383557814,,
0.0727068209791264,-0.113356947635151,-0.0034719050324945,,
0.0729459881533998,-0.0870242206188065,-0.0029600242050063,,
0.0731851553276733,-0.0602598083902128,-0.0024077445112245,,
0.0734243225019467,-0.0333208353158509,-0.00187135892269152,,
0.0736634896762201,-0.00623971679861225,-0.00130542073800699,,
0.0739026568504936,0.0209214117283893,-0.000746537383388368,,
0.074141824024767,0.0478200960744309,-0.000188722268023245,,
0.0743809911990405,0.0746549426467255,0.000335977430500289,,
0.0746201583733139,0.101147583286306,0.000958113497248281,,
0.0748593255475874,0.127504958776403,0.00148827982922173,,
0.0750984927218608,0.153227042021427,0.00200841927911588,,
0.0753376598961342,0.178381962112139,0.00256582975840081,,
0.0755768270704077,0.202907548149996,0.00310509635582834,,
0.0758159942446811,0.226599058208417,0.00362763125131993,,
0.0760551614189546,0.24954320526341,0.00414669436923987,,
0.076294328593228,0.271812941704196,0.00464507249071611,,
0.0765334957675015,0.292784075965248,0.00512913458765807,,
0.0767726629417749,0.312798778513851,0.005565198752711,,
0.0770118301160483,0.332013097241385,0.00601496389545586,,
0.0772509972903218,0.349533019591955,0.0064197456451125,,
0.0774901644645952,0.365863857010196,0.00680752054029865,,
0.0777293316388687,0.381119666318538,0.00719483415035294,,
0.0779684988131421,0.394711721381313,0.00755237059123104,,
0.0782076659874155,0.407185054924602,0.00786628726261318,,
0.078446833161689,0.417906112509395,0.00813984148494873,,
0.0786860003359624,0.427472131974525,0.00841534605319261,,
0.0789251675102359,0.43529835931247,0.00862805514807841,,
0.0791643346845093,0.441661424876133,0.00884058215672745,,
