Time domain (s),Current (AC) (A),Potential (AC) (V),Frequency (Hz),Column 5
0,0.0310830376225792,-0.000167588493756199,3981.1,0.5
7.84958930948733E-06,-0.039128334920766,-0.00120197528381771,,
1.56991786189747E-05,-0.109822711153367,-0.00222743987469087,,
2.3548767928462E-05,-0.176830385021218,-0.00314783161533772,,
3.13983572379493E-05,-0.236680709558274,-0.00391864405991571,,
3.92479465474366E-05,-0.287458338759544,-0.00456597397653757,,
4.7097535856924E-05,-0.326872986095565,-0.0050270044756231,,
5.49471251664113E-05,-0.353876435321412,-0.00530550999297663,,
6.27967144758986E-05,-0.366835290599476,-0.00533704691034664,,
7.0646303785386E-05,-0.365638616065159,-0.00518053895512605,,
7.84958930948733E-05,-0.350575171248375,-0.00486938545408844,,
8.63454824043606E-05,-0.321625237370122,-0.00431821327664661,,
9.41950717138479E-05,-0.280362273691546,-0.00362450741663523,,
0.000102044661023335,-0.228361867399581,-0.00277157352677504,,
0.000109894250332823,-0.167618523338665,-0.00182773775529066,,
0.00011774383964231,-0.100552615234984,-0.000822906746811292,,
0.000125593428951797,-0.0301455089842446,0.000200404820821287,,
0.000133443018261285,0.0401214733531202,0.00116409979514698,,
0.000141292607570772,0.110249714928875,0.0021884072467806,,
0.000149142196880259,0.176826235565925,0.00313433756433046,,
0.000156991786189747,0.236684504359269,0.00394972202006816,,
0.000164841375499234,0.287002040538972,0.00455822486490831,,
0.000172690964808721,0.326425767025038,0.00504093090331414,,
0.000180540554118209,0.353063957788762,0.00528440504911609,,
0.000188390143427696,0.366137047216404,0.00534192886839335,,
0.000196239732737183,0.365175863136353,0.00520214715709333,,
0.000204089322046671,0.349754146547128,0.0048528718544385,,
0.000211938911356158,0.321341726723826,0.00432745621427655,,
0.000219788500665645,0.280269106007305,0.00364400689625199,,
0.000227638089975133,0.228603422442354,0.00276157570198388,,
0.00023548767928462,0.168075991918422,0.00184404757084833,,
0.000243337268594107,0.101297389262032,0.000840111440341129,,
0.000251186857903595,0.0310839242583257,-0.000195770947757357,,
0.000259036447213082,-0.039070029754077,-0.00118135764974436,,
0.000266886036522569,-0.109879526772002,-0.00221720991323782,,
0.000274735625832057,-0.17681981632312,-0.00311683871289326,,
0.000282585215141544,-0.236724402967861,-0.00393188648186937,,
0.000290434804451031,-0.287598923723507,-0.00457315958084914,,
0.000298284393760518,-0.327084998435265,-0.00501597001001297,,
0.000306133983070006,-0.353867710825666,-0.00528727751880531,,
0.000313983572379493,-0.366896858585712,-0.00535143229525525,,
0.00032183316168898,-0.365599391299734,-0.00518728509461219,,
0.000329682750998468,-0.350615247184116,-0.00482813423762174,,
0.000337532340307955,-0.321687301872376,-0.00432601200527172,,
0.000345381929617442,-0.280436396439952,-0.00361553737248599,,
0.00035323151892693,-0.228275473612443,-0.00276548658452835,,
0.000361081108236417,-0.167590434718216,-0.00185548428853721,,
0.000368930697545904,-0.100441324716085,-0.000833487571310965,,
0.000376780286855392,-0.0301285565087717,0.000182946726202449,,
0.000384629876164879,0.0400496913230847,0.00121467369084538,,
0.000392479465474366,0.110257339996295,0.00222974529299158,,
0.000400329054783854,0.176875745306009,0.00311405484498328,,
0.000408178644093341,0.236501431810334,0.00393353270293106,,
0.000416028233402828,0.287070559749461,0.00457440000576126,,
0.000423877822712316,0.326318874219441,0.0050087790895943,,
0.000431727412021803,0.353140669513548,0.00528624796612842,,
0.00043957700133129,0.366016393824022,0.00534027378715374,,
0.000447426590640778,0.365003926732394,0.00518167660197388,,
0.000455276179950265,0.34976882923509,0.00486005923078547,,
0.000463125769259752,0.321267887698858,0.00436124538887972,,
0.00047097535856924,0.280232221960251,0.00362684650361222,,
0.000478824947878727,0.22857653964652,0.00278784081347805,,
0.000486674537188214,0.168162704894428,0.00185132000490373,,
0.000494524126497702,0.101216847270822,0.000824086922513345,,
0.000502373715807189,0.031083321346018,-0.000183230251896926,,
0.000510223305116676,-0.0390686111368827,-0.0012038926263247,,
0.000518072894426164,-0.109838457804225,-0.00221113891931113,,
0.000525922483735651,-0.176917913702111,-0.00312776862840369,,
0.000533772073045138,-0.236910029027745,-0.00389426262225223,,
0.000541621662354626,-0.287421170989051,-0.00454191682138649,,
0.000549471251664113,-0.327129826738608,-0.00500458645339208,,
0.0005573208409736,-0.353594981670047,-0.00530000782247386,,
0.000565170430283088,-0.366792873945365,-0.0053527187930924,,
0.000573020019592575,-0.365728840118721,-0.00518933356775264,,
0.000580869608902062,-0.350367556621977,-0.00486269779177739,,
0.00058871919821155,-0.321564024038185,-0.0043103401225264,,
0.000596568787521037,-0.280336809512906,-0.00362747734828162,,
0.000604418376830524,-0.228128717663685,-0.00279042266933116,,
0.000612267966140012,-0.167658670205265,-0.00184106700698816,,
0.000620117555449499,-0.100532683663403,-0.000829009637378419,,
0.000627967144758986,-0.0300834444819905,0.000187630216263113,,
0.000635816734068474,0.0401033150530322,0.0012174203460078,,
0.000643666323377961,0.110380617830486,0.00220074061447706,,
0.000651515912687448,0.176894506518404,0.00310935540660262,,
0.000659365501996936,0.236617403765975,0.00390471940426007,,
0.000667215091306423,0.287045946741138,0.00453921801118495,,
0.00067506468061591,0.326627246132069,0.00503686230960243,,
0.000682914269925398,0.353172588400421,0.00528087515422371,,
0.000690763859234885,0.36604714235171,0.00533502147366915,,
0.000698613448544372,0.36505283356017,0.00519550556770731,,
0.00070646303785386,0.349917890436789,0.00485246428625308,,
0.000714312627163347,0.321447449170237,0.0043311739449412,,
0.000722162216472834,0.28034088803734,0.00364201867232161,,
0.000730011805782322,0.228638568683344,0.00279470213527722,,
0.000737861395091809,0.168089504247198,0.00184823311890847,,
0.000745710984401296,0.101185779554265,0.000828024385591153,,
0.000753560573710783,0.0311281496493604,-0.00018337555881498,,
0.000761410163020271,-0.0390829391705459,-0.00118309956072782,,
0.000769259752329758,-0.109804552853279,-0.00221579051273135,,
0.000777109341639245,-0.176720513119514,-0.00315937819923295,,
0.000784958930948733,-0.236859029739607,-0.00390159353348229,,
0.00079280852025822,-0.287501393791394,-0.00457498832157688,,
0.000800658109567707,-0.327097340404856,-0.0050256293760067,,
0.000808507698877195,-0.353690454607229,-0.00530789692491451,,
0.000816357288186682,-0.366823019560745,-0.00535595275804157,,
0.000824206877496169,-0.365662661626603,-0.0052219230742625,,
0.000832056466805657,-0.350434302560973,-0.00484529994636818,,
0.000839906056115144,-0.321646942213196,-0.00431872539493172,,
0.000847755645424631,-0.280410010160136,-0.00362109624812712,,
0.000855605234734119,-0.228223694084849,-0.00275165761879492,,
0.000863454824043606,-0.167655762040017,-0.00184114143248282,,
0.000871304413353093,-0.100640214846737,-0.000825995404842406,,
0.000879154002662581,-0.030064151288147,0.000175482912303071,,
0.000887003591972068,0.0400470668812751,0.00118549535284362,,
0.000894853181281555,0.110324688847598,0.00219749070120789,,
0.000902702770591043,0.176881597101935,0.00311999470827651,,
0.00091055235990053,0.236575554558741,0.00390669699597712,,
0.000918401949210017,0.287173941477501,0.0045380768202663,,
0.000926251538519505,0.326317384671387,0.00501710411278955,,
0.000934101127828992,0.353124568208391,0.00530916393035996,,
0.000941950717138479,0.366187727315673,0.00537123833702857,,
0.000949800306447967,0.364834047323367,0.00519295738053094,,
0.000957649895757454,0.349984104394337,0.00486724306306163,,
0.000965499485066941,0.32139357718228,0.00431077427124515,,
0.000973349074376429,0.28032592162594,0.00362943367557156,,
0.000981198663685916,0.228653854283614,0.0027932100813115,,
0.000989048252995403,0.167992825485401,0.00183591038342534,,
0.000996897842304891,0.101322569717233,0.000846331285257129,,
0.00100474743161438,0.0311103105381411,-0.000172137309112141,,
0.00101259702092387,-0.0390902450490969,-0.00118601101519999,,
0.00102044661023335,-0.109815688998255,-0.00222597617329479,,
0.00102829619954284,-0.176772647301407,-0.00314841815911748,,
0.00103614578885233,-0.236835338832461,-0.00391632978143708,,
0.00104399537816181,-0.287346480793767,-0.00458101678664935,,
0.0010518449674713,-0.32708882870169,-0.00503148240955564,,
0.00105969455678079,-0.353974248976964,-0.00529235440076681,,
0.00106754414609028,-0.366855222171057,-0.00533511539155507,,
0.00107539373539976,-0.365739976263697,-0.00519110383130528,,
0.00108324332470925,-0.350277545360994,-0.00483818699551586,,
0.00109109291401874,-0.321549625073662,-0.00429493050104801,,
0.00109894250332823,-0.280435261546196,-0.00363144316392905,,
0.00110679209263771,-0.228292213295337,-0.00280343295462249,,
0.0011146416819472,-0.167488223349361,-0.0018337360957581,,
0.00112249127125669,-0.100475584321329,-0.000850008259103419,,
0.00113034086056618,-0.0300811037636198,0.000166234658566466,,
0.00113819044987566,0.04009629289792,0.00122292428854598,,
0.00114604003918515,0.110403173843877,0.00219419825908407,,
0.00115388962849464,0.176818645963935,0.0031138811854956,,
0.00116173921780412,0.236554452627974,0.00391297709010319,,
0.00116958880711361,0.28700260798585,0.00454055058194758,,
0.0011774383964231,0.326438321787208,0.00501822049521028,,
0.00118528798573259,0.353179078574085,0.00529629895198669,,
0.00119313757504207,0.366127116896043,0.00535893332190174,,
0.00120098716435156,0.364972575292398,0.00518518877651042,,
0.00120883675366105,0.349767339687036,0.0048534140973282,,
0.00121668634297054,0.321198517318053,0.00432776454846895,,
0.00122453593228002,0.280437495868277,0.00361493133631452,,
0.00123238552158951,0.228644136755832,0.00279271391134683,,
0.001240235110899,0.168188736519945,0.00183215012390647,,
0.00124808470020849,0.101297070073164,0.000846768978047585,,
0.00125593428951797,0.0310812998165161,-0.000162832350236286,,
0.00126378387882746,-0.0390527935551653,-0.00118302513523316,,
0.00127163346813695,-0.109840514799156,-0.00222130685951871,,
0.00127948305744643,-0.176762433257608,-0.00312610114291489,,
0.00128733264675592,-0.236715820333835,-0.00393103944885764,,
0.00129518223606541,-0.287431455963711,-0.0045744319024017,,
0.0013030318253749,-0.327087410084496,-0.00502633287413534,,
0.00131088141468438,-0.353817846431284,-0.00527870263859231,,
0.00131873100399387,-0.366911754066253,-0.0053469525892873,,
0.00132658059330336,-0.365604356459915,-0.00519735380082631,,
0.00133443018261285,-0.350273147647692,-0.00483482189993278,,
0.00134227977192233,-0.321677938998893,-0.00432489916692225,,
0.00135012936123182,-0.28027034729735,-0.00362357000980884,,
0.00135797895054131,-0.22821078466838,-0.00279669921938597,,
0.0013658285398508,-0.167533335376142,-0.00185510330088556,,
0.00137367812916028,-0.10051069509689,-0.000828630421762622,,
0.00138152771846977,-0.0300769897737561,0.000183854008423801,,
0.00138937730777926,0.0400470668812751,0.00120307040181133,,
0.00139722689708874,0.110374766034559,0.00220859782027727,,
0.00140507648639823,0.176861984719223,0.0031309990492816,,
0.00141292607570772,0.236736035628855,0.00389836842871061,,
0.00142077566501721,0.287165429774335,0.00456179728865491,,
0.00142862525432669,0.326577771857415,0.00502802339608666,,
0.00143647484363618,0.353342786998317,0.00528849845132573,,
0.00144432443294567,0.366288768325342,0.00533497894481494,,
0.00145217402225516,0.36504286777438,0.00519464081434018,,
0.00146002361156464,0.350138130756217,0.00486478702173621,,
0.00146787320087413,0.321224265220131,0.00431580685231703,,
0.00147572279018362,0.280475585739946,0.00363141126728816,,
0.00148357237949311,0.228720032775732,0.00278377221976678,,
0.00149142196880259,0.168233281099848,0.00184009593148549,,
0.00149927155811208,0.101240573643398,0.000813362563131026,,
0.00150712114742157,0.031105274447101,-0.000177332917457917,,
0.00151497073673105,-0.0391248593086397,-0.00121492709193483,,
0.00152282032604054,-0.109916127095617,-0.00220440695611002,,
0.00153066991535003,-0.176814567439501,-0.00312703854974128,,
0.00153851950465952,-0.236783204650568,-0.00391893644578767,,
0.001546369093969,-0.287682480276256,-0.00457327653519801,,
0.00155421868327849,-0.327067123858616,-0.00502954911872866,,
0.00156206827258798,-0.353718897881976,-0.00526750691774369,,
0.00156991786189747,-0.366894163213043,-0.00534373280062272,,
0.00157776745120695,-0.36545909005921,-0.00521049521675154,,
0.00158561704051644,-0.350183278248428,-0.00487646828033617,,
0.00159346662982593,-0.321312148555323,-0.00432244135356097,,
0.00160131621913541,-0.280269496127033,-0.00359933742313467,,
0.0016091658084449,-0.228236532570458,-0.00280442529455227,,
0.00161701539775439,-0.16763490836726,-0.00182754637544713,,
0.00162486498706388,-0.100536159275529,-0.0008337356562933,,
0.00163271457637336,-0.0301066388731186,0.000167230542567065,,
0.00164056416568285,0.0401199838050661,0.00121859343356734,,
0.00164841375499234,0.110470841884048,0.00220881755268998,,
0.00165626334430183,0.176863438801847,0.00313824313076783,,
0.00166411293361131,0.236697981222615,0.00394674854435051,,
0.0016719625229208,0.287135284158954,0.00455750896253049,,
0.00167981211223029,0.326512444535614,0.00502944456862853,,
0.00168766170153978,0.35298866468117,0.00527348576581943,,
0.00169551129084926,0.366046858628271,0.00531772286225296,,
0.00170336088015875,0.364903204911593,0.00520672964112556,,
0.00171121046946824,0.34970321818985,0.00483465532858762,,
0.00171906005877772,0.321236252535424,0.00432085715374431,,
0.00172690964808721,0.280231335324504,0.00363184718804321,,
0.0017347592373967,0.228592038039369,0.0027631811662272,,
0.00174260882670619,0.168077765189915,0.00184676941751238,,
0.00175045841601567,0.101326648241667,0.000842716332656313,,
0.00175830800532516,0.0310672200408618,-0.000162743748457039,,
0.00176615759463465,-0.0390624401520871,-0.00120368884223199,,
0.00177400718394414,-0.109803701682962,-0.00220013457830603,,
0.00178185677325362,-0.176833860633345,-0.0031349701810357,,
0.00178970636256311,-0.236898325435891,-0.00392530159762217,,
0.0017975559518726,-0.287535369673199,-0.00457658315360643,,
0.00180540554118209,-0.327015911777899,-0.00501762509125259,,
0.00181325513049157,-0.35391480891652,-0.00527679770033451,,
0.00182110471980106,-0.366727262900125,-0.00534398088560506,,
0.00182895430911055,-0.365460863330703,-0.00520393868507352,,
0.00183680389842003,-0.350279034909048,-0.00483205575237911,,
0.00184465348772952,-0.321697515916176,-0.00431540282820286,,
0.00185250307703901,-0.280378091273263,-0.00362158001384305,,
0.0018603526663485,-0.228389104849713,-0.00278638242818907,,
0.00186820225565798,-0.167442827599141,-0.00183089729474517,,
0.00187605184496747,-0.100537081376706,-0.000809051200544086,,
0.00188390143427696,-0.0301086958680504,0.000194259401399943,,
0.00189175102358645,0.0401718342635206,0.00119826818536639,,
0.00189960061289593,0.110288372247422,0.00219358513477053,,
0.00190745020220542,0.17669121867445,0.00312040582053275,,
0.00191529979151491,0.236738695536094,0.0039340891221058,,
0.0019231493808244,0.287134078334339,0.00455581135243666,,
0.00193099897013388,0.32643016473834,0.00499490759500665,,
0.00193884855944337,0.353125774033007,0.00527660454845513,,
0.00194669814875286,0.366168398656399,0.00535520141495205,,
0.00195454773806234,0.364951508827062,0.0051729971716612,,
0.00196239732737183,0.350017193640396,0.0048629724572935,,
0.00197024691668132,0.321362225742284,0.00432862575776483,,
0.00197809650599081,0.280325034990193,0.00361444934263444,,
0.00198594609530029,0.228527313629875,0.00277553225427996,,
0.00199379568460978,0.168044356754987,0.00184813034084419,,
0.00200164527391927,0.101273662889457,0.000857993051465833,,
0.00200949486322876,0.0311304903677311,-0.000183391507135422,,
0.00201734445253824,-0.0390674053122674,-0.00120948162657131,,
0.00202519404184773,-0.109826186765493,-0.00222637133723103,,
0.00203304363115722,-0.176746899399329,-0.00312948218681797,,
0.00204089322046671,-0.236781147655636,-0.00393258820796216,,
0.00204874280977619,-0.287539270870483,-0.00455928454219068,,
0.00205659239908568,-0.32684397537394,-0.00501845794797928,,
0.00206444198839517,-0.353736134080888,-0.00528837440883478,,
0.00207229157770465,-0.366716410478588,-0.00534467020744911,,
0.00208014116701414,-0.365749906584058,-0.00520376325355043,,
0.00208799075632363,-0.350625532158775,-0.00484164069287774,,
0.00209584034563312,-0.321501959535931,-0.0043144530171273,,
0.0021036899349426,-0.280414478804299,-0.0036343103175116,,
0.00211153952425209,-0.228440955308168,-0.00279468087085055,,
0.00211938911356158,-0.167644554964181,-0.00182135665513616,,
0.00212723870287107,-0.100482039029564,-0.000828453218203684,,
0.00213508829218055,-0.0300728757838924,0.000206727443801569,,
0.00214293788149004,0.0400892707428078,0.00120786907418546,,
0.00215078747079953,0.110278973908509,0.00220184990875572,,
0.00215863706010902,0.176987000359478,0.00310140959902316,,
0.0021664866494185,0.236587258150594,0.00392244330421754,,
0.00217433623872799,0.286970086186669,0.00456450495903438,,
0.00218218582803748,0.326597348774698,0.00504577210454205,,
0.00219003541734696,0.353152408570831,0.00527486086543583,,
0.00219788500665645,0.366020507813885,0.00532622863307841,,
0.00220573459596594,0.365114366080976,0.00520514544130934,,
0.00221358418527543,0.349919628242853,0.00485480691730089,,
0.00222143377458491,0.321364566460655,0.00431693386695153,,
0.0022292833638944,0.280284923589022,0.00361623555450752,,
0.00223713295320389,0.228461702584635,0.00279208306667744,,
0.00224498254251338,0.168045810837611,0.00183866412672984,,
0.00225283213182286,0.101203973319783,0.000832179809046707,,
0.00226068172113235,0.0310806969042084,-0.000189290613609838,,
0.00226853131044184,-0.039104856806199,-0.00117497654958987,,
0.00227638089975133,-0.109804552853279,-0.00220992330289738,,
0.00228423048906081,-0.176757751820866,-0.00312220975276212,,
0.0022920800783703,-0.236712628445147,-0.00393680388062778,,
0.00229992966767979,-0.287528914964964,-0.0045727484685929,,
0.00230777925698927,-0.326736515121466,-0.00501655478175733,,
0.00231562884629876,-0.353790679912012,-0.00528373521966374,,
0.00232347843560825,-0.366820962565813,-0.00534974886144601,,
0.00233132802491774,-0.365619819387333,-0.00519665030269767,,
0.00233917761422722,-0.3505282859501,-0.00486078044927041,,
0.00234702720353671,-0.321284059934874,-0.00430032989348605,,
0.0023548767928462,-0.280272688015721,-0.0036262918564729,,
0.00236272638215569,-0.22829895172701,-0.00277742656032398,,
0.00237057597146517,-0.167600365038576,-0.00183707283877155,,
0.00237842556077466,-0.100551480341229,-0.000836298019754711,,
0.00238627515008415,-0.0300600372982833,0.000188507373879432,,
0.00239412473939363,0.0401188134458807,0.00123286186412708,,
0.00240197432870312,0.110424524032652,0.00220141398800111,,
0.00240982391801261,0.1767870108005,0.00312242594110401,,
0.0024176735073221,0.236815123537441,0.00390631778036132,,
0.00242552309663158,0.287121523572169,0.0045659084112204,,
0.00243337268594107,0.326503649109009,0.0050197692543148,,
0.00244122227525056,0.353204542752725,0.00528555687224896,,
0.00244907186456005,0.366195352383092,0.00533287022246443,,
0.00245692145386953,0.365135148822874,0.00521577056669864,,
0.00246477104317902,0.350041203736411,0.00482764515579914,,
0.00247262063248851,0.321406734856758,0.00432584720596196,,
0.002480470221798,0.280322410548383,0.00362484055932599,,
0.00248831981110748,0.228570936108603,0.0027794661732865,,
0.00249616940041697,0.168028574638699,0.0018466099343093,,
0.00250401898972646,0.101251390599505,0.000863920510509431,,
0.00251186857903595,0.0311214112176871,-0.000173455703590175,,
0.00251971816834543,-0.0391269163035716,-0.00117032495616964,,
0.00252756775765492,-0.10983207402685,-0.00220213875055686,,
0.00253541734696441,-0.176798962650363,-0.00314417413388313,,
0.00254326693627389,-0.236703549295103,-0.00391340415068031,,
