Time domain (s),Current (AC) (A),Potential (AC) (V),Frequency (Hz),Column 5
0,0.246458277603358,0.00733277179224245,0.079433,0.3
0.0307354153815165,0.244378700510575,0.00727379241909532,,
0.061470830763033,0.241864357184314,0.00722946445234207,,
0.0922062461445495,0.239603225111758,0.00718044081142866,,
0.122941661526066,0.237171354100777,0.00715137629406959,,
0.153677076907582,0.234788348419458,0.00708593535220592,,
0.184412492289099,0.232499596812744,0.00704249033273063,,
0.215147907670615,0.229999546112551,0.00698753438979338,,
0.245883323052132,0.227301716370561,0.0069182029614856,,
0.276618738433648,0.224822718322277,0.00684754962063394,,
0.307354153815165,0.222161392719838,0.00679620824311566,,
0.338089569196681,0.219205909421448,0.00674531837272818,,
0.368824984578198,0.216573941645525,0.00663444828838688,,
0.399560399959714,0.213613243470056,0.00661240470691205,,
0.430295815341231,0.210980116832561,0.00653192606921937,,
0.461031230722747,0.207857178036869,0.00645618323965413,,
0.491766646104264,0.204780593704098,0.00640049485181571,,
0.52250206148578,0.201911252449302,0.00630764742711198,,
0.553237476867297,0.198774793601925,0.00626480441714472,,
0.583972892248813,0.19568507550466,0.00618451641579609,,
0.61470830763033,0.192408973837734,0.00611887731246918,,
0.645443723011846,0.189316358586537,0.00605311780724094,,
0.676179138393363,0.185912564860034,0.00594869925812391,,
0.706914553774879,0.182563865344148,0.00588478591538566,,
0.737649969156396,0.179203939356774,0.00578380132883582,,
0.768385384537912,0.175850773395242,0.0057270694578504,,
0.799120799919429,0.172377858404499,0.00565066190945407,,
0.829856215300945,0.168932176660721,0.00554543315587441,,
0.860591630682462,0.165359020143911,0.0054702321348663,,
0.891327046063978,0.161923768154291,0.00537739223528133,,
0.922062461445495,0.158201891068944,0.00531364946190394,,
0.952797876827011,0.1545292414575,0.00521563228055255,,
0.983533292208528,0.15097716173555,0.00508157228829864,,
1.01426870759004,0.147245217040287,0.00503650435152547,,
1.04500412297156,0.143482248654996,0.00495442788026468,,
1.07573953835308,0.139639246392319,0.0048540954706815,,
1.10647495373459,0.13583583856672,0.00473811833901561,,
1.13721036911611,0.131964323480757,0.00465507363579665,,
1.16794578449763,0.128179071153135,0.00453760903897216,,
1.19868119987914,0.124319868971385,0.00444012363268609,,
1.22941661526066,0.120370444587585,0.00436147109050022,,
1.26015203064218,0.11633277772359,0.00424813025880422,,
1.29088744602369,0.112310610633134,0.00415373767636407,,
1.32162286140521,0.108459110052255,0.00402866016763959,,
1.35235827678673,0.104343799462868,0.00394662633871867,,
1.38309369216824,0.100236600904491,0.00385527139591968,,
1.41382910754976,0.0961065872588964,0.00372981261450756,,
1.44456452293128,0.0920985196509123,0.00363394260040018,,
1.47529993831279,0.0879588729684915,0.00351020957957671,,
1.50603535369431,0.0837504430231222,0.00341786132108979,,
1.53677076907582,0.0795331526153091,0.0033120079826463,,
1.56750618445734,0.0753921539277199,0.00319026159319824,,
1.59824159983886,0.0712017104796818,0.00306720081632506,,
1.62897701522037,0.0669390313269255,0.00297075889318554,,
1.65971243060189,0.062725410647427,0.00285310616839007,,
1.69044784598341,0.0584764446899514,0.00271690402563785,,
1.72118326136492,0.0540822347486574,0.00266397484804282,,
1.75191867674644,0.0498311442116313,0.00250768565471571,,
1.78265409212796,0.0455091699750555,0.00239545854060852,,
1.81338950750947,0.0412016815081425,0.00228497976244713,,
1.84412492289099,0.0369125416828022,0.00218259801216458,,
1.87486033827251,0.0325874771486984,0.00206328223610441,,
1.90559575365402,0.0282627989017855,0.00193221473277827,,
1.93633116903554,0.0239079902539742,0.00182817494797671,,
1.96706658441706,0.0195556924729044,0.00169037497165547,,
1.99780199979857,0.0151885226349808,0.00161426090289396,,
2.02853741518009,0.0108538009211018,0.00148183887817543,,
2.05927283056161,0.00645167209239217,0.00132799534847328,,
2.09000824594312,0.00209570458300781,0.00123186446357959,,
2.12074366132464,-0.00227088582412924,0.00110699514981016,,
2.15147907670615,-0.00664674712385043,0.000996589114464097,,
2.18221449208767,-0.0110606577118858,0.000864799199729038,,
2.21294990746919,-0.0153737473430684,0.000750307024849128,,
2.2436853228507,-0.0197992465468339,0.000628921841105967,,
2.27442073823222,-0.0241084733061065,0.000510724799380302,,
2.30515615361374,-0.0284580670768393,0.00036278347122698,,
2.33589156899525,-0.0327609683833591,0.000253518745573,,
2.36662698437677,-0.0370996978268448,0.000154377813140538,,
2.39736239975829,-0.0414444147217911,2.91222099368937E-06,,
2.4280978151398,-0.0457778327164005,-8.20714545151091E-05,,
2.45883323052132,-0.0500868663320776,-0.000215175756675734,,
2.48956864590284,-0.054414441732923,-0.000342201016994448,,
2.52030406128435,-0.0585909788420848,-0.000459130076194025,,
2.55103947666587,-0.0629148845146157,-0.000573501849172153,,
2.58177489204739,-0.0671395143790578,-0.000688525799117379,,
2.6125103074289,-0.0714108849936118,-0.000828322440305396,,
2.64324572281042,-0.0755594162814257,-0.00095111231290046,,
2.67398113819194,-0.0798302074651931,-0.00108247078748835,,
2.70471655357345,-0.0839770004606475,-0.00116190594203447,,
2.73545196895497,-0.0881651261855395,-0.00131292002705008,,
2.76618738433648,-0.0922912528162751,-0.00142636871878299,,
2.796922799718,-0.096423028897179,-0.00153588428173235,,
2.82765821509952,-0.10054292664696,-0.00163401183149325,,
2.85839363048103,-0.104495417185338,-0.00176725660253929,,
2.88912904586255,-0.108599718589781,-0.00189384791433778,,
2.91986446124407,-0.112666405279001,-0.00199381410147037,,
2.95059987662558,-0.116628649568952,-0.00212747902498522,,
2.9813352920071,-0.120556852300195,-0.00222953970353013,,
3.01207070738862,-0.124428995102844,-0.00237955043936644,,
3.04280612277013,-0.128405049159874,-0.00247071474582139,,
3.07354153815165,-0.132239528961399,-0.00254263481501216,,
3.10427695353317,-0.136140836446969,-0.00269869574640147,,
3.13501236891468,-0.139895354799956,-0.00279778651137486,,
3.1657477842962,-0.143681548702606,-0.00290505457216161,,
3.19648319967772,-0.147570156996772,-0.00303028383744941,,
3.22721861505923,-0.15121723922476,-0.003143610873094,,
3.25795403044075,-0.154909565339996,-0.00323253771087861,,
3.28868944582227,-0.158489288739052,-0.00336890289787295,,
3.31942486120378,-0.161981711232942,-0.00343962898154038,,
3.3501602765853,-0.16564641781402,-0.00355633730392046,,
3.38089569196681,-0.16911991223555,-0.00367861672261993,,
3.41163110734833,-0.17247829307416,-0.00378279446793384,,
3.44236652272985,-0.17607076395052,-0.00389456756653672,,
3.47310193811136,-0.179414272732277,-0.00398534056681177,,
3.50383735349288,-0.182791726500943,-0.00408879590071631,,
3.5345727688744,-0.186026736867926,-0.00417480173820195,,
3.56530818425591,-0.189348999854177,-0.00431732874334534,,
3.59604359963743,-0.192709312128742,-0.00440429905022954,,
3.62677901501895,-0.195585027122189,-0.00451564070868526,,
3.65751443040046,-0.198874890270295,-0.00460665576694996,,
3.68824984578198,-0.202059779874244,-0.00472187913254407,,
3.7189852611635,-0.205218063947913,-0.00480646146838115,,
3.74972067654501,-0.207817776743387,-0.00490074619078484,,
3.78045609192653,-0.211026471295482,-0.00498215794321411,,
3.81119150730805,-0.213969400260164,-0.00505953623194211,,
3.84192692268956,-0.216866361049117,-0.00516722569938421,,
3.87266233807108,-0.219547339012399,-0.00526836329668434,,
3.90339775345259,-0.22233140736978,-0.00536688215262515,,
3.93413316883411,-0.22490292120031,-0.00542592925184238,,
3.96486858421563,-0.227732040301343,-0.00552768892563371,,
3.99560399959714,-0.230280570044008,-0.00562939843196553,,
4.02633941497866,-0.232930113887121,-0.00568243672378399,,
4.05707483036018,-0.235202062001026,-0.0057682920588924,,
4.08781024574169,-0.237611962928018,-0.00587200700939716,,
4.11854566112321,-0.240068508033325,-0.00591322584788001,,
4.14928107650473,-0.242323073223634,-0.00601729322478395,,
4.18001649188624,-0.244501153550124,-0.00607449416151118,,
4.21075190726776,-0.246698113663075,-0.00613755465744648,,
4.24148732264928,-0.248897681214564,-0.00623799994381224,,
4.27222273803079,-0.250948093624426,-0.00628833797215078,,
4.30295815341231,-0.253258477313836,-0.00641180008869569,,
4.33369356879383,-0.254880690372468,-0.00645767321318536,,
4.36442898417534,-0.257042739780531,-0.00654369911765462,,
4.39516439955686,-0.25874278970815,-0.00655494917033028,,
4.42589981493837,-0.260538252571948,-0.00662286462210826,,
4.45663523031989,-0.262381470189735,-0.00671416939744862,,
4.48737064570141,-0.26379392930365,-0.00676100573715033,,
4.51810606108292,-0.26539214427054,-0.00684055126010596,,
4.54884147646444,-0.266995815544003,-0.00692186267761752,,
4.57957689184596,-0.268142315926911,-0.0069668327878456,,
4.61031230722747,-0.269617932996555,-0.00700589442559263,,
4.64104772260899,-0.270933434025528,-0.00704230471313227,,
4.67178313799051,-0.272389785021521,-0.00712129839403897,,
4.70251855337202,-0.27366120102482,-0.00717213809696737,,
4.73325396875354,-0.274783558458289,-0.007199609797504,,
4.76398938413506,-0.275947248621196,-0.00725988098272001,,
4.79472479951657,-0.277142228046575,-0.00729723567267504,,
4.82546021489809,-0.277864198806566,-0.00736091824510199,,
4.85619563027961,-0.278802683537116,-0.00740076124102229,,
4.88693104566112,-0.279542809795084,-0.00743971125617282,,
4.91766646104264,-0.280238851027379,-0.00746380041578787,,
4.94840187642416,-0.280999691935965,-0.00753215984957789,,
4.97913729180567,-0.281513067612813,-0.00751738051616258,,
5.00987270718719,-0.282136728282693,-0.00757672987432034,,
5.04060812256871,-0.282784676759707,-0.00762117698878839,,
5.07134353795022,-0.283327603406667,-0.00767256853376574,,
5.10207895333174,-0.28343870925998,-0.00767470566751793,,
5.13281436871325,-0.283604378179023,-0.00772416074857851,,
5.16354978409477,-0.284211863072779,-0.00773447517814452,,
5.19428519947629,-0.283950491502165,-0.00775628798930805,,
5.2250206148578,-0.284157203435252,-0.00775219432465546,,
5.25575603023932,-0.284518719960135,-0.00782404290521743,,
5.28649144562084,-0.284240448324914,-0.00781476317949314,,
5.31722686100235,-0.284462370316147,-0.00781952783390949,,
5.34796227638387,-0.284120264722612,-0.00783167964666021,,
5.37869769176539,-0.283651505216326,-0.00783509981317643,,
5.4094331071469,-0.283414180023351,-0.00786052593557285,,
5.44016852252842,-0.28311442116313,-0.00786266306932504,,
5.47090393790994,-0.282638660201507,-0.00786434995013341,,
5.50163935329145,-0.281866327248988,-0.00787679022577326,,
5.53237476867297,-0.281437741610567,-0.00789176019553262,,
5.56311018405449,-0.280826635274394,-0.00787727308756603,,
5.593845599436,-0.280128614320246,-0.00789323637301287,,
5.62458101481752,-0.279267966458683,-0.00787867652223095,,
5.65531643019903,-0.278446140459817,-0.00784937872618796,,
5.68605184558055,-0.277576994280052,-0.00784599618526638,,
5.71678726096207,-0.276625230927311,-0.00784733063967513,,
5.74752267634358,-0.275431362077607,-0.00782989243093413,,
5.7782580917251,-0.274474576991383,-0.00784264499900633,,
5.80899350710662,-0.273193407236511,-0.00779438515765607,,
5.83972892248813,-0.271969649415403,-0.00780779993618674,,
5.87046433786965,-0.270784327169799,-0.00777617437004707,,
5.90119975325117,-0.269588140596949,-0.00775929803684683,,
5.93193516863268,-0.267887752668037,-0.00774673610511867,,
5.9626705840142,-0.26659349743457,-0.00771309380712815,,
5.99340599939572,-0.265062641296612,-0.00768729769972154,,
6.02414141477723,-0.263152499422984,-0.00766607686457377,,
6.05487683015875,-0.261619904992665,-0.00764976240691428,,
6.08561224554027,-0.260065630193752,-0.00760729063614329,,
6.11634766092178,-0.257976395921194,-0.00757067842458126,,
6.1470830763033,-0.256080112100543,-0.00753083417447442,,
6.17781849168481,-0.254325981966183,-0.00750039256036628,,
6.20855390706633,-0.252356110435645,-0.00746255626280501,,
6.23928932244785,-0.250266876163087,-0.00744112597851609,,
6.27002473782937,-0.248356492859964,-0.00739372776327363,,
6.30076015321088,-0.245995505548533,-0.00734880907469115,,
6.3314955685924,-0.243593378651259,-0.00729212862535134,,
6.36223098397391,-0.241659431829485,-0.00726682415904278,,
6.39296639935543,-0.239213847623223,-0.00721184187818924,,
6.42370181473695,-0.23675242564213,-0.00713963836285503,,
6.45443723011846,-0.234636730696988,-0.00709385679397823,,
6.48517264549998,-0.231924801472527,-0.00706743861008041,,
6.5159080608815,-0.229601284018623,-0.00700843289901654,,
6.54664347626301,-0.226864246126747,-0.00694931556535705,,
6.57737889164453,-0.224273804223857,-0.00686818349651119,,
6.60811430702605,-0.221466655206813,-0.0068316013854246,,
6.63884972240756,-0.218744875658982,-0.00675254750356658,,
6.66958513778908,-0.215721985245761,-0.00670632320686426,,
6.7003205531706,-0.213015705471468,-0.00663019032530565,,
6.73105596855211,-0.210105176344931,-0.00657423354156172,,
6.76179138393363,-0.207221735607664,-0.00649205798956887,,
6.79252679931515,-0.204262389437363,-0.00644513134844082,,
6.82326221469666,-0.201093482465942,-0.00636740188750018,,
6.85399763007818,-0.197951229310699,-0.00628073258536999,,
6.88473304545969,-0.194829594234277,-0.00620531960684767,,
6.91546846084121,-0.191686423646957,-0.00615692933010381,,
6.94620387622273,-0.188349095460256,-0.00607812628554116,,
6.97693929160424,-0.185074394084398,-0.00597851377899428,,
7.00767470698576,-0.181862754092471,-0.00591202182886441,,
7.03841012236728,-0.178409153461278,-0.00582948632535407,,
7.06914553774879,-0.175044785171207,-0.00573681699512951,,
7.09988095313031,-0.171648017042991,-0.00567430834124272,,
7.13061636851183,-0.168028216347867,-0.00556413182202187,,
7.16135178389334,-0.164525026098528,-0.00549494838771825,,
7.19208719927486,-0.160957277602393,-0.00543048445711758,,
7.22282261465638,-0.157298510186876,-0.00534917429379256,,
7.25355803003789,-0.153738149433268,-0.00524313031900459,,
7.28429344541941,-0.149982858505899,-0.00514283428082907,,
7.31502886080093,-0.146350213761674,-0.0050221915754789,,
7.34576427618244,-0.142587148804586,-0.00497326826948319,,
7.37649969156396,-0.138791732295251,-0.0048757728297053,,
7.40723510694547,-0.134831129725862,-0.00476910677842612,,
7.43797052232699,-0.131144163345402,-0.00467497255839966,,
7.46870593770851,-0.127159659256069,-0.00457518070318708,,
7.49944135309002,-0.123271533820892,-0.00448137633420354,,
7.53017676847154,-0.119396590436109,-0.00436147736143244,,
7.56091218385306,-0.115339995499754,-0.00427554928350826,,
7.59164759923457,-0.111332941895646,-0.00415098222867938,,
7.62238301461609,-0.107303531920359,-0.00407428747158001,,
7.65311842999761,-0.103317820683555,-0.00394262924642419,,
7.68385384537912,-0.0992739732245033,-0.00385006903042351,,
7.71458926076064,-0.0951206133468019,-0.00375279432746511,,
7.74532467614216,-0.0909288178935953,-0.0036443824486132,,
7.77606009152367,-0.0868187221812865,-0.00355759274458123,,
7.80679550690519,-0.0827304516952696,-0.00342990652799013,,
7.83753092228671,-0.0783965025557726,-0.00334758298199356,,
7.86826633766822,-0.0743397144758228,-0.00323111295504397,,
7.89900175304974,-0.0700146982276178,-0.00309893173412856,,
7.92973716843126,-0.0658647666487365,-0.00300823900178759,,
7.96047258381277,-0.0615483935764303,-0.0028896330952719,,
7.99120799919429,-0.0572832518428313,-0.00276674288775913,,
8.02194341457581,-0.0529969608855248,-0.00263808342246419,,
8.05267882995732,-0.0487341368750718,-0.00251231234861971,,
8.08341424533884,-0.0443980148701254,-0.00243087174990109,,
8.11414966072035,-0.0400955481366954,-0.00231497614035625,,
8.14488507610187,-0.0357826516491083,-0.00222791302367265,,
8.17562049148339,-0.0314393833311283,-0.00209036513883332,,
8.2063559068649,-0.027096597872137,-0.00197374586369303,,
8.23709132224642,-0.0228229578203359,-0.00182287224756239,,
8.26782673762794,-0.0184149863978623,-0.00172464436288333,,
8.29856215300945,-0.0140527900075229,-0.00162723044522606,,
8.32929756839097,-0.00969069018898135,-0.00146594081042517,,
8.36003298377249,-0.0053115454481366,-0.00135870285011341,,
8.390768399154,-0.000939160733134459,-0.00125527761668431,,
8.42150381453552,0.00347417042411436,-0.00111830038669059,,
8.45223922991704,0.00783226251304927,-0.00102328321938616,,
8.48297464529855,0.0121698813808608,-0.00088700707963163,,
8.51371006068007,0.0165020922279983,-0.000748325410218964,,
8.54444547606159,0.0208816232560341,-0.000651232564299331,,
8.5751808914431,0.0252207872726096,-0.000538945249241696,,
8.60591630682462,0.0295595650019942,-0.000409164541238294,,
8.63665172220614,0.0338971838698058,-0.000280251730275349,,
8.66738713758765,0.0382218621167186,-0.000172734086380189,,
8.69812255296917,0.0425625712820582,-2.34056279859729E-05,,
8.72885796835068,0.0468455305123424,5.84475980827115E-05,,
8.7595933837322,0.0511810248006034,0.000196689048042487,,
8.79032879911372,0.0554927624266175,0.000323040810224828,,
8.82106421449523,0.059765654046986,0.000441403404564777,,
8.85179962987675,0.0639259912370751,0.000550781007001344,,
8.88253504525827,0.0682891050594931,0.000666898607552202,,
8.91327046063978,0.0725011564472781,0.00077935398359763,,
8.9440058760213,0.0766255447856541,0.000915749271066968,,
8.97474129140282,0.0808264662737482,0.00103320132602658,,
9.00547670678433,0.0850423563904939,0.00117511252561053,,
9.03621212216585,0.0892088500326896,0.00129186474451748,,
9.06694753754737,0.0933257299137904,0.00139719634138791,,
9.09768295292888,0.0974391090672227,0.0015069226076645,,
9.1284183683104,0.101559634533689,0.0016229774988914,,
9.15915378369191,0.105625886649818,0.00174574981287545,,
9.18988919907343,0.109587261793589,0.00186683650023811,,
9.22062461445495,0.113545353496237,0.00197986378531567,,
9.25136002983646,0.117577032908772,0.00211555421998666,,
9.28209544521798,0.121615665490744,0.00222266927002357,,
9.3128308605995,0.125435659522607,0.00234651516762963,,
9.34356627598102,0.129340443592896,0.00242946956942269,,
9.37430169136253,0.133252373976218,0.00256271935721442,,
9.40503710674405,0.13707198172089,0.00266658355590987,,
9.43577252212556,0.140888885455225,0.00279368782997658,,
9.46650793750708,0.144677590224616,0.00288761134667537,,
9.4972433528886,0.148413180505244,0.00301490625708611,,
9.52797876827011,0.152219075054636,0.00309823440644896,,
9.55871418365163,0.155745128677092,0.00322963301500412,,
9.58944959903315,0.159252785372077,0.0033306100764352,,
9.62018501441466,0.16285455128397,0.00346422608667751,,
9.65092042979618,0.166618316386592,0.00354005921766865,,
9.6816558451777,0.170068826720258,0.00366031061683936,,
9.71239126055921,0.173520495915496,0.00376724757239666,,
9.74312667594073,0.176971006249161,0.00386076974942373,,
9.77386209132225,0.180190492699655,0.00398444507766937,,
9.80459750670376,0.183526299880541,0.00409870397386491,,
9.83533292208528,0.186968336038953,0.00416613907222319,,
9.86606833746679,0.19022934836248,0.00428595903124629,,
9.89680375284831,0.193386884004717,0.00438149794012421,,
9.92753916822983,0.196660643805547,0.00449229779002325,,
9.95827458361134,0.199513978284866,0.00456698710294967,,
9.98900999899286,0.202785613506145,0.00469210474564097,,
10.0197454143744,0.205753264851053,0.00477010511086018,,
10.0504808297559,0.20868093547169,0.00486537311545954,,
10.0812162451374,0.2117472831939,0.00497173816198471,,
10.1119516605189,0.214430434022631,0.0050716892988798,,
10.1426870759004,0.217125752897878,0.00514109347000291,,
10.173422491282,0.220082974488628,0.0052538197503269,,
10.2041579066635,0.222808230621179,0.00532498730763287,,
10.234893322045,0.225455649884742,0.00539808129536423,,
10.2656287374265,0.227960529174823,0.00550290118415298,,
10.296364152808,0.230695635630744,0.00559903206904666,,
10.3270995681895,0.233254208840376,0.00566928657859966,,
10.3578349835711,0.235406021637877,0.0057561540421931,,
10.3885703989526,0.238185937407955,0.00584934009724458,,
10.4193058143341,0.240387388109501,0.00590372914789583,,
10.4500412297156,0.242710712419809,0.00599145196666484,,
