Time domain (s),Current (AC) (A),Potential (AC) (V),Frequency (Hz),Column 5
0,0.294151090959181,0.00687582058061187,0.50119,0.5
0.0048712189987829,0.299458669864797,0.00701403019144786,,
0.00974243799756579,0.30484033605339,0.00715741467119635,,
0.0146136569963487,0.310052619348974,0.00730478786109412,,
0.0194848759951316,0.315253269983564,0.00744444096683239,,
0.0243560949939145,0.320507544348101,0.00759062397708865,,
0.0292273139926974,0.325308428657316,0.00771771184168246,,
0.0340985329914803,0.33027075160325,0.00785162313482779,,
0.0389697519902632,0.33524442348674,0.00799401445791625,,
0.0438409709890461,0.340010693536411,0.00813087305402416,,
0.048712189987829,0.344744619114051,0.00825423356548471,,
0.0535834089866119,0.349132685819701,0.00834992642116461,,
0.0584546279853947,0.35397272396348,0.00851093842641015,,
0.0633258469841776,0.358245882676386,0.00860862965804143,,
0.0681970659829605,0.362571813948922,0.00875211063884196,,
0.0730682849817434,0.366980592465611,0.00886197306565562,,
0.0779395039805263,0.371096568393379,0.00897448122964484,,
0.0828107229793092,0.375026989192123,0.00906313755028343,,
0.0876819419780921,0.378967056587789,0.00921433459436605,,
0.092553160976875,0.383064874215469,0.00936788385159115,,
0.0974243799756579,0.386685469018961,0.00943263605747635,,
0.102295598974441,0.3909654370944,0.00953594043363193,,
0.107166817973224,0.394649018501322,0.00964940958726368,,
0.112038036972007,0.398144491268269,0.00975015668554136,,
0.116909255970789,0.401277649203773,0.00986184056971151,,
0.121780474969572,0.404619627590289,0.0099521012203394,,
0.126651693968355,0.408128719082302,0.0100228204079396,,
0.131522912967138,0.411391822352811,0.0101364825636754,,
0.136394131965921,0.414686986371912,0.0102031165400742,,
0.141265350964704,0.4173142654159,0.0102803817157011,,
0.146136569963487,0.420310101206988,0.0103997856840303,,
0.15100778896227,0.423105628250229,0.0104642805537769,,
0.155879007961053,0.425773763469416,0.0105804034863386,,
0.160750226959836,0.428469703585612,0.0106451556922238,,
0.165621445958618,0.43090518558492,0.0106959313290793,,
0.170492664957401,0.433317969709118,0.0108013707910102,,
0.175363883956184,0.435644218184459,0.0108710968219503,,
0.180235102954967,0.437765334613493,0.0109286596994624,,
0.18510632195375,0.439882478914383,0.0110088199066487,,
0.189977540952533,0.442008702365317,0.0110389443183783,,
0.194848759951316,0.443873049082169,0.0111166075608446,,
0.199719978950099,0.445390118309837,0.0111649626296457,,
0.204591197948882,0.447030323509977,0.0112281507143135,,
0.209462416947665,0.448694361478982,0.0112740570689209,,
0.214333635946447,0.450263635819403,0.0113051947416962,,
0.21920485494523,0.451576991617958,0.0114082417817132,,
0.224076073944013,0.453150805533401,0.0114134649011519,,
0.228947292942796,0.454073757880064,0.0114639068052025,,
0.233818511941579,0.455277312707774,0.0114986270795332,,
0.238689730940362,0.456089896636714,0.0115750559127097,,
0.243560949939145,0.456834103216885,0.0115750237456922,,
0.248432168937928,0.45759731926746,0.0116162940289266,,
0.253303387936711,0.457991127400619,0.0116576286461956,,
0.258174606935493,0.458758883026217,0.0116594139156576,,
0.263045825934276,0.458879749211178,0.0116886054838847,,
0.267917044933059,0.459568913444207,0.011736646924267,,
0.272788263931842,0.459703114630795,0.0117436754175535,,
0.277659482930625,0.459440386726396,0.0117666748349445,,
0.282530701929408,0.459816887729784,0.0117771733452257,,
0.287401920928191,0.459355837141611,0.0117671895072218,,
0.292273139926974,0.459451735663951,0.0117804262348531,,
0.297144358925757,0.458873507295523,0.0117844149450019,,
0.30201557792454,0.458521122784439,0.0117936106910812,,
0.306886796923322,0.45796332250361,0.011770357958429,,
0.311758015922105,0.457162938682542,0.0117786892159173,,
0.316629234920888,0.45637106656464,0.0117643105591707,,
0.321500453919671,0.455682469778489,0.0117513633346955,,
0.326371672918454,0.454657376993831,0.0117455571880676,,
0.331242891917237,0.453765634225445,0.011749803234355,,
0.33611411091602,0.45235637990455,0.0117127950809168,,
0.340985329914803,0.450958758244648,0.0116679864257758,,
0.345856548913586,0.449619583613156,0.0116770414411542,,
0.350727767912368,0.448112160982409,0.0116328278758342,,
0.355598986911151,0.446434220564899,0.0116036684746246,,
0.360470205909934,0.444775005894354,0.0115678826678449,,
0.365341424908717,0.442755746179877,0.0115195718286922,,
0.3702126439075,0.440972544366543,0.0115126358155804,,
0.375083862906283,0.438875828153253,0.0114500548833649,,
0.379955081905066,0.436706762463049,0.0114458410040945,,
0.384826300903849,0.434527482729045,0.0113918205193659,,
0.389697519902632,0.432345082037214,0.0113214230019394,,
0.394568738901415,0.429767738318468,0.0113031521360956,,
0.399439957900197,0.427008527875402,0.0112028191881661,,
0.40431117689898,0.424616171838803,0.0111577049463607,,
0.409182395897763,0.422009037158975,0.0111004918851623,,
0.414053614896546,0.418768631763577,0.0110464030455217,,
0.418924833895329,0.415890257476184,0.0109833757959406,,
0.423796052894112,0.413086218729776,0.010915760725513,,
0.428667271892895,0.40966337916318,0.0108433045189771,,
0.433538490891678,0.406261818854501,0.0107574185827057,,
0.438409709890461,0.403288680938523,0.0106241466090302,,
0.443280928889244,0.399734193696289,0.0104593147704768,,
0.448152147888026,0.396014295689191,0.0104316471146957,,
0.453023366886809,0.3927316155014,0.0104465565272283,,
0.457894585885592,0.389170318896634,0.0103752744168246,,
0.462765804884375,0.385129245956728,0.0102991672538217,,
0.467637023883158,0.381190313454818,0.0102119986577347,,
0.472508242881941,0.377303302342222,0.0101063903189629,,
0.477379461880724,0.373159237794005,0.00999512460601837,,
0.482250680879507,0.369380609035059,0.0099417595242679,,
0.48712189987829,0.364850113163094,0.00981754256597078,,
0.491993118877072,0.360593410409643,0.00972551675026656,,
0.496864337875855,0.356242795197924,0.00961791807729773,,
0.501735556874638,0.351783513909116,0.00952135269127297,,
0.506606775873421,0.347157970685127,0.00940510109064219,,
0.511477994872204,0.342474264156168,0.00926905471172157,,
0.516349213870987,0.33781070199137,0.00919419804151733,,
0.52122043286977,0.332991659382067,0.00906813550060104,,
0.526091651868553,0.32800238270944,0.00894242277599799,,
0.530962870867336,0.323140214137428,0.00882755435711235,,
0.535834089866119,0.318064401815944,0.00870899075211096,,
0.540705308864901,0.313001640772647,0.00858106252418978,,
0.545576527863684,0.30770679395635,0.00846768987160962,,
0.550447746862467,0.302398612138426,0.00836388690668555,,
0.55531896586125,0.296811530180088,0.0082076517035139,,
0.560190184860033,0.291606339970476,0.00808618904607528,,
0.565061403858816,0.286226376122516,0.00794320665404324,,
0.569932622857599,0.280511618616684,0.00781683852646253,,
0.574803841856382,0.274783242385785,0.00766447944887849,,
0.579675060855165,0.269232193304184,0.00753561837745442,,
0.584546279853947,0.26348480760288,0.00739265206893114,,
0.58941749885273,0.257708233852803,0.00724074332958979,,
0.594288717851513,0.251928184490599,0.0071474750628413,,
0.599159936850296,0.246095930015642,0.00696312990740022,,
0.604031155849079,0.239898026958834,0.00682905375829135,,
0.608902374847862,0.233844787390422,0.00667460382458129,,
0.613773593846645,0.227846022722275,0.00653375651832455,,
0.618644812845428,0.221586232490363,0.00635561959722786,,
0.623516031844211,0.21539964290568,0.00620580171401297,,
0.628387250842994,0.209240893683437,0.00604805466102665,,
0.633258469841776,0.202790973282047,0.0058992862267524,,
0.638129688840559,0.196412586652685,0.00574561634321213,,
0.643000907839342,0.190070232900059,0.00559481736596901,,
0.647872126838125,0.183635952753238,0.00543642697263591,,
0.652743345836908,0.177065485355757,0.00525811313294389,,
0.657614564835691,0.170687666173272,0.00508922020845271,,
0.662485783834474,0.16406924951462,0.00496021840632777,,
0.667357002833257,0.157343585396074,0.00478535447924422,,
0.67222822183204,0.15066274958087,0.0045956494945405,,
0.677099440830823,0.144027557773895,0.00443536124718458,,
0.681970659829605,0.137223337728209,0.00427521775140693,,
0.686841878828388,0.130467598925142,0.00408924414071343,,
0.691713097827171,0.123722889870761,0.00393164183930494,,
0.696584316825954,0.116878664820195,0.00377077458563724,,
0.701455535824737,0.110029581005737,0.00363491316706677,,
0.70632675482352,0.103094245265862,0.00342505554600558,,
0.711197973822303,0.0961461419712367,0.00325315902627077,,
0.716069192821086,0.0892917028768705,0.00307671087358408,,
0.720940411819869,0.0823937831654967,0.00292269117373056,,
0.725811630818652,0.0753611302860868,0.00275685411588578,,
0.730682849817434,0.0684360085900108,0.00256369117681876,,
0.735554068816217,0.0613738484729579,0.00237474211702216,,
0.740425287815,0.0543990751750786,0.0021776387183321,,
0.745296506813783,0.0473193242048154,0.00203031377896057,,
0.750167725812566,0.0402792945159948,0.00186028294623108,,
0.755038944811349,0.0333107631337708,0.00167691486394128,,
0.759910163810132,0.026200370032109,0.00147967475542776,,
0.764781382808915,0.0191810521543263,0.00129293315719536,,
0.769652601807698,0.0120820079902195,0.00111694740538271,,
0.77452382080648,0.00500594542466164,0.000920583848091461,,
0.779395039805263,-0.00212288970052707,0.000771923977500588,,
0.784266258804046,-0.00918072303513716,0.000557398118049335,,
0.789137477802829,-0.016256289084677,0.000422541918770225,,
0.794008696801612,-0.0233044758223653,0.000215494890848156,,
0.798879915800395,-0.0303967815547988,5.33449773647554E-05,,
0.803751134799178,-0.037478802312573,-0.000150095323739219,,
0.808622353797961,-0.0444623710370574,-0.000305108180252756,,
0.813493572796744,-0.051539001049493,-0.000480402341192843,,
0.818364791795526,-0.0585529281819371,-0.000691771812068698,,
0.823236010794309,-0.0655544424139304,-0.000862677185581529,,
0.828107229793092,-0.0725589357420318,-0.00103431837961621,,
0.832978448791875,-0.0795334253164722,-0.00121958431592839,,
0.837849667790658,-0.0865218882702772,-0.0013985294333354,,
0.842720886789441,-0.0935221257467956,-0.00156373923434261,,
0.847592105788224,-0.100380572434736,-0.0017674368715852,,
0.852463324787007,-0.107307680194884,-0.001930587983483,,
0.85733454378579,-0.114236703088245,-0.00211992304748776,,
0.862205762784573,-0.121012160670314,-0.00229027957126782,,
0.867076981783355,-0.127881885364949,-0.0024684707742062,,
0.871948200782138,-0.13452328362215,-0.00262965768760859,,
0.876819419780921,-0.14135399634394,-0.00283176305749322,,
0.881690638779704,-0.148069375487827,-0.00298138793860359,,
0.886561857778487,-0.154750211303031,-0.00314503763927032,,
0.89143307677727,-0.16138196296331,-0.00334764159792345,,
0.896304295776053,-0.168132311021038,-0.00349155884389685,,
0.901175514774836,-0.174528217572752,-0.00368156740482695,,
0.906046733773619,-0.181195576524609,-0.00387672469896838,,
0.910917952772402,-0.18755431530583,-0.00401578271488612,,
0.915789171771184,-0.193910287783521,-0.00421219452270316,,
0.920660390769967,-0.200240725151714,-0.00439848980357027,,
0.92553160976875,-0.206537966877558,-0.004541922533845,,
0.930402828767533,-0.212864148394168,-0.00468036937643346,,
0.935274047766316,-0.219093580218121,-0.00486116409733706,,
0.940145266765099,-0.225378621836094,-0.00501720830884356,,
0.945016485763882,-0.231423633424777,-0.0051826895190592,,
0.949887704762665,-0.237562912126028,-0.00534337985413158,,
0.954758923761448,-0.243566145438337,-0.00550328209727935,,
0.959630142760231,-0.249535402868841,-0.0056633451755137,,
0.964501361759013,-0.255693620109636,-0.00583099966983758,,
0.969372580757796,-0.261036416187103,-0.00597861411236522,,
0.974243799756579,-0.267069227667915,-0.00615952141782961,,
0.979115018755362,-0.272864917284687,-0.00628823773767584,,
0.983986237754145,-0.278406248838507,-0.00642901668902063,,
0.988857456752928,-0.284118169109951,-0.00656971522282213,,
0.993728675751711,-0.289537286792475,-0.00671264936432836,,
0.998599894750494,-0.29487554329492,-0.00687158659695619,,
1.00347111374928,-0.300626049954051,-0.00703795240014848,,
1.00834233274806,-0.305594260161342,-0.00716930842585439,,
1.01321355174684,-0.31094195046813,-0.00731264465507708,,
1.01808477074563,-0.316260630053292,-0.00741115614565002,,
1.02295598974441,-0.321139751100776,-0.00756420480366815,,
1.02782720874319,-0.326384237006672,-0.00773076762984148,,
1.03269842774197,-0.331121780058158,-0.00786905363734336,,
1.03756964674076,-0.336084954174409,-0.00798905068505462,,
1.04244086573954,-0.340909671252489,-0.00811418440334544,,
1.04731208473832,-0.345426832122827,-0.00828101662828917,,
1.05218330373711,-0.350008114490352,-0.00839480745209453,,
1.05705452273589,-0.354946604667421,-0.00852246024992986,,
1.06192574173467,-0.359095492514099,-0.00863982161265886,,
1.06679696073345,-0.363731817228765,-0.00876114152895768,,
1.07166817973224,-0.367545343970693,-0.00886854719982244,,
1.07653939873102,-0.371994978662579,-0.00902873693568784,,
1.0814106177298,-0.376149540978034,-0.00910647054350422,,
1.08628183672859,-0.379975196896974,-0.00921392446489522,,
1.09115305572737,-0.384100393836506,-0.00932089789146495,,
1.09602427472615,-0.387867035280158,-0.00942143389369132,,
1.10089549372493,-0.391650203614126,-0.00956156950468978,,
1.10576671272372,-0.395492386423379,-0.00963521388042832,,
1.1106379317225,-0.398841174172428,-0.00973956770552409,,
1.11550915072128,-0.402403109154933,-0.00983454082419088,,
1.12038036972007,-0.405961852248749,-0.00994451784600381,,
1.12525158871885,-0.409004431476392,-0.0100223620279425,,
1.13012280771763,-0.412648291601871,-0.0101206483493947,,
1.13499402671641,-0.415610364303733,-0.0102480478319689,,
1.1398652457152,-0.418335527934133,-0.0103337729331532,,
1.14473646471398,-0.421328810214271,-0.010399343387542,,
1.14960768371276,-0.424345641539835,-0.0104930459090244,,
1.15447890271155,-0.426672173738615,-0.0105461214876192,,
1.15935012171033,-0.42907814850028,-0.010644711385297,,
1.16422134070911,-0.431582291571797,-0.0107101250254762,,
1.16909255970789,-0.434511665147328,-0.0107712926193679,,
1.17396377870668,-0.436240746714695,-0.0108733726384265,,
1.17883499770546,-0.438632535304417,-0.0109242769433511,,
1.18370621670424,-0.440657185764233,-0.0109744735738948,,
1.18857743570303,-0.442980880728624,-0.0110772311107556,,
1.19344865470181,-0.44496297267261,-0.0110900979176876,,
1.19831987370059,-0.446580763721078,-0.0111574375580292,,
1.20319109269938,-0.447905468457189,-0.0112086816270747,,
1.20806231169816,-0.449580855363749,-0.0112787112342407,,
1.21293353069694,-0.451412006438252,-0.0113089783871096,,
1.21780474969572,-0.452502923060729,-0.0113821744350444,,
1.22267596869451,-0.45377194707196,-0.0114076828797871,,
1.22754718769329,-0.454920530483388,-0.0114484384907443,,
1.23241840669207,-0.455903915922531,-0.0114976861942764,,
1.23728962569086,-0.456978731239852,-0.0115058244496611,,
1.24216084468964,-0.457680379304191,-0.0115712843299276,,
1.24703206368842,-0.45828612884619,-0.011596085100289,,
1.2519032826872,-0.458699442965772,-0.011612327433602,,
1.25677450168599,-0.459431165714633,-0.011638674231234,,
1.26164572068477,-0.459804262036754,-0.0116854108969759,,
1.26651693968355,-0.4601308277149,-0.0116830647151493,,
1.27138815868234,-0.460333689973696,-0.0117233056538293,,
1.27625937768112,-0.460360998354688,-0.0117244154159275,,
1.2811305966799,-0.460604929581261,-0.0117363011288307,,
1.28600181567868,-0.460286875606282,-0.0117542503245009,,
1.29087303467747,-0.459791778205444,-0.0117371676278601,,
1.29574425367625,-0.459695312236226,-0.0117493589274282,,
1.30061547267503,-0.459223196433937,-0.0117488301820807,,
1.30548669167382,-0.458467711847071,-0.0117383276509226,,
1.3103579106726,-0.458255202991353,-0.0117458386494693,,
1.31522912967138,-0.457104633515853,-0.0117485889294509,,
1.32010034867016,-0.455963852498993,-0.0117321194165778,,
1.32497156766895,-0.455116228725353,-0.0117181267640394,,
1.32984278666773,-0.453979065182339,-0.0116975720399655,,
1.33471400566651,-0.452864670445295,-0.0116606282205618,,
1.3395852246653,-0.451238935140538,-0.011668734308929,,
1.34445644366408,-0.44975733134273,-0.0116295387983123,,
1.34932766266286,-0.4480186741093,-0.0116138573773639,,
1.35419888166165,-0.446662476071474,-0.0116088232391518,,
1.35907010066043,-0.444882962662847,-0.0115582727714174,,
1.36394131965921,-0.442984285409891,-0.0114927003065901,,
1.36881253865799,-0.441309182226769,-0.0114728210898805,,
1.37368375765678,-0.438950589279396,-0.0114387240515104,,
1.37855497665556,-0.436851532347735,-0.0113442997825768,,
1.38342619565434,-0.434615862580255,-0.011329468777149,,
1.38829741465313,-0.432090440250823,-0.0113044126810875,,
1.39316863365191,-0.429698084214224,-0.0112373102724983,,
1.39803985265069,-0.427109107834484,-0.0111971819183792,,
1.40291107164947,-0.424635039447488,-0.0111116176522814,,
1.40778229064826,-0.421625584931335,-0.0110788072946044,,
1.41265350964704,-0.418604001238169,-0.0109995638474119,,
1.41752472864582,-0.41600984690567,-0.0109455554253151,,
1.42239594764461,-0.412450820088414,-0.0108762857639331,,
1.42726716664339,-0.409846806366414,-0.0108049875700211,,
1.43213838564217,-0.406179751849806,-0.01073164476007,,
1.43700960464095,-0.402893596049889,-0.0106577732047715,,
1.44188082363974,-0.39929506074377,-0.0105887267020726,,
1.44675204263852,-0.395947124165037,-0.0105076497348922,,
1.4516232616373,-0.392237511132598,-0.0104241280743951,,
1.45649448063609,-0.388692954210725,-0.0103424721009024,,
1.46136569963487,-0.384823604882199,-0.0102545777364869,,
1.46623691863365,-0.380700961453617,-0.0101667436852284,,
1.47110813763243,-0.376412481675012,-0.0101084711228965,,
1.47597935663122,-0.37265832406267,-0.00997943514331556,,
1.48085057563,-0.368470849828305,-0.00991132148411911,,
1.48572179462878,-0.363924465443762,-0.00975188767316171,,
1.49059301362757,-0.359910913677427,-0.00967069611098204,,
1.49546423262635,-0.355227490871908,-0.0095683567453464,,
1.50033545162513,-0.350867512786706,-0.00947542422184133,,
1.50520667062391,-0.346140467502459,-0.00935493059580006,,
1.5100778896227,-0.341479033263452,-0.00926492527087186,,
1.51494910862148,-0.336656940627182,-0.00916483558601122,,
1.51982032762026,-0.331928122071442,-0.00903121580646049,,
1.52469154661905,-0.326850607409324,-0.00893389449552862,,
1.52956276561783,-0.321632365921524,-0.00877966973093969,,
1.53443398461661,-0.316731610961825,-0.00867731629223423,,
1.5393052036154,-0.311631965871475,-0.00855005955079902,,
1.54417642261418,-0.306585660787633,-0.00844440899281729,,
1.54904764161296,-0.30105014556431,-0.00830716841337864,,
1.55391886061174,-0.295656633922145,-0.00816405735327708,,
1.55879007961053,-0.290370086016435,-0.00803337683493544,,
1.56366129860931,-0.284913162185681,-0.00790774854875309,,
1.56853251760809,-0.279295154372504,-0.00778517813965518,,
1.57340373660688,-0.273518616087857,-0.00763502250275883,,
1.57827495560566,-0.267786977037411,-0.00751005364043156,,
1.58314617460444,-0.262060941524883,-0.00734921855378134,,
1.58801739360322,-0.256050331403163,-0.00722521470197401,,
1.59288861260201,-0.250271665192723,-0.00708118688187875,,
1.59775983160079,-0.244475195336495,-0.00693828289695153,,
1.60263105059957,-0.238497993649702,-0.00676226698855986,,
1.60750226959836,-0.232238983657246,-0.0066414014313807,,
1.61237348859714,-0.226012743721981,-0.00647396808530099,,
1.61724470759592,-0.219884884889145,-0.00634546286150606,,
1.6221159265947,-0.213690634771613,-0.00618697596712092,,
1.62698714559349,-0.207392187221153,-0.00604642419533574,,
1.63185836459227,-0.201246311949949,-0.00588801570805542,,
1.63672958359105,-0.19479628515227,-0.0057151984074495,,
1.64160080258984,-0.188349592104998,-0.00555454224983309,,
1.64647202158862,-0.181879562804879,-0.00540393426425556,,
1.6513432405874,-0.175424287123581,-0.00526831811919193,,
1.65621445958618,-0.168844173129177,-0.0050737418418012,,
1.66108567858497,-0.162251859026902,-0.00492665614462107,,
1.66595689758375,-0.155735015359368,-0.00473875251288725,,
