Time domain (s),Current (AC) (A),Potential (AC) (V),Frequency (Hz),Column 5
0,-0.133331133854213,-0.00260904291946273,3.9811,0.4
0.000613249164803697,-0.138841233507951,-0.00274282327241737,,
0.00122649832960739,-0.144129285921962,-0.00283983124534304,,
0.00183974749441109,-0.149446112607476,-0.00297021166321043,,
0.00245299665921479,-0.154512233341083,-0.00311481186342499,,
0.00306624582401849,-0.1600110659608,-0.00323153534149689,,
0.00367949498882218,-0.165176047695493,-0.00336515324802411,,
0.00429274415362588,-0.17016867269948,-0.00349300545036568,,
0.00490599331842958,-0.175095891126477,-0.00360659897473692,,
0.00551924248323328,-0.180282886912259,-0.00373862444867967,,
0.00613249164803697,-0.185397311443008,-0.00387328567310741,,
0.00674574081284067,-0.190314649547863,-0.00400944781100554,,
0.00735898997764437,-0.195111459278512,-0.00412785524077597,,
0.00797223914244807,-0.200230448402531,-0.00422993566059837,,
0.00858548830725176,-0.204945557691605,-0.0043388800139752,,
0.00919873747205546,-0.209760914693645,-0.00449005128657909,,
0.00981198663685916,-0.214512714067868,-0.00459736659972565,,
0.0104252358016629,-0.21903039025308,-0.00471427082804787,,
0.0110384849664666,-0.223702915931517,-0.00482254022795869,,
0.0116517341312702,-0.228437612525891,-0.0049258653077322,,
0.0122649832960739,-0.233123080848538,-0.00503479135728613,,
0.0128782324608776,-0.2373759528444,-0.00517904378486733,,
0.0134914816256813,-0.241954355454007,-0.00529457751445639,,
0.014104730790485,-0.246284132179527,-0.00539810622425874,,
0.0147179799552887,-0.250621998057679,-0.00547962916308542,,
0.0153312291200924,-0.254787449425462,-0.00560336300529451,,
0.0159444782848961,-0.259300734356388,-0.00568122746753641,,
0.0165577274496998,-0.263109800771104,-0.00581248418092084,,
0.0171709766145035,-0.267339040885351,-0.00590499170141268,,
0.0177842257793072,-0.271352416183667,-0.00599599830843367,,
0.0183974749441109,-0.275057016970118,-0.00608491827965452,,
0.0190107241089146,-0.279109682438357,-0.0061810316532398,,
0.0196239732737183,-0.283026276803407,-0.00628739516760035,,
0.020237222438522,-0.28679391520072,-0.00640660796557446,,
0.0208504716033257,-0.290174949881922,-0.0064652168062187,,
0.0214637207681294,-0.293634102665676,-0.00656779142925679,,
0.0220769699329331,-0.29753053192881,-0.00667146656964146,,
0.0226902190977368,-0.300687670421112,-0.00675961549232618,,
0.0233034682625405,-0.304402382648352,-0.00685203149370395,,
0.0239167174273442,-0.30756778363227,-0.00695023150309027,,
0.0245299665921479,-0.311023469636326,-0.00700600325119805,,
0.0251432157569516,-0.314039105737243,-0.00709312944778295,,
0.0257564649217553,-0.317106974652294,-0.00719958676923538,,
0.026369714086559,-0.320189115143772,-0.00726701576449695,,
0.0269829632513627,-0.323353129415811,-0.00732966974998206,,
0.0275962124161664,-0.326095698835763,-0.00741835177150607,,
0.0282094615809701,-0.328854966577933,-0.00749334253356659,,
0.0288227107457738,-0.331485385674619,-0.00757133283459055,,
0.0294359599105775,-0.334064843109729,-0.0076370252546627,,
0.0300492090753812,-0.336996063124974,-0.00769539843358791,,
0.0306624582401849,-0.339511096237342,-0.00776843068660771,,
0.0312757074049886,-0.341769703211301,-0.00781446480097969,,
0.0318889565697923,-0.343996762489998,-0.00788702115460671,,
0.032502205734596,-0.346103351174152,-0.00795976054646141,,
0.0331154548993997,-0.348478326386677,-0.00803656338698033,,
0.0337287040642034,-0.350632583291694,-0.00809312219946934,,
0.0343419532290071,-0.352763208315094,-0.00814250591341592,,
0.0349552023938107,-0.354655838912152,-0.00819838748446067,,
0.0355684515586144,-0.356444812796207,-0.00822692314422468,,
0.0361817007234181,-0.358255627392367,-0.00828153946351762,,
0.0367949498882218,-0.359834341087672,-0.00835569282568471,,
0.0374081990530255,-0.361469736631057,-0.00840256662792838,,
0.0380214482178292,-0.363003671088583,-0.00843132193356588,,
0.0386346973826329,-0.364102871371842,-0.00848594282881487,,
0.0392479465474366,-0.365569261404896,-0.0085153936797191,,
0.0398611957122403,-0.366774602926609,-0.00855373790053227,,
0.040474444877044,-0.367914248973024,-0.00859378666484512,,
0.0410876940418477,-0.369108901257332,-0.00863835647339206,,
0.0417009432066514,-0.369992236724661,-0.00864437843109744,,
0.0423141923714551,-0.370723207224214,-0.00868922279698658,,
0.0429274415362588,-0.371677322777066,-0.00872756701779975,,
0.0435406907010625,-0.372441863260039,-0.00876534839606169,,
0.0441539398658662,-0.373397365524771,-0.00877008908616972,,
0.0447671890306699,-0.373966610751362,-0.00878266152446372,,
0.0453804381954736,-0.374174386414661,-0.00880830746820127,,
0.0459936873602773,-0.374775930472115,-0.00884555574762347,,
0.046606936525081,-0.374797193387603,-0.00884947047772755,,
0.0472201856898847,-0.374610911758439,-0.00887271862067651,,
0.0478334348546884,-0.374986248440527,-0.00885631839543688,,
0.0484466840194921,-0.375237994426343,-0.00889810602291652,,
0.0490599331842958,-0.375247181392545,-0.0089069444813572,,
0.0496731823490995,-0.37469527006445,-0.0088913153046537,,
0.0502864315139032,-0.374628014538287,-0.00888172410150023,,
0.0508996806787069,-0.374143647634662,-0.0088897411758917,,
0.0515129298435106,-0.374064778396508,-0.00888825627826595,,
0.0521261790083143,-0.373638191154535,-0.00888232583967508,,
0.052739428173118,-0.372700485025592,-0.00889349345956791,,
0.0533526773379217,-0.372037694526787,-0.0088992408599311,,
0.0539659265027254,-0.371387326655237,-0.00885673709538404,,
0.0545791756675291,-0.37050231557772,-0.00885199640527556,,
0.0551924248323328,-0.369481406735999,-0.0088326332487183,,
0.0558056739971365,-0.368560167810627,-0.00882501657045065,,
0.0564189231619402,-0.367293002050947,-0.0088228590073367,,
0.0570321723267439,-0.366278102294038,-0.00877506772597458,,
0.0576454214915475,-0.364813330091509,-0.00876005859126883,,
0.0582586706563513,-0.363450654551119,-0.00876278357289006,,
0.0588719198211549,-0.361894301584873,-0.00873933637586788,,
0.0594851689859586,-0.360394572687046,-0.008720556653663,,
0.0600984181507623,-0.358588611582465,-0.00866670909492795,,
0.060711667315566,-0.357068602023398,-0.00862739248352762,,
0.0613249164803697,-0.355103515730628,-0.00861029671302127,,
0.0619381656451734,-0.353335515863753,-0.00857132787425474,,
0.0625514148099771,-0.351462992588949,-0.00852375623876656,,
0.0631646639747808,-0.349388009379719,-0.0084925299170493,,
0.0637779131395845,-0.347272811525979,-0.0084521356680809,,
0.0643911623043882,-0.345009928857058,-0.00841283507252566,,
0.0650044114691919,-0.342557297779273,-0.00839081557368315,,
0.0656176606339956,-0.340286499296706,-0.00830277189797979,,
0.0662309097987993,-0.33764735547111,-0.00823786654228842,,
0.066844158963603,-0.335148558443666,-0.00819071818270256,,
0.0674574081284067,-0.332726666145879,-0.00817909525521721,,
0.0680706572932104,-0.330024889167053,-0.00808534307477426,,
0.0686839064580141,-0.327146075304926,-0.00804498314547386,,
0.0692971556228178,-0.324478677224783,-0.0079620851319584,,
0.0699104047876215,-0.321427968869243,-0.00791623405581454,,
0.0705236539524252,-0.318658011889668,-0.00782166049132282,,
0.0711369031172289,-0.315205330428018,-0.007788272030536,,
0.0717501522820326,-0.312123132156878,-0.00773145696452771,,
0.0723634014468363,-0.309010599563371,-0.00768038701090434,,
0.07297665061164,-0.305456457015861,-0.00758308388883577,,
0.0735898997764437,-0.302338030896865,-0.00751744638023233,,
0.0742031489412474,-0.298764994399995,-0.00748647860001217,,
0.0748163981060511,-0.295533031245854,-0.00735761968741588,,
0.0754296472708548,-0.291663122847419,-0.00729286076230729,,
0.0760428964356585,-0.288056747485776,-0.00723685106450267,,
0.0766561456004622,-0.284485733277064,-0.00713632875759718,,
0.0772693947652659,-0.2805070835554,-0.0070604205164182,,
0.0778826439300696,-0.27665381569952,-0.00695993024120245,,
0.0784958930948733,-0.272721331927516,-0.00686669285577635,,
0.079109142259677,-0.268636309848751,-0.00679320300718622,,
0.0797223914244806,-0.264767383704564,-0.0067050334927008,,
0.0803356405892844,-0.260686752880085,-0.00660266021171374,,
0.0809488897540881,-0.256511594529144,-0.00651232855815875,,
0.0815621389188917,-0.252207009736104,-0.0064181576777691,,
0.0821753880836954,-0.24783511163724,-0.00632004918749685,,
0.0827886372484991,-0.243662322252427,-0.00623083635511135,,
0.0834018864133028,-0.239107667083759,-0.00613783463140383,,
0.0840151355781065,-0.234739582442564,-0.00601849370666985,,
0.0846283847429102,-0.230477465700837,-0.00590923590032721,,
0.0852416339077139,-0.225662108698797,-0.00581541050459311,,
0.0858548830725176,-0.221075848055206,-0.00572274053767385,,
0.0864681322373213,-0.216322315291133,-0.00560735323866712,,
0.087081381402125,-0.211549773018377,-0.00552938124146607,,
0.0876946305669287,-0.206818600983364,-0.0054076585317886,,
0.0883078797317324,-0.202227833526163,-0.00530923658855098,,
0.0889211288965361,-0.197246995573153,-0.00520635080052489,,
0.0895343780613398,-0.192286958298338,-0.00508930014162035,,
0.0901476272261435,-0.187379616074949,-0.00498826303969802,,
0.0907608763909472,-0.182287841171568,-0.00484758214554315,,
0.0913741255557509,-0.177408926541712,-0.00472646346201877,,
0.0919873747205546,-0.17223140662044,-0.00462352276252398,,
0.0926006238853583,-0.16700951191902,-0.00447216845169196,,
0.093213873050162,-0.161937902117555,-0.00437336441615299,,
0.0938271222149657,-0.156750155196171,-0.00426176829644609,,
0.0944403713797694,-0.151508153172496,-0.00413173565121205,,
0.0950536205445731,-0.146153827486571,-0.00403520128970181,,
0.0956668697093768,-0.140877619903198,-0.00387606785417471,,
0.0962801188741805,-0.135614123845389,-0.00377521379048051,,
0.0968933680389842,-0.130200689565594,-0.00364926747368921,,
0.0975066172037879,-0.124800544607979,-0.00351828074169136,,
0.0981198663685916,-0.119406004277544,-0.00341177079674848,,
0.0987331155333953,-0.113826337911177,-0.00328767316606138,,
0.099346364698199,-0.108387653919241,-0.00314627613483864,,
0.0999596138630027,-0.102656662619009,-0.00303564782976329,,
0.100572863027806,-0.0971814041012466,-0.00288605068592096,,
0.10118611219261,-0.0917011187529208,-0.00274295139917724,,
0.101799361357414,-0.0860546590976851,-0.00262243902978287,,
0.102412610522217,-0.0803991858152317,-0.0025224086381157,,
0.103025859687021,-0.0748047278554824,-0.00235937877630743,,
0.103639108851825,-0.0691053998098356,-0.00221181106881962,,
0.104252358016629,-0.0634817631209522,-0.00212658618182893,,
0.104865607181432,-0.0577652745157949,-0.00198837630375381,,
0.105478856346236,-0.0520626530294339,-0.00184269846597118,,
0.10609210551104,-0.04637112523811,-0.00168381670800777,,
0.106705354675843,-0.040684913175658,-0.00159156772901303,,
0.107318603840647,-0.0349279788073446,-0.00144465895914658,,
0.107931853005451,-0.0291594885067008,-0.00131095410946092,,
0.108545102170254,-0.0234087943418457,-0.00118374025293955,,
0.109158351335058,-0.0176689049737195,-0.00104891200612878,,
0.109771600499862,-0.011872507096498,-0.000904369005360728,,
0.110384849664666,-0.00615971638968638,-0.00078319769834545,,
0.110998098829469,-0.000382212461824978,-0.000602685397773861,,
0.111611347994273,0.00536804835556772,-0.000501428649978042,,
0.112224597159077,0.0112382019708874,-0.000367646009045153,,
0.11283784632388,0.0170112857546324,-0.000223521708223817,,
0.113451095488684,0.0227261854190944,-0.000102258882094475,,
0.114064344653488,0.0284789596517689,2.4586609992383E-05,,
0.114677593818291,0.0341464799936766,0.000183660558095156,,
0.115290842983095,0.0399530470913487,0.000321360217109934,,
0.115904092147899,0.0456122471619786,0.000476324956991458,,
0.116517341312703,0.0513541877080934,0.00062262741272745,,
0.117130590477506,0.0569781999647775,0.000734482073931453,,
0.11774383964231,0.0627235784007607,0.000885744865649851,,
0.118357088807114,0.0684218086328361,0.000989911921272402,,
0.118970337971917,0.0740403029318325,0.00116698310315533,,
0.119583587136721,0.0797165768924804,0.00128412756915219,,
0.120196836301525,0.0852950876656138,0.00140960027452808,,
0.120810085466328,0.0908821498286718,0.00156062511654964,,
0.121423334631132,0.0963984896858682,0.00168696267755353,,
0.122036583795936,0.101969835780957,0.00183471113529166,,
0.122649832960739,0.107606357334388,0.00194894071750573,,
0.123263082125543,0.113073468919858,0.00210423492619816,,
0.123876331290347,0.118572937115852,0.00222045962509831,,
0.124489580455151,0.12402040361636,0.00235762389729555,,
0.125102829619954,0.12950993371055,0.00248449226916092,,
0.125716078784758,0.134752397971518,0.00261377216968173,,
0.126329327949562,0.140191804209225,0.00275535223913259,,
0.126942577114365,0.145534285064512,0.00286848816793306,,
0.127555826279169,0.150784665139127,0.00301953131377752,,
0.128169075443973,0.155997979560791,0.00314289907953036,,
0.128782324608776,0.1610333615144,0.00324820097216749,,
0.12939557377358,0.166431137505888,0.0033707633697162,,
0.130008822938384,0.171558273562199,0.003492355664656,,
0.130622072103188,0.1765737793122,0.00365801898897145,,
0.131235321267991,0.181728418487458,0.00377205638104572,,
0.131848570432795,0.186722892440618,0.00391110594699251,,
0.132461819597599,0.191760556690862,0.00399496033525004,,
0.133075068762402,0.196492277632661,0.00414728474869097,,
0.133688317927206,0.201457197288886,0.00424722362124452,,
0.13430156709201,0.206184700315385,0.00439348946933515,,
0.134914816256813,0.211076095352158,0.0044817688067571,,
0.135528065421617,0.215755756818809,0.00460923662881951,,
0.136141314586421,0.220256821351295,0.0047268203865638,,
0.136754563751224,0.225002149403413,0.00484121470318266,,
0.137367812916028,0.229900709118232,0.00494644338052863,,
0.137981062080832,0.234149392088624,0.00505506284105062,,
0.138594311245636,0.238788405563303,0.00516250170500099,,
0.139207560410439,0.242865771836899,0.00529570319955974,,
0.139820809575243,0.247314805784068,0.00539974212842287,,
0.140434058740047,0.251646662577407,0.00549777740340351,,
0.14104730790485,0.255951709607741,0.00562182241060061,,
0.141660557069654,0.259861774871024,0.00573660568345424,,
0.142273806234458,0.264100721968428,0.00580718522421719,,
0.142887055399261,0.26814576052133,0.00588501307881373,,
0.143500304564065,0.271980249987173,0.00602276764929632,,
0.144113553728869,0.276050942709848,0.00611333038861428,,
0.144726802893673,0.279999604787114,0.00622925307443811,,
0.145340052058476,0.283578014792518,0.00633069286046206,,
0.14595330122328,0.287482533208283,0.00641890355854891,,
0.146566550388084,0.290925276568128,0.0065273537087096,,
0.147179799552887,0.294464165284962,0.00661729411805201,,
0.147793048717691,0.298103821731717,0.0066825838540221,,
0.148406297882495,0.301565054583291,0.00678224816923345,,
0.149019547047298,0.30505725733351,0.00687676911023427,,
0.149632796212102,0.308170887740589,0.00695481661070474,,
0.150246045376906,0.311258632859247,0.00706674448719991,,
0.15085929454171,0.314550224624213,0.00714363884683289,,
0.151472543706513,0.31776878289685,0.00721128977594576,,
0.152085792871317,0.320691509301832,0.00730890406300233,,
0.152699042036121,0.323815077810715,0.00735705684486465,,
0.153312291200924,0.326312545905941,0.00743088073822129,,
0.153925540365728,0.329250063904306,0.00749712227297739,,
0.154538789530532,0.331805311661184,0.00758633968131894,,
0.155152038695335,0.334357323757009,0.00766654245692511,,
0.155765287860139,0.337157326160643,0.00773664609829483,,
0.156378537024943,0.339382998727461,0.00780684583473468,,
0.156991786189747,0.341746418007656,0.00787035552393656,,
0.15760503535455,0.344101054779279,0.00794957904502214,,
0.158218284519354,0.346445060093159,0.00800130107233343,,
0.158831533684158,0.348585680998026,0.008041423051937,,
0.159444782848961,0.350359285492082,0.00809384520047063,,
0.160058032013765,0.352610149991379,0.00815609650185412,,
0.160671281178569,0.354800923642559,0.00819925691604473,,
0.161284530343372,0.356049657690172,0.0082913617524345,,
0.161897779508176,0.358420241648412,0.00831466251887392,,
0.16251102867298,0.359723519696624,0.00835344831941276,,
0.163124277837783,0.361314078222568,0.00841549827874521,,
0.163737527002587,0.362866039934529,0.00844132497273309,,
0.164350776167391,0.363798141436291,0.00850668792399434,,
0.164964025332195,0.36544624850524,0.00850837187569331,,
0.165577274496998,0.366447685600985,0.00859156275037343,,
0.166190523661802,0.367702197614763,0.00861687693732227,,
0.166803772826606,0.368916494984032,0.00865827560856758,,
0.167417021991409,0.369928101300227,0.00870445615352189,,
0.168030271156213,0.370602967748317,0.00874190577499512,,
0.168643520321017,0.371370743892343,0.00873088687366241,,
0.16925676948582,0.372267253122528,0.00878529498697089,,
0.169870018650624,0.37250345637936,0.00876537585179582,,
0.170483267815428,0.373347963914059,0.00879652895822192,,
0.171096516980232,0.373921831513582,0.00882732056414737,,
0.171709766145035,0.374085232396733,0.00881964668643365,,
0.172323015309839,0.374388922298373,0.00887386260960232,,
0.172936264474643,0.374280527653115,0.00885892669018773,,
0.173549513639446,0.374588839927688,0.00886234950505393,,
0.17416276280425,0.374344316399578,0.00889039096160182,,
0.174776011969054,0.37409701944771,0.00890344158726641,,
0.175389261133857,0.374353561145442,0.00889072500636789,,
0.176002510298661,0.373871216529975,0.00889376344095494,,
0.176615759463465,0.373713824731637,0.00895031767748788,,
0.177229008628269,0.372897513671824,0.00892330123501761,,
0.177842257793072,0.372661772652285,0.00891541228738557,,
0.178455506957876,0.372031049865697,0.00890979758973787,,
0.17906875612268,0.371610182810227,0.0088963030963698,,
0.179682005287483,0.370269232422618,0.00888155479113939,,
0.180295254452287,0.369645674314075,0.00885627721183591,,
0.180908503617091,0.368743155999077,0.0088580892902943,,
0.181521752781894,0.367347430492223,0.00884982969025039,,
0.182135001946698,0.366361709464447,0.0088007022298231,,
0.182748251111502,0.365163590400441,0.00882662044292459,,
0.183361500276306,0.364156144219884,0.00877590512586846,,
0.183974749441109,0.362759494238443,0.00875369343688615,,
0.184587998605913,0.361352212799258,0.00872679139330845,,
0.185201247770717,0.359466515761598,0.00870685395431048,,
0.18581449693552,0.358194207612031,0.00867171061451133,,
0.186427746100324,0.356000660537092,0.00863311242815668,,
0.187040995265128,0.354651158759558,0.00859738336602778,,
0.187654244429931,0.352752750196335,0.00855123942871883,,
0.188267493594735,0.350566598918087,0.00853313694795776,,
0.188880742759539,0.348701702558622,0.00849072699050257,,
0.189493991924342,0.346549987958719,0.00844879293244016,,
0.190107241089146,0.344184719729351,0.00839430245192885,,
0.19072049025395,0.342005733129148,0.00839063711141108,,
0.191333739418754,0.339554951000536,0.00828587060559105,,
0.191946988583557,0.336962030904261,0.00824137401233482,,
0.192560237748361,0.334646915421207,0.00818457725014943,,
0.193173486913165,0.331936124815163,0.00812950104730836,,
0.193786736077968,0.329257459700997,0.00810997086836807,,
0.194399985242772,0.326435038788642,0.00802515095345724,,
0.195013234407576,0.323389357263666,0.007966144004667,,
0.195626483572379,0.32062217370785,0.00790181979535021,,
0.196239732737183,0.317640049810691,0.00784489490640494,,
0.196852981901987,0.314466097436848,0.00776893861769112,,
0.197466231066791,0.311402619776083,0.00770288012116271,,
0.198079480231594,0.308278126792614,0.0076419833026673,,
0.198692729396398,0.305062110825089,0.00756343702302553,,
0.199305978561202,0.301520679803142,0.00749651824682473,,
0.199919227726005,0.298196269190359,0.00741345092294843,,
0.200532476890809,0.294606072133979,0.00736158246505481,,
0.201145726055613,0.290974042602562,0.00727505571866693,,
0.201758975220416,0.287335079511748,0.00718452958699478,,
0.20237222438522,0.283580325978984,0.00712780604010055,,
0.202985473550024,0.279733124987577,0.00703884946123434,,
0.203598722714828,0.276236530983072,0.00693426141768683,,
0.204211971879631,0.271925474867927,0.00684609647915746,,
0.204825221044435,0.26796525685833,0.00677439582924722,,
