Time domain (s),Current (AC) (A),Potential (AC) (V),Frequency (Hz),Column 5
0,-0.326501340950388,-0.00719537875011822,31.623,0.4
0.000239330847010088,-0.318198172452414,-0.007080531102162,,
0.000478661694020175,-0.309369440152058,-0.00693096098193458,,
0.000717992541030263,-0.299930843522969,-0.0068016153856969,,
0.00095732338804035,-0.289510801561068,-0.00660074720306314,,
0.00119665423505044,-0.278469339338104,-0.00640514077233201,,
0.00143598508206053,-0.267105871060756,-0.00618905530313452,,
0.00167531592907061,-0.254838844434501,-0.00600146607839669,,
0.0019146467760807,-0.242352197314309,-0.00574527850463546,,
0.00215397762309079,-0.229043230049492,-0.00550722441751228,,
0.00239330847010088,-0.215380189018074,-0.0052264761968206,,
0.00263263931711096,-0.200984039639621,-0.00496768587765528,,
0.00287197016412105,-0.18632834402103,-0.0046675530307434,,
0.00311130101113114,-0.171301702974636,-0.00439392987582865,,
0.00335063185814123,-0.155746262464806,-0.00409897171007856,,
0.00358996270515131,-0.139832125815444,-0.00376892805404117,,
0.0038292935521614,-0.123658442925944,-0.003455879267249,,
0.00406862439917149,-0.107276984373144,-0.00311798183030287,,
0.00430795524618158,-0.0905345184943452,-0.00280564032584385,,
0.00454728609319166,-0.0736166335627725,-0.00247291890960932,,
0.00478661694020175,-0.0566647741901487,-0.00212048735653569,,
0.00502594778721184,-0.0394512885095667,-0.00174824252128269,,
0.00526527863422193,-0.0221386529295906,-0.0013884407648046,,
0.00550460948123201,-0.00474420134871597,-0.00105319965525785,,
0.0057439403282421,0.012660650571256,-0.00066706636691638,,
0.00598327117525219,0.0299619613375483,-0.000305675904288538,,
0.00622260202226228,0.0472004078319638,3.56400639347498E-05,,
0.00646193286927237,0.0644212893092372,0.000376914506111881,,
0.00670126371628245,0.0813363719272198,0.000776573229526178,,
0.00694059456329254,0.0982889535456143,0.0011415590440147,,
0.00717992541030263,0.114920973601166,0.00147501319403043,,
0.00741925625731272,0.131236072212559,0.00184484416041109,,
0.0076585871043228,0.147400741474842,0.00218328143595592,,
0.00789791795133289,0.16296103547625,0.00255084320485111,,
0.00813724879834298,0.178315402763532,0.00289324286892212,,
0.00837657964535306,0.193166162519859,0.00323353140239213,,
0.00861591049236315,0.207798977392436,0.00355498050644121,,
0.00885524133937324,0.221945287513908,0.0038660454198709,,
0.00909457218638333,0.235236025295474,0.00418312223313277,,
0.00933390303339342,0.248197592344611,0.00448038442466547,,
0.0095732338804035,0.2604665256997,0.00477844230882329,,
0.00981256472741359,0.272505496001416,0.00506606777856566,,
0.0100518955744237,0.28355920751265,0.00532267195233738,,
0.0102912264214338,0.294176798137738,0.00562695338520758,,
0.0105305572684439,0.303826926108133,0.00582393151500904,,
0.0107698881154539,0.313266967228763,0.00604718625512923,,
0.011009218962464,0.32178646277996,0.00625583722252854,,
0.0112485498094741,0.329496580830742,0.00648617282328035,,
0.0114878806564842,0.33654708626411,0.00666059293321197,,
0.0117272115034943,0.34249561799046,0.00683694199496099,,
0.0119665423505044,0.347939848829916,0.00699945886471642,,
0.0122058731975145,0.352985631122622,0.00712130164211233,,
0.0124452040445246,0.356880673673876,0.00727549722805332,,
0.0126845348915346,0.359914568147875,0.00743356411312845,,
0.0129238657385447,0.361992787018158,0.00745839668868387,,
0.0131631965855548,0.363595363713725,0.00754478158092775,,
0.0134025274325649,0.36394712629386,0.00760894066166973,,
0.013641858279575,0.364153977482573,0.00764993088779953,,
0.0138811891265851,0.363308083235994,0.00766969192753342,,
0.0141205199735952,0.361274008027213,0.00766303704376181,,
0.0143598508206053,0.358766601830182,0.00764597653657262,,
0.0145991816676153,0.355436182132587,0.00761617423098659,,
0.0148385125146254,0.351254552459542,0.00758019927958342,,
0.0150778433616355,0.346063627656767,0.00755231788851596,,
0.0153171742086456,0.340598133901824,0.00749092899691206,,
0.0155565050556557,0.334040142304373,0.0073843892372718,,
0.0157958359026658,0.326567383103655,0.0072483016865208,,
0.0160351667496759,0.31848631962507,0.00711676860534016,,
0.016274497596686,0.309792329495685,0.0069610084251468,,
0.016513828443696,0.300626163971284,0.00680405068736656,,
0.0167531592907061,0.290124594906792,0.00663818494292778,,
0.0169924901377162,0.279497528417193,0.00644782954770085,,
0.0172318209847263,0.268079805037554,0.00621466481761601,,
0.0174711518317364,0.256003624633735,0.0060169767263818,,
0.0177104826787465,0.243375070664526,0.00578556680663134,,
0.0179498135257566,0.230446986929316,0.00551226916233594,,
0.0181891443727667,0.216614304811289,0.00527628066111774,,
0.0184284752197767,0.202295811298096,0.00498896328784593,,
0.0186678060667868,0.187837722122353,0.00469930973959487,,
0.0189071369137969,0.1727572304313,0.00440875601382862,,
0.019146467760807,0.157299321990338,0.0041294330742021,,
0.0193857986078171,0.141354215442331,0.00379422143475239,,
0.0196251294548272,0.12516758990862,0.00347782243372663,,
0.0198644603018373,0.108867947356719,0.00317221216738206,,
0.0201037911488474,0.0920998561979781,0.00283174145512888,,
0.0203431219958574,0.0752325862500121,0.00247242059705588,,
0.0205824528428675,0.0581690387914159,0.00213385740382277,,
0.0208217836898776,0.0409119005764561,0.00177139664084613,,
0.0210611145368877,0.0235900202506158,0.00142233405570424,,
0.0213004453838978,0.00626282419590356,0.00107142021263718,,
0.0215397762309079,-0.0111299517747832,0.000684216623946465,,
0.021779107077918,-0.0284706104906603,0.00035327546949393,,
0.0220184379249281,-0.0457545873584572,-2.70307768981404E-05,,
0.0222577687719381,-0.0628448868003981,-0.000385514416300303,,
0.0224970996189482,-0.079868855190763,-0.000766632429915592,,
0.0227364304659583,-0.0967317338844434,-0.00112118449043885,,
0.0229757613129684,-0.113473968644595,-0.00148253208747073,,
0.0232150921599785,-0.129863054112733,-0.00186062673702114,,
0.0234544230069886,-0.145974797204944,-0.00217536737530377,,
0.0236937538539987,-0.161899334193403,-0.00253954276211843,,
0.0239330847010088,-0.177211811225987,-0.00288705548805668,,
0.0241724155480188,-0.19227057776426,-0.00324257068493949,,
0.0244117463950289,-0.206705555075342,-0.00356640954596266,,
0.024651077242039,-0.220781374009599,-0.00383404089429318,,
0.0248904080890491,-0.23427413837813,-0.0041753139969205,,
0.0251297389360592,-0.247425251607315,-0.00445636361633373,,
0.0253690697830693,-0.259610288893686,-0.0047630883881733,,
0.0256084006300794,-0.27177897453581,-0.00503679593473017,,
0.0258477314770895,-0.283256730983904,-0.00531703110782056,,
0.0260870623240995,-0.293519785605099,-0.00555662567729787,,
0.0263263931711096,-0.303749096903888,-0.00582992734024312,,
0.0265657240181197,-0.313042146565276,-0.00602653039607981,,
0.0268050548651298,-0.321466190115425,-0.00627837648870111,,
0.0270443857121399,-0.329406964575521,-0.00646203413456004,,
0.02728371655915,-0.336435744856108,-0.00665993387467445,,
0.0275230474061601,-0.34257327385572,-0.00683433255180788,,
0.0277623782531702,-0.348116250136938,-0.00699066204069743,,
0.0280017091001802,-0.353178441853553,-0.00713898905864241,,
0.0282410399471903,-0.357117859184955,-0.0072509111296748,,
0.0284803707942004,-0.360208551066358,-0.00736221164956596,,
0.0287197016412105,-0.362597508957003,-0.00744766421509757,,
0.0289590324882206,-0.364223197517231,-0.00753168212271493,,
0.0291983633352307,-0.364928744965658,-0.00757875792392015,,
0.0294376941822408,-0.364759392777357,-0.00761337055310163,,
0.0296770250292509,-0.363872532750668,-0.00766254944760858,,
0.0299163558762609,-0.362046464323832,-0.00763928414540516,,
0.030155686723271,-0.359620816348039,-0.00763129908860893,,
0.0303950175702811,-0.356412253956867,-0.00761700475190885,,
0.0306343484172912,-0.351669930447155,-0.00760144454057787,,
0.0308736792643013,-0.346963430327666,-0.00750537202364887,,
0.0311130101113114,-0.341147329585822,-0.007469837784154,,
0.0313523409583215,-0.334864138059186,-0.00733420969900989,,
0.0315916718053316,-0.327272121636819,-0.00724323818799943,,
0.0318310026523417,-0.319094450563953,-0.00711475928053051,,
0.0320703334993517,-0.310561087893959,-0.0069472298151485,,
0.0323096643463618,-0.300895243855595,-0.00679426393599103,,
0.0325489951933719,-0.290838347067174,-0.00659707013865996,,
0.032788326040382,-0.280264206747648,-0.00642955406877688,,
0.0330276568873921,-0.268583008110878,-0.00621297430567624,,
0.0332669877344022,-0.25658771923337,-0.00599819623715536,,
0.0335063185814123,-0.244010704722355,-0.00576192107226436,,
0.0337456494284223,-0.230798345051819,-0.00553361890822046,,
0.0339849802754324,-0.217100405104764,-0.00526298562862326,,
0.0342243111224425,-0.203126971730954,-0.00499991008941247,,
0.0344636419694526,-0.188295625940942,-0.00472563457370967,,
0.0347029728164627,-0.173310817369583,-0.00442796515901511,,
0.0349423036634728,-0.157780799910881,-0.00413961767189086,,
0.0351816345104829,-0.141990080618806,-0.00382677517577923,,
0.035420965357493,-0.125751453389609,-0.00349075042955649,,
0.035660296204503,-0.10939310670147,-0.00316689147528493,,
0.0358996270515131,-0.092807570383717,-0.00284214172034725,,
0.0361389578985232,-0.0758908410453774,-0.00250491941653763,,
0.0363782887455333,-0.0588756551635835,-0.00216102883345748,,
0.0366176195925434,-0.041699379585105,-0.00178925551976006,,
0.0368569504395535,-0.0243469338182511,-0.0014556982244045,,
0.0370962812865636,-0.00697380293252584,-0.00109870148536162,,
0.0373356121335737,0.0104268888518072,-0.000716211772676001,,
0.0375749429805838,0.0277873371017999,-0.00037752132220481,,
0.0378142738275938,0.0450958414359679,1.07887346811886E-05,,
0.0380536046746039,0.0621889431914989,0.000374708267470325,,
0.038292935521614,0.079174748115343,0.000739430190633605,,
0.0385322663686241,0.0961508749458605,0.00108934874814448,,
0.0387715972156342,0.112811958171223,0.0014547163343468,,
0.0390109280626443,0.129070721612506,0.00181063741484078,,
0.0392502589096544,0.145269134197193,0.00217040032437232,,
0.0394895897566645,0.161032350370321,0.00251397879233206,,
0.0397289206036745,0.176285718809036,0.00285480314575137,,
0.0399682514506846,0.191343791991369,0.00318819031827333,,
0.0402075822976947,0.206050795949507,0.00349839791978379,,
0.0404469131447048,0.219995801729784,0.00382324412231227,,
0.0406862439917149,0.233569370955135,0.00412903656743957,,
0.040925574838725,0.246597095716863,0.00446240230716333,,
0.0411649056857351,0.258981819513902,0.00474484371889528,,
0.0414042365327452,0.270857388932468,0.00502734942902139,,
0.0416435673797552,0.282200923226546,0.00526891581591293,,
0.0418828982267653,0.292931530869824,0.00554261800427014,,
0.0421222290737754,0.302857152266973,0.00579157870646352,,
0.0423615599207855,0.311926016841154,0.00603065085149046,,
0.0426008907677956,0.320777167650231,0.00626613300285639,,
0.0428402216148057,0.328218263596363,0.00647303451812098,,
0.0430795524618158,0.335688249373322,0.00665220199280414,,
0.0433188833088258,0.34190926998402,0.00680704324178416,,
0.0435582141558359,0.347338478111446,0.00697927720632219,,
0.043797545002846,0.352447124676029,0.00710566641598831,,
0.0440368758498561,0.356104808377219,0.00725486816000087,,
0.0442762066968662,0.359551018516764,0.00734750339195456,,
0.0445155375438763,0.362004574069135,0.00744960656241389,,
0.0447548683908864,0.363550988933577,0.00752379619260912,,
0.0449941992378965,0.364254745212493,0.00759205429596399,,
0.0452335300849066,0.364351815044067,0.00764708300476835,,
0.0454728609319166,0.363670477273872,0.0076519134216122,,
0.0457121917789267,0.361777846676814,0.00767304883951647,,
0.0459515226259368,0.359080460952274,0.00767807215154237,,
0.0461908534729469,0.356067367156469,0.00767309170511243,,
0.046430184319957,0.351955535314698,0.00759771255463004,,
0.0466695151669671,0.346720697969068,0.00754229805546203,,
0.0469088460139772,0.341139182653529,0.00746736631463696,,
0.0471481768609873,0.334667860548555,0.00735361977667681,,
0.0473875077079973,0.32783506888029,0.00722192594951121,,
0.0476268385550074,0.319758858893284,0.00711214180007724,,
0.0478661694020175,0.310862871066765,0.00697225796498469,,
0.0481055002490276,0.301814344933486,0.00684060700341504,,
0.0483448310960377,0.29167262760176,0.00665028375738519,,
0.0485841619430478,0.281021062535621,0.00645128022817509,,
0.0488234927900579,0.269462125662906,0.0062780844668282,,
0.049062823637068,0.257673687974111,0.00608237623030661,,
0.049302154484078,0.245100371361441,0.00583043636919456,,
0.0495414853310881,0.231951338200076,0.00558015487082608,,
0.0497808161780982,0.218293352889052,0.00529863506940709,,
0.0500201470251083,0.204186159598519,0.00506105250383948,,
0.0502594778721184,0.18967257305776,0.00476094242927561,,
0.0504988087191285,0.174680628698187,0.00447000023404609,,
0.0507381395661386,0.159201197333261,0.00416267802296311,,
0.0509774704131487,0.143499949847254,0.00384631385023404,,
0.0512168012601587,0.127353712297037,0.00352831810575882,,
0.0514561321071688,0.110928138972567,0.00320336473924066,,
0.0516954629541789,0.0942376747892545,0.00286217602825545,,
0.051934793801189,0.077423562130008,0.00249243615126593,,
0.0521741246481991,0.0603184710946842,0.00218196331888043,,
0.0524134554952092,0.043133875244928,0.00182589756700002,,
0.0526527863422193,0.0258076036648022,0.001464553988618,,
0.0528921171892294,0.00848549222031524,0.00109658499656096,,
0.0531314480362394,-0.00895079183559514,0.000762254780928284,,
0.0533707788832495,-0.0262991930261335,0.000365962346346116,,
0.0536101097302596,-0.0435077096558135,-2.11675671017986E-05,,
0.0538494405772697,-0.0607467917265071,-0.00033822294756547,,
0.0540887714242798,-0.0776147550304129,-0.000718322903276558,,
0.0543281022712899,-0.0945996643695014,-0.00107444089760245,,
0.0545674331183,-0.111379340350404,-0.00143767324130639,,
0.0548067639653101,-0.127697934631326,-0.00178373657428121,,
0.0550460948123201,-0.143836660825528,-0.00214705598872689,,
0.0552854256593302,-0.159636855982113,-0.00252263228451532,,
0.0555247565063403,-0.175203679085288,-0.00282644219582995,,
0.0557640873533504,-0.190178780673489,-0.00317582895204094,,
0.0560034182003605,-0.204878851072229,-0.00349098619033406,,
0.0562427490473706,-0.218779482072358,-0.00379519394796102,,
0.0564820798943807,-0.232524050206366,-0.00412033887011098,,
0.0567214107413908,-0.245863120674903,-0.00445395242656144,,
0.0569607415884008,-0.258256453641529,-0.00473336109737987,,
0.0572000724354109,-0.270273641010802,-0.00503049469212513,,
0.057439403282421,-0.28162873123721,-0.00529219049496588,,
0.0576787341294311,-0.292234072574029,-0.00552500158388414,,
0.0579180649764412,-0.302529021568454,-0.00577675256846399,,
0.0581573958234513,-0.311840734060556,-0.00601906106598538,,
0.0583967266704614,-0.320546337901933,-0.00624897068987718,,
0.0586360575174715,-0.328218090257378,-0.00643373212483223,,
0.0588753883644815,-0.335693622881855,-0.00662695951498815,,
0.0591147192114916,-0.342172109664873,-0.00679167190698582,,
0.0593540500585017,-0.347483909519823,-0.00696536062268649,,
0.0595933809055118,-0.352732845102896,-0.00706706058863382,,
0.0598327117525219,-0.356580046094303,-0.0072385872708387,,
0.060072042599532,-0.359997770860653,-0.00735027358109308,,
0.0603113734465421,-0.362605540329973,-0.00745736255618201,,
0.0605507042935522,-0.364064361227351,-0.00752038569863123,,
0.0607900351405622,-0.364455182858762,-0.00758909924894358,,
0.0610293659875723,-0.364947234457387,-0.0076223723282518,,
0.0612686968345824,-0.364171138042083,-0.0076608884057654,,
0.0615080276815925,-0.36242526778562,-0.00767113194364821,,
0.0617473585286026,-0.359866784367689,-0.00767150835716235,,
0.0619866893756127,-0.356446228397918,-0.00763797674472855,,
0.0622260202226228,-0.352514900219147,-0.00758924927852922,,
0.0624653510696329,-0.347419022959789,-0.00754703738291518,,
0.0627046819166429,-0.341964102882928,-0.00746503683740718,,
0.062944012763653,-0.335785839221851,-0.00736071135370775,,
0.0631833436106631,-0.328316951258464,-0.00725223996314961,,
0.0634226744576732,-0.320316605967206,-0.007130244477068,,
0.0636620053046833,-0.311729161533907,-0.00698157587390558,,
0.0639013361516934,-0.302432413974173,-0.00683550063929772,,
0.0641406669987035,-0.292270127082899,-0.00668794654162985,,
0.0643799978457136,-0.281524958964884,-0.00647494739534071,,
0.0646193286927236,-0.270314317892605,-0.00626078016156217,,
0.0648586595397337,-0.258221959183523,-0.00603043116531188,,
0.0650979903867438,-0.245925522709487,-0.00581522444083138,,
0.0653373212337539,-0.23265469002136,-0.00558827120351024,,
0.065576652080764,-0.218951665464079,-0.00531502714120968,,
0.0658159829277741,-0.205000881717637,-0.00503468480412916,,
0.0660553137747842,-0.190188256538,-0.00475011082899846,,
0.0662946446217943,-0.175206683627694,-0.0044787287410224,,
0.0665339754688044,-0.159825506577406,-0.00416583132336568,,
0.0667733063158144,-0.143924023673945,-0.00387629431595338,,
0.0670126371628245,-0.127896696667408,-0.00353342446987703,,
0.0672519680098346,-0.111564928623628,-0.00321545953504909,,
0.0674912988568447,-0.0949407954918921,-0.00288625041858293,,
0.0677306297038548,-0.0780687298320091,-0.00254513672239032,,
0.0679699605508649,-0.0610523883569822,-0.00219613575654298,,
0.068209291397875,-0.0438915977278264,-0.00184908517531124,,
0.068448622244885,-0.0266303860467202,-0.00148851049855603,,
0.0686879530918951,-0.00921588492325243,-0.00113451569078027,,
0.0689272839389052,0.00816865744564899,-0.000794635720021475,,
0.0691666147859153,0.0255256389159426,-0.000394721142580767,,
0.0694059456329254,0.0427328843930663,-3.94510833254813E-05,,
0.0696452764799355,0.0600147811930437,0.000311458741092174,,
0.0698846073269456,0.0769662072182051,0.000682716328088251,,
0.0701239381739557,0.0939284380400954,0.00104129641508122,,
0.0703632690209657,0.110603648392732,0.00139074211148715,,
0.0706025998679758,0.127068743005772,0.00174503162023543,,
0.0708419307149859,0.143207989216928,0.00211257463543202,,
0.071081261561996,0.159013326763401,0.00244791219257001,,
0.0713205924090061,0.174372980889724,0.00281413441159151,,
0.0715599232560162,0.189419729258373,0.00312985024218193,,
0.0717992541030263,0.204003084740576,0.00350075552756124,,
0.0720385849500364,0.218239068896931,0.00380286153143672,,
0.0722779157970465,0.231737322333318,0.0041196918675217,,
0.0725172466440565,0.245029186818287,0.00441497152524173,,
0.0727565774910666,0.257427546615475,0.00471594962812372,,
0.0729959083380767,0.26954833291809,0.0049850410858161,,
0.0732352391850868,0.280793179550067,0.00524963701413306,,
0.0734745700320969,0.291703135263112,0.00550688953004386,,
0.073713900879107,0.301366899233657,0.0057700816100934,,
0.0739532317261171,0.310832132286766,0.00600398577170846,,
0.0741925625731271,0.319498619297205,0.00621984887562643,,
0.0744318934201372,0.327565584538347,0.00642422132073017,,
0.0746712242671473,0.334808149567045,0.0066331482354034,,
0.0749105551141574,0.341149582992626,0.00678897271399048,,
0.0751498859611675,0.346785411190118,0.00697655524097884,,
0.0753892168081776,0.352004763586425,0.00707333504024099,,
0.0756285476551877,0.355817759018134,0.00723186273047327,,
0.0758678785021978,0.359038859595884,0.00734298107158127,,
0.0761072093492079,0.361732778540726,0.00742932041912914,,
0.0763465401962179,0.36329606506637,0.00752546795085118,,
0.076585871043228,0.364120465278815,0.00757759519462953,,
0.0768252018902381,0.364344188128729,0.00764108985863432,,
0.0770645327372482,0.363695900324999,0.00765860045458089,,
0.0773038635842583,0.361892481525531,0.007680097550951,,
0.0775431944312684,0.359465504617519,0.00765747523268701,,
0.0777825252782785,0.356357883295253,0.0076383786096903,,
0.0780218561252886,0.352603360881135,0.00761210199937112,,
0.0782611869722986,0.347598486588878,0.007536304909328,,
0.0785005178193087,0.342133455071228,0.00747965802427641,,
0.0787398486663188,0.335494340828819,0.00737299502604749,,
0.0789791795133289,0.328433897293647,0.00726318408561566,,
0.079218510360339,0.32067709327625,0.00715322579469779,,
