Time domain (s),Current (AC) (A),Potential (AC) (V),Frequency (Hz),Column 5
0,-0.419738256615934,-0.0066424367621134,398.11,0.5
7.84958930948733E-05,-0.44735993921509,-0.00729954827702528,,
0.000156991786189747,-0.457595758788546,-0.00763703762082546,,
0.00023548767928462,-0.450669998714733,-0.00767508080951584,,
0.000313983572379493,-0.42624708509632,-0.00743699521802998,,
0.000392479465474366,-0.385221527005222,-0.00693704322643063,,
0.00047097535856924,-0.329794167156799,-0.00614812090124772,,
0.000549471251664113,-0.261403838040447,-0.00511138642710929,,
0.000627967144758986,-0.183109787635843,-0.00386753316742183,,
0.000706463037853859,-0.0977664155997956,-0.0025460644766695,,
0.000784958930948733,-0.00911426081958055,-0.00105478618778854,,
0.000863454824043606,0.0802293989120341,0.000453494845063407,,
0.000941950717138479,0.167275856355362,0.00196096556271419,,
0.00102044661023335,0.247361833069045,0.00339365001487435,,
0.00109894250332823,0.317733438424495,0.00466338896017726,,
0.0011774383964231,0.375434345119489,0.00575287994902807,,
0.00125593428951797,0.418890100860845,0.00667365332273651,,
0.00133443018261285,0.446596084786778,0.00731780395700232,,
0.00141292607570772,0.457129033731596,0.00768044221009623,,
0.00149142196880259,0.449912457132935,0.00771818846821581,,
0.00156991786189747,0.425705386120647,0.00746257287286722,,
0.00164841375499234,0.384958444446525,0.00693546283428281,,
0.00172690964808721,0.329876234161494,0.00615534574928667,,
0.00180540554118209,0.261751718441938,0.00513847787284494,,
0.00188390143427696,0.183618326434598,0.00389265432619545,,
0.00196239732737183,0.0983839751299382,0.00248677132683017,,
0.00204089322046671,0.0097620723613933,0.00104746837550707,,
0.00211938911356158,-0.0801424376780187,-0.000472125157067627,,
0.00219788500665645,-0.167208862158358,-0.00196531961939606,,
0.00227638089975132,-0.24723951280146,-0.00335328272008351,,
0.0023548767928462,-0.317786565638425,-0.004654515731215,,
0.00243337268594107,-0.375820847374097,-0.00575531644473637,,
0.00251186857903594,-0.419858697215737,-0.00669520160198189,,
0.00259036447213082,-0.447164808420004,-0.0072913688110785,,
0.00266886036522569,-0.457800607111414,-0.00763837519591837,,
0.00274735625832056,-0.450704187389117,-0.00769228751981377,,
0.00282585215141544,-0.426114869973804,-0.00744816063999343,,
0.00290434804451031,-0.38523720272522,-0.0069257099138178,,
0.00298284393760518,-0.329710114088032,-0.0061451904462726,,
0.00306133983070006,-0.261453986158268,-0.00510376474662655,,
0.00313983572379493,-0.183114043487426,-0.00389862346317615,,
0.0032183316168898,-0.0977626562642305,-0.00251052715998945,,
0.00329682750998468,-0.00911284220238617,-0.00105713804440954,,
0.00337532340307955,0.0802923500500346,0.000476787244529042,,
0.00345381929617442,0.167315754963954,0.00195519345442952,,
0.0035323151892693,0.247512773938527,0.00337866195869863,,
0.00361081108236417,0.317693256092464,0.00467855461968503,,
0.00368930697545904,0.37564344929394,0.00575523041812298,,
0.00376780286855392,0.419309373172644,0.00666383518854818,,
0.00384629876164879,0.446590126594561,0.00730242461848585,,
0.00392479465474366,0.456954756609267,0.00763923268700539,,
0.00400329054783854,0.449816735937744,0.00769003001496316,,
0.00408178644093341,0.425509120431804,0.00747477477677494,,
0.00416028233402828,0.385052711559092,0.0069374691969224,,
0.00423877822712316,0.329754055755628,0.00614985114620792,,
0.00431727412021803,0.261677382900953,0.00510608469014917,,
0.0043957700133129,0.183682128742915,0.00386975459659622,,
0.00447426590640778,0.0983426933695818,0.0025064519960396,,
0.00455276179950265,0.00979909827016657,0.00106226772814288,,
0.00463125769259752,-0.0800256145520617,-0.000484873746231074,,
0.0047097535856924,-0.167325330630016,-0.00197254030485583,,
0.00478824947878727,-0.247220148676756,-0.0034013910225954,,
0.00486674537188214,-0.317534761086422,-0.0046688461000528,,
0.00494524126497702,-0.37606747397334,-0.00578884739877683,,
0.00502373715807189,-0.419585542474959,-0.00666910223735773,,
0.00510223305116676,-0.447293831653832,-0.00731026830313297,,
0.00518072894426164,-0.457687188666724,-0.00764355621811452,,
0.00525922483735651,-0.45085229102421,-0.00770650688656893,,
0.00533772073045138,-0.425938039340525,-0.00745415752749512,,
0.00541621662354626,-0.385400982080311,-0.00692626769928184,,
0.00549471251664113,-0.329648617032656,-0.00617485436526755,,
0.005573208409736,-0.261289923079738,-0.00511451807335872,,
0.00565170430283088,-0.183171923068957,-0.00390004983993464,,
0.00573020019592575,-0.0977788994311061,-0.00251937402595637,,
0.00580869608902062,-0.00913880289704329,-0.00102767392916281,,
0.00588719198211549,0.0803322486586265,0.000440021967312187,,
0.00596568787521037,0.167351929702411,0.00197447174108989,,
0.00604418376830524,0.247457802522245,0.00337226546370051,,
0.00612267966140012,0.317571928856915,0.00466801219690893,,
0.00620117555449499,0.375834572495453,0.00575715907930441,,
0.00627967144758986,0.419424458492538,0.00664084665728337,,
0.00635816734068474,0.44657785555583,0.00728441730566898,,
0.00643666323377961,0.45704987489215,0.00764309000936869,,
0.00651515912687448,0.450040629196447,0.00769753930583761,,
0.00659365501996935,0.425780572831949,0.00745188614738446,,
0.00667215091306423,0.38512619592976,0.00692281414699369,,
0.0067506468061591,0.329834101230821,0.00612825569107711,,
0.00682914269925397,0.261791900773969,0.00509341380244299,,
0.00690763859234885,0.183758769536841,0.00387881514157229,,
0.00698613448544372,0.0984896621109194,0.00250337446330517,,
0.00706463037853859,0.00981590888391995,0.00102229587827107,,
0.00714312627163347,-0.0799914258776772,-0.000466498739016163,,
0.00722162216472834,-0.167243050832742,-0.0019827927346916,,
0.00730011805782321,-0.247209012531781,-0.00338159935130378,,
0.00737861395091809,-0.317719323183411,-0.00467778315521183,,
0.00745710984401296,-0.375921640125758,-0.00578301978945106,,
0.00753560573710783,-0.419802874629138,-0.00665350228220252,,
0.00761410163020271,-0.447357669427579,-0.00730157684008148,,
0.00769259752329758,-0.457622854376959,-0.007648448634896,,
0.00777109341639245,-0.450720714279432,-0.00768871047770858,,
0.00784958930948733,-0.426177005406918,-0.00746108822001501,,
0.0079280852025822,-0.385502413209709,-0.0069162372736109,,
0.00800658109567707,-0.329831476789011,-0.00614773100643351,,
0.00808507698877195,-0.261460795520801,-0.0050970782586881,,
0.00816357288186682,-0.18306254768327,-0.0038671765732321,,
0.00824206877496169,-0.0978769258792377,-0.00250157900462211,,
0.00832056466805657,-0.00910177698827002,-0.001037313072493,,
0.00839906056115144,0.080293768667229,0.000474601891031767,,
0.00847755645424631,0.167312314817258,0.00195226299945395,,
0.00855605234734119,0.247281220146974,0.00337668889668397,,
0.00863454824043606,0.317589306917546,0.00466442405459544,,
0.00871304413353093,0.375577625456121,0.0057799367066127,,
0.00879154002662581,0.419240747565866,0.00666729012836287,,
0.00887003591972068,0.446591828935195,0.00729828979091662,,
0.00894853181281555,0.457156413043447,0.00764771324610081,,
0.00902702770591043,0.45008276212712,0.00771268276492876,,
0.0091055235990053,0.425572887274692,0.00746235919385851,,
0.00918401949210017,0.385132189587407,0.00691804383250227,,
0.00926251538519504,0.329669186981974,0.00613506289377996,,
0.00934101127828992,0.261928903729516,0.00511865290092883,,
0.00941950717138479,0.183676454274138,0.00387079246606703,,
0.00949800306447967,0.0983549289428833,0.00253255968581989,,
0.00957649895757454,0.00985665866282846,0.00103403989858863,,
0.00965499485066941,-0.0799820630041943,-0.00049707565013879,,
0.00973349074376429,-0.167184958458633,-0.00197216151024993,,
0.00981198663685916,-0.24720163572237,-0.00338814153653511,,
0.00989048252995403,-0.317682864721515,-0.00467904302884703,,
0.0099689784230489,-0.375829642800702,-0.0057893815962986,,
0.0100474743161438,-0.419742228744078,-0.00665901769817179,,
0.0101259702092387,-0.447427749116982,-0.00729133551045402,,
0.0102044661023335,-0.457365375356179,-0.00765088929318303,,
0.0102829619954284,-0.45074639125065,-0.0076939026001126,,
0.0103614578885233,-0.426186935727278,-0.00745133668707609,,
0.0104399537816181,-0.385382469125925,-0.00692653410427946,,
0.010518449674713,-0.329791613645849,-0.0061244857828533,,
0.0105969455678079,-0.261364542344163,-0.00510412134081628,,
0.0106754414609028,-0.183198664003071,-0.00388661165033444,,
0.0107539373539976,-0.0978492628439473,-0.00254250963498048,,
0.0108324332470925,-0.00904453578447687,-0.00106247585704677,,
0.0109109291401874,0.0802861081343794,0.000447901727636424,,
0.0109894250332823,0.167345936044765,0.00196902153884437,,
0.0110679209263771,0.247467200861157,0.00337354476270013,,
0.011146416819472,0.31766420990541,0.00466603080973815,,
0.0112249127125669,0.375952211326296,0.00576555916188992,,
0.0113034086056618,0.419228760250573,0.00664925784007719,,
0.0113819044987566,0.446722270786218,0.00730504426763057,,
0.0114604003918515,0.456901487533618,0.00765084627987633,,
0.0115388962849464,0.450000766053285,0.00770307830974915,,
0.0116173921780412,0.425768585516656,0.00746252847203444,,
0.0116958880711361,0.385150418818354,0.00692662429347202,,
0.011774383964231,0.329757212178885,0.00612028851661295,,
0.0118528798573259,0.261991854867517,0.00511289189285202,,
0.0119313757504207,0.183649110427716,0.00387098116960694,,
0.0120098716435156,0.098377981472292,0.00250937135080687,,
0.0120883675366105,0.00982988226328457,0.00103839673032269,,
0.0121668634297054,-0.0799911421542383,-0.000474220321373231,,
0.0122453593228002,-0.167167012951124,-0.00197113612851352,,
0.0123238552158951,-0.247302144750591,-0.00341353742546202,,
0.01240235110899,-0.317686269402782,-0.004676412279494,,
0.0124808470020848,-0.375890004962323,-0.00578373297783052,,
0.0125593428951797,-0.419721446002181,-0.00667392805289024,,
0.0126378387882746,-0.447137500039012,-0.00729974946830003,,
0.0127163346813695,-0.457581572616602,-0.0076577977852863,,
0.0127948305744643,-0.450560055882168,-0.00767766715803564,,
0.0128733264675592,-0.425963929104322,-0.00744570888149854,,
0.0129518223606541,-0.385539155395044,-0.0069270918897435,,
0.013030318253749,-0.329715504833371,-0.00613737867472386,,
0.0131088141468438,-0.261445687247681,-0.00511898590717541,,
0.0131873100399387,-0.183157949689592,-0.00389454552417368,,
0.0132658059330336,-0.0977757784732785,-0.00250639233241978,,
0.0133443018261285,-0.00907524884673515,-0.00103707996811986,,
0.0134227977192233,0.0802453583554709,0.000451199877010033,,
0.0135012936123182,0.16724879623238,0.00194096298746604,,
0.0135797895054131,0.247403114829401,0.00337722448173139,,
0.0136582853985079,0.317632007295097,0.00467205822281258,,
0.0137367812916028,0.375465696559484,0.00576872549629037,,
0.0138152771846977,0.419318771511557,0.00666420149542013,,
0.0138937730777926,0.446769014222772,0.00728585478263577,,
0.0139722689708874,0.45703476661903,0.00768074469077051,,
0.0140507648639823,0.450119504312454,0.00771817736800751,,
0.0141292607570772,0.425730140990689,0.00747065104941402,,
0.0142077566501721,0.384919113284811,0.00692921064199181,,
0.0142862525432669,0.329799345109558,0.00613264582343565,,
0.0143647484363618,0.261675396836881,0.00512430290692256,,
0.0144432443294567,0.183517498217508,0.00387803535194342,,
0.0145217402225516,0.098375711684781,0.0025204465835782,,
0.0146002361156464,0.00983357066798995,0.00103956780229231,,
0.0146787320087413,-0.0799923479788535,-0.000451242890316284,,
0.0147572279018362,-0.16719063292741,-0.0019939692568629,,
0.014835723794931,-0.247178583192961,-0.00338180054257808,,
0.0149142196880259,-0.317641866684598,-0.00468146148671744,,
0.0149927155811208,-0.376063218121756,-0.00578587254296892,,
0.0150712114742157,-0.419629164953686,-0.006659163388405,,
0.0151497073673105,-0.447356818257263,-0.007274453481247,,
0.0152282032604054,-0.457776065033952,-0.0076361454415883,,
0.0153066991535003,-0.450520476462445,-0.00767074617819796,,
0.0153851950465952,-0.426071318425936,-0.0074515933793915,,
0.01546369093969,-0.385022991528869,-0.00692768297583246,,
0.0155421868327849,-0.329880135358778,-0.00613236415565144,,
0.0156206827258798,-0.261515199490206,-0.00509849353523872,,
0.0156991786189747,-0.1831357483305,-0.00388010276572759,,
0.0157776745120695,-0.0978290475489274,-0.00254225433019117,,
0.0158561704051644,-0.00912028994265665,-0.00103057108351345,,
0.0159346662982593,0.0803162892151898,0.000447578434071616,,
0.0160131621913541,0.16734196391662,0.00194660189325191,,
0.016091658084449,0.247298314484167,0.00338757542591539,,
0.0161701539775439,0.317492982810048,0.00466101629066573,,
0.0162486498706388,0.375532052378752,0.00576567293902475,,
0.0163271457637336,0.419272630987309,0.00666234221053985,,
0.0164056416568285,0.446877254714703,0.00728467261045829,,
0.0164841375499234,0.457145844345349,0.00764882881702889,,
0.0165626334430183,0.449992750866137,0.00769673731579212,,
0.0166411293361131,0.425699959909878,0.007449099995116,,
0.016719625229208,0.385137615798175,0.00693099222541438,,
0.0167981211223029,0.329996178245278,0.00613039525621506,,
0.0168766170153978,0.261995826995661,0.00510095639394237,,
0.0169551129084926,0.183604672244102,0.00387885954240508,,
0.0170336088015875,0.0984090491888489,0.00248936877555828,,
0.0171121046946824,0.00984353645378046,0.00104906125538928,,
0.0171906005877772,-0.0800412902720596,-0.000455800913325088,,
0.0172690964808721,-0.167190916650849,-0.0019649963258308,,
0.017347592373967,-0.247273134028966,-0.00338070855959227,,
0.0174260882670619,-0.317510006216381,-0.00465368044054504,,
0.0175045841601567,-0.37604470516737,-0.00577091778741767,,
0.0175830800532516,-0.419662431526895,-0.00667861927839741,,
0.0176615759463465,-0.447246875424698,-0.0072969966166565,,
0.0177400718394414,-0.457778051098024,-0.00762812137855695,,
0.0178185677325362,-0.450542961544976,-0.00766866211410111,,
0.0178970636256311,-0.426047982173089,-0.00745164888043259,,
0.017975559518726,-0.385310687095889,-0.00691200393169344,,
0.0180540554118209,-0.329597901467957,-0.00614621582800856,,
0.0181325513049157,-0.261408377615469,-0.00508334868862104,,
0.0182110471980106,-0.183059072071144,-0.00386967273256023,,
0.0182895430911055,-0.097763791157986,-0.00249514920899907,,
0.0183680389842003,-0.00908723616202765,-0.00106819246429035,,
0.0184465348772952,0.0803325323820654,0.00044860381580758,,
0.0185250307703901,0.167409738353082,0.00194463993144511,,
0.018603526663485,0.247464931073646,0.00338130103320777,,
0.0186820225565798,0.317874413508186,0.00467709494230117,,
0.0187605184496747,0.375759917765599,0.00578250917987244,,
0.0188390143427696,0.41914389147692,0.00663684503221296,,
0.0189175102358645,0.446837923552989,0.00729374425564222,,
0.0189960061289593,0.457060408124818,0.00765022189316289,,
0.0190745020220542,0.44998679267392,0.00770258712553451,,
0.0191529979151491,0.425606508502198,0.00747790503549872,,
0.019231493808244,0.385086332786598,0.00692892203657758,,
0.0193099897013388,0.329835519848015,0.00614089327815792,,
0.0193884855944337,0.261828642959304,0.00509799263834188,,
0.0194669814875286,0.183596976245823,0.00389474949050062,,
0.0195454773806234,0.0983361322650578,0.00252260834913276,,
0.0196239732737183,0.00982105137124957,0.0010589348906187,,
0.0197024691668132,-0.0800182377426509,-0.000461717324316879,,
0.0197809650599081,-0.167270926660612,-0.00194733311946926,,
0.0198594609530029,-0.247217878889245,-0.00339080419898652,,
0.0199379568460978,-0.317780323722769,-0.00467677997389204,,
0.0200164527391927,-0.375780062129759,-0.00577931925752928,,
0.0200949486322876,-0.419616610191516,-0.00666624948384031,,
0.0201734445253824,-0.447285036227227,-0.00726787799539119,,
0.0202519404184773,-0.457633352144197,-0.00762438754601025,,
0.0203304363115722,-0.450889316932984,-0.00767207265308256,,
0.0204089322046671,-0.426278649328895,-0.00743894469210238,,
0.0204874280977619,-0.385293592758697,-0.00691738614516391,,
0.0205659239908568,-0.329648900756095,-0.00614482275187456,,
0.0206444198839517,-0.261379083170405,-0.0051019928758862,,
0.0207229157770465,-0.183177313814296,-0.00389518101109543,,
0.0208014116701414,-0.0977586841360863,-0.00250976957077675,,
0.0208799075632363,-0.00907751863424616,-0.00104910288116988,,
0.0209584034563312,0.0802727022018925,0.000441126438031958,,
0.021036899349426,0.167515709057502,0.00197346717224445,,
0.0211153952425209,0.247424216760168,0.00339727145781277,,
0.0211938911356158,0.317675310584955,0.00466365536517488,,
0.0212723870287107,0.375439771330257,0.00577051817992125,,
0.0213508829218055,0.419132223350496,0.00665214389421953,,
0.0214293788149004,0.446925381303023,0.00729697719129252,,
0.0215078747079953,0.456913155660041,0.00764594276288655,,
0.0215863706010902,0.449848371101179,0.00769884358030559,,
0.021664866494185,0.425750356285708,0.00746249517140951,,
0.0217433623872799,0.385146127501341,0.00693009033349501,,
0.0218218582803748,0.329764872711735,0.00614730087336479,,
0.0219003541734696,0.261739482868637,0.00508608211490058,,
0.0219788500665645,0.183767032981999,0.00388825309362817,,
0.0220573459596594,0.0983885501703901,0.00249683366559994,,
0.0221358418527543,0.00983044971016232,0.00102705231750155,,
0.0222143377458491,-0.0800732091589331,-0.000489141776299551,,
0.022292833638944,-0.167231347240889,-0.00198334913262954,,
0.0223713295320389,-0.247318104194028,-0.00338770724088766,,
0.0224498254251338,-0.317746986218701,-0.00466889050088559,,
0.0225283213182286,-0.376088824162115,-0.00578294070046725,,
0.0226068172113235,-0.419788617526334,-0.00666593867800946,,
0.0226853131044184,-0.447337737855998,-0.00729182669466866,,
0.0227638089975132,-0.457887710207149,-0.00762614831654229,,
0.0228423048906081,-0.4504865715115,-0.00766317999875676,,
0.022920800783703,-0.425969036126222,-0.00746526744841702,,
0.0229992966767979,-0.385336009412809,-0.00695092819941268,,
0.0230777925698927,-0.329701034937988,-0.00612337159945087,,
0.0231562884629876,-0.261327800158828,-0.00512393382499843,,
0.0232347843560825,-0.183144260033667,-0.00390246829780505,,
0.0233132802491774,-0.0977507398797977,-0.00252261806181453,,
0.0233917761422722,-0.00908156169325013,-0.00105306010540751,,
0.0234702720353671,0.0803160054917509,0.000468484288765669,,
0.023548767928462,0.167383245676977,0.00197185209194561,,
0.0236272638215569,0.247400277595013,0.00337788216906976,,
0.0237057597146517,0.317665628522604,0.00467135613464142,,
0.0237842556077466,0.375662813418643,0.0057627508092053,,
0.0238627515008415,0.419139032713029,0.00667176906238787,,
0.0239412473939363,0.446894349051896,0.0072992832595542,,
0.0240197432870312,0.45687811581534,0.00764384759858094,,
0.0240982391801261,0.450141741136976,0.00769660411329332,,
0.024176735073221,0.425606792225637,0.00744105511919413,,
0.0242552309663158,0.385237841102958,0.00691963948743712,,
0.0243337268594107,0.329945746404018,0.00613342561306451,,
0.0244122227525056,0.261907269817302,0.00509025856825085,,
0.0244907186456005,0.183745363604354,0.00386560589376694,,
0.0245692145386953,0.098402204360886,0.00251111963360451,,
0.0246477104317902,0.00981562516048107,0.00105916799499184,,
0.0247262063248851,-0.0800148330613844,-0.000477274266164951,,
0.02480470221798,-0.167077001690141,-0.00198592438094103,,
0.0248831981110748,-0.247139003773238,-0.00337391106957163,,
0.0249616940041697,-0.317535612256739,-0.00465195297063747,,
0.0250401898972646,-0.375703173077823,-0.0057614784478357,,
0.0251186857903594,-0.419551070077136,-0.00664078699366399,,
0.0251971816834543,-0.447514852212717,-0.00728055998330523,,
0.0252756775765492,-0.457675839729169,-0.00763052873621906,,
0.0253541734696441,-0.450841225810094,-0.00767060187549085,,
0.0254326693627389,-0.426080184783401,-0.00745427962978562,,
0.0255111652558338,-0.385033560226967,-0.00692362584972095,,
0.0255896611489287,-0.329732031723685,-0.00614936967467505,,
0.0256681570420236,-0.261402135699814,-0.00510481232877913,,
0.0257466529351184,-0.183132840165252,-0.00389713048516782,,
