Time domain (s),Current (AC) (A),Potential (AC) (V),Frequency (Hz),Column 5
0,-0.181915170096457,-0.0166769177589727,0.0031623,0.5
0.772034990355121,-0.175342929427483,-0.0164641510332819,,
1.54406998071024,-0.168785584239049,-0.0162215916182276,,
2.31610497106536,-0.162377974095483,-0.0159706104759483,,
3.08813996142049,-0.155645216890964,-0.0157549627917675,,
3.86017495177561,-0.149055456299639,-0.0155199344796455,,
4.63220994213073,-0.142213252778575,-0.0152657507087035,,
5.40424493248585,-0.135625407320462,-0.0150072404739308,,
6.17627992284097,-0.128634816440865,-0.014729606947355,,
6.94831491319609,-0.121955115519417,-0.0144966534078508,,
7.72034990355121,-0.115090355984962,-0.0142262252931573,,
8.49238489390633,-0.108312203030223,-0.0139549125854868,,
9.26441988426146,-0.101408573384642,-0.0136758315431313,,
10.0364548746166,-0.0945473603931726,-0.0134142976087297,,
10.8084898649717,-0.0875087493215463,-0.0131362459109288,,
11.5805248553268,-0.0806272501041974,-0.0128344227873209,,
12.3525598456819,-0.0736474407152781,-0.0125686588901401,,
13.1245948360371,-0.066588117832614,-0.0122452999484297,,
13.8966298263922,-0.059635474962967,-0.0119994635184848,,
14.6686648167473,-0.0525775706974972,-0.0117055394080703,,
15.4406998071024,-0.0455962008296641,-0.0114250088394963,,
16.2127347974575,-0.0385261673871823,-0.0111133928695502,,
16.9847697878127,-0.0314665607810793,-0.0108171969635364,,
17.7568047781678,-0.0243402082359807,-0.0104886108815099,,
18.5288397685229,-0.0173167054374746,-0.0102153359857824,,
19.300874758878,-0.010180777226314,-0.00990543693038637,,
20.0729097492332,-0.00319550616119634,-0.00960908421016304,,
20.8449447395883,0.00391201424064684,-0.0092595252328378,,
21.6169797299434,0.0109591724808692,-0.00894628080763926,,
22.3890147202985,0.0181302823984504,-0.00865187419196456,,
23.1610497106536,0.0251348821228415,-0.00830430956971329,,
23.9330847010088,0.032189310776185,-0.00797996953397462,,
24.7051196913639,0.0391876685849208,-0.00766487751571798,,
25.477154681719,0.0463304061586145,-0.00730298248724637,,
26.2491896720741,0.0533596543567578,-0.00701071497822392,,
27.0212246624292,0.060273391649849,-0.00668720927449717,,
27.7932596527844,0.0672666069712551,-0.00636138955596133,,
28.5652946431395,0.0743080907427,-0.00604446401771686,,
29.3373296334946,0.0812822965937015,-0.00564179729477932,,
30.1093646238497,0.0882307190771952,-0.00533999226511872,,
30.8813996142048,0.095190703290823,-0.00499298855523245,,
31.65343460456,0.102030140508359,-0.00465977042271071,,
32.4254695949151,0.109043535659355,-0.00433618631187915,,
33.1975045852702,0.115804310553462,-0.00397046340834484,,
33.9695395756253,0.12250188605156,-0.00365402037536056,,
34.7415745659805,0.129352140225203,-0.00330333555242834,,
35.5136095563356,0.136304215647972,-0.00297600398407782,,
36.2856445466907,0.14299413061322,-0.00262432198360862,,
37.0576795370458,0.149730576222444,-0.00226551699923938,,
37.8297145274009,0.156330834581007,-0.0019328276120647,,
38.6017495177561,0.163031814760371,-0.00158600283121224,,
39.3737845081112,0.169384666280235,-0.00125383012675329,,
40.1458194984663,0.175955984848033,-0.000891259590917848,,
40.9178544888214,0.182542057034653,-0.000525508541243891,,
41.6898894791766,0.188948816007903,-0.000172278503065115,,
42.4619244695317,0.195435017544039,0.00016962472413562,,
43.2339594598868,0.201827022898468,0.000478492424538679,,
44.0059944502419,0.208047056383508,0.000872763555953338,,
44.778029440597,0.214404766667262,0.00122692241675715,,
45.5500644309522,0.220726124885411,0.00154941284899923,,
46.3220994213073,0.226798373924227,0.00190528058259876,,
47.0941344116624,0.232956874888461,0.00223162703604363,,
47.8661694020175,0.238931842253173,0.00259061094944713,,
48.6382043923726,0.244786156225502,0.00295339459177235,,
49.4102393827278,0.250988634322762,0.00328487168448133,,
50.1822743730829,0.256903168594993,0.00362867276570489,,
50.954309363438,0.262632892512226,0.0039552162421308,,
51.7263443537931,0.268542036039119,0.00430136551561944,,
52.4983793441482,0.27409819214262,0.00466829468230312,,
53.2704143345034,0.27966966931182,0.00501190678230001,,
54.0424493248585,0.285302714467257,0.00532312267496815,,
54.8144843152136,0.290764674389051,0.00564507833054728,,
55.5865193055687,0.296249332185956,0.00601898773999165,,
56.3585542959239,0.301402033559376,0.00634686614763691,,
57.130589286279,0.306782564854213,0.00666081623677828,,
57.9026242766341,0.312125077208241,0.00700202787310644,,
58.6746592669892,0.317281750709805,0.00733752986385916,,
59.4466942573443,0.322297413662248,0.00762846445210075,,
60.2187292476995,0.3273613095993,0.00799233775213803,,
60.9907642380546,0.332425489259791,0.00832396361730225,,
61.7627992284097,0.336889310123621,0.00862015751287704,,
62.5348342187648,0.341957461912256,0.00896696621022119,,
63.3068692091199,0.346174159660826,0.00927762320096326,,
64.0789041994751,0.351132226755177,0.0095727515640891,,
64.8509391898302,0.35547660005124,0.00986540708775774,,
65.6229741801853,0.359820973347304,0.0101852919915966,,
66.3950091705404,0.364223509948337,0.0105220002454987,,
67.1670441608955,0.36854773888024,0.0107940206275501,,
67.9390791512507,0.372725850241122,0.0111058155265304,,
68.7111141416058,0.376829909784458,0.0113898864774491,,
69.4831491319609,0.380945601988788,0.0116861246026732,,
70.255184122316,0.384578964347029,0.0119907784238058,,
71.0272191126711,0.388494064080074,0.0122849618807979,,
71.7992541030263,0.39195208535309,0.0125662624473493,,
72.5712890933814,0.395712839535386,0.0128489140286283,,
73.3433240837365,0.39933031338105,0.0131450435901685,,
74.1153590740916,0.402637961231462,0.0134015916368844,,
74.8873940644468,0.405791263531125,0.0137027553366371,,
75.6594290548019,0.40934291353897,0.0139601397258033,,
76.431464045157,0.412561188506136,0.0142175723654958,,
77.2034990355121,0.415567522064463,0.0144733685081815,,
77.9755340258672,0.418551441471117,0.0147490840763487,,
78.7475690162224,0.421293912231289,0.0149827131232168,,
79.5196040065775,0.424118379065296,0.0152736316279496,,
80.2916389969326,0.427137196454932,0.0155023029332719,,
81.0636739872877,0.429168656277282,0.0157665630223924,,
81.8357089776429,0.43164953402681,0.0159892552833685,,
82.607743967998,0.434123602413805,0.0162200616744657,,
83.3797789583531,0.436613275589939,0.0164526292097618,,
84.1518139487082,0.438591111682341,0.0167123658120705,,
84.9238489390633,0.440275861462384,0.0169500157361049,,
85.6958839294185,0.442517276629502,0.0171660011739676,,
86.4679189197736,0.444269268864559,0.0173470532310098,,
87.2399539101287,0.446139006326749,0.0175659819509582,,
88.0119889004838,0.447819783978648,0.0177662216338375,,
88.7840238908389,0.449598729940398,0.0179621187693777,,
89.5560588811941,0.4507438377397,0.0181650283146952,,
90.3280938715492,0.451900861923435,0.0183866751476081,,
91.1001288619043,0.453442047643407,0.0185851295610258,,
91.8721638522594,0.454694970349482,0.0187622451793223,,
92.6441988426145,0.455223830839546,0.0189526377340217,,
93.4162338329697,0.456131745843948,0.0191091302733324,,
94.1882688233248,0.45730976556216,0.0192915775747511,,
94.9603038136799,0.457915515104159,0.0194696099530414,,
95.732338804035,0.458284071851259,0.0196312130272305,,
96.5043737943902,0.458669084557813,0.0197779308141497,,
97.2764087847453,0.459254122288774,0.0199394293455324,,
98.0484437751004,0.459727940431697,0.0200859661929798,,
98.8204787654555,0.459604804459225,0.0202107862828518,,
99.5925137558106,0.459866964916746,0.0203325384434456,,
100.364548746166,0.459786671183544,0.0205068836773745,,
101.136583736521,0.459395700284773,0.0206664481668404,,
101.908618726876,0.45939910496604,0.0207598571642897,,
102.680653717231,0.458850100111815,0.0208765510614088,,
103.452688707586,0.458294002171619,0.0209882791752274,,
104.224723697941,0.457602000704202,0.0211052223667307,,
104.996758688297,0.457058670318755,0.0211922341486086,,
105.768793678652,0.456127489992365,0.021313584221486,,
106.540828669007,0.455080266779475,0.0213939374307768,,
107.312863659362,0.454182565818873,0.0214810296301979,,
108.084898649717,0.452947517689447,0.0215775950162227,,
108.856933640072,0.452011514064596,0.021653541344139,,
109.628968630427,0.450347476095591,0.0217149602428535,,
110.401003620782,0.449064762428434,0.0218099976955548,,
111.173038611137,0.447293760722973,0.0218862857980304,,
111.945073601493,0.445699518719931,0.0219301495470372,,
112.717108591848,0.443986112872561,0.0219518582628577,,
113.489143582203,0.442446629493222,0.0220362484328231,,
114.261178572558,0.440075268991099,0.0220520464592093,,
115.033213562913,0.438152475245839,0.0221008076366043,,
115.805248553268,0.436033912327755,0.0221732517805089,,
116.577283543623,0.433490331698235,0.0222028253320667,,
117.349318533978,0.431090031405347,0.0222132956962078,,
118.121353524334,0.428788466869188,0.0222214178680833,,
118.893388514689,0.426315817099387,0.022238868474985,,
119.665423505044,0.423329627905222,0.0222588120257297,,
120.437458495399,0.420757107484936,0.0222492101710565,,
121.209493485754,0.417570893266363,0.0222347671802754,,
121.981528476109,0.414656486102233,0.0222583134369612,,
122.753563466464,0.41149041624782,0.0222214017845745,,
123.525598456819,0.408501389819265,0.0222061707018688,,
124.297633447175,0.405131322812301,0.0221702883940371,,
125.06966843753,0.401655710686074,0.0221868383244535,,
125.841703427885,0.398348346559101,0.022110039570578,,
126.61373841824,0.394859399431248,0.0220913183664919,,
127.385773408595,0.391073110139453,0.0220509165927254,,
128.15780839895,0.387547846411423,0.0220271331042872,,
128.929843389305,0.383817734360526,0.0219558308894978,,
129.70187837966,0.379700623539002,0.0219048300835212,,
130.473913370015,0.375733602416643,0.021830894194188,,
131.245948360371,0.371776795338083,0.0217596764178194,,
132.017983350726,0.367496543539206,0.0216889893972363,,
132.790018341081,0.363313892603302,0.0216162919380705,,
133.562053331436,0.358713600765372,0.0215199517211673,,
134.334088321791,0.354481014504226,0.0214340497013872,,
135.106123312146,0.349666227746507,0.0213444967251406,,
135.878158302501,0.345332068494243,0.0212502151973459,,
136.650193292856,0.340657724838767,0.0211368747117837,,
137.422228283212,0.335867054573352,0.0210644345887565,,
138.194263273567,0.330941048227594,0.0209429397643008,,
138.966298263922,0.326034618799118,0.020822912560011,,
139.738333254277,0.320992569566859,0.0206942565533224,,
140.510368244632,0.316010953427081,0.0205780210361999,,
141.282403234987,0.310991034623055,0.0204627505295978,,
142.054438225342,0.305579010026503,0.0203059684871314,,
142.826473215697,0.300254939696002,0.0201502640397453,,
143.598508206053,0.294884054998086,0.0200419094418689,,
144.370543196408,0.28956140328478,0.0198609900737732,,
145.142578186763,0.284070822761089,0.0197257760164264,,
145.914613177118,0.278368229897698,0.0195720578823604,,
146.686648167473,0.272819131414739,0.0194055815050458,,
147.458683157828,0.267113772247819,0.0192275048971067,,
148.230718148183,0.261202678122284,0.0190307714191165,,
149.002753138538,0.255394291881623,0.0188884484509395,,
149.774788128894,0.249512704993731,0.0186605612166648,,
150.546823119249,0.243471381809753,0.0184794287420793,,
151.318858109604,0.237581602407564,0.0183284528462409,,
152.090893099959,0.231485201411013,0.0181229699395362,,
152.862928090314,0.225217183199373,0.0179322195267693,,
153.634963080669,0.219082834192874,0.0177359042200038,,
154.406998071024,0.212805417642321,0.0174883106667374,,
155.179033061379,0.206493706021094,0.0173154290320969,,
155.951068051735,0.20050405596842,0.0170777348784141,,
156.72310304209,0.193780909895394,0.016853128679907,,
157.495138032445,0.187502961363393,0.016649061121965,,
158.2671730228,0.180916853711344,0.0164349413711076,,
159.039208013155,0.174554107336549,0.0161749836205547,,
159.81124300351,0.16801343090015,0.0159717041545377,,
160.583277993865,0.161393595624304,0.0157184853941157,,
161.35531298422,0.154648354588475,0.0154749127180152,,
162.127347974575,0.147953900048205,0.0152413841930765,,
162.899382964931,0.141352471330456,0.0150116795223223,,
163.671417955286,0.134473029108039,0.0147475440803939,,
164.443452945641,0.127752791200261,0.0144630428956183,,
165.215487935996,0.121003578036288,0.014223893184401,,
165.987522926351,0.114050935166641,0.0139443457202941,,
166.759557916706,0.107355664921484,0.0136792613513546,,
167.531592907061,0.100471363935176,0.0133945470600891,,
168.303627897416,0.0934789997840865,0.0131691165817629,,
169.075662887772,0.0864855007392414,0.0128925807546536,,
169.847697878127,0.0795669046822595,0.012606748659536,,
170.619732868482,0.0725390751013106,0.0123198791781096,,
171.391767858837,0.0655458597799044,0.0120301991035441,,
172.163802849192,0.0585966215915239,0.0117680700793215,,
172.935837839547,0.051568260029127,0.0114649602750205,,
173.707872829902,0.0445781302001187,0.0111666272727931,,
174.479907820257,0.0374694394390901,0.0108535296096108,,
175.251942810613,0.030444163369091,0.0106069855052846,,
176.023977800968,0.023432222300719,0.0102863165303986,,
176.796012791323,0.0163033871755303,0.00997792329350133,,
177.568047781678,0.00923158046155562,0.00967803421181035,,
178.340082772033,0.0021597737475809,0.00936613074914661,,
179.112117762388,-0.00490238636947204,0.00904670824618226,,
179.884152752743,-0.0120134178488713,0.00874420961521061,,
180.656187743098,-0.0190678465022149,0.00844471860035911,,
181.428222733453,-0.0261785233273156,0.00812756387211655,,
182.200257723809,-0.033266289484727,0.00782400775044989,,
182.972292714164,-0.04026283855654,0.00745555065044279,,
183.744327704519,-0.0473497535436348,0.00715010873738553,,
184.516362694874,-0.0543494235732754,0.00682943574162209,,
185.288397685229,-0.0613741321963968,0.00650456495009744,,
186.060432675584,-0.0683664963474863,0.0062002488826467,,
186.832467665939,-0.0753860979487079,0.00587971661758413,,
187.604502656294,-0.0823957692295689,0.00553057983236105,,
188.37653764665,-0.0893330910335165,0.00516444277847894,,
189.148572637005,-0.0962636034749312,0.00487406709216343,,
189.92060762736,-0.103192129852274,0.00455680380023704,,
190.692642617715,-0.110071572074691,0.00422677020243079,,
191.46467760807,-0.116961228340907,0.00387601702458706,,
192.236712598425,-0.123672990010949,0.00353630115456438,,
193.00874758878,-0.130513278398801,0.00316012799127519,,
193.780782579135,-0.13721815977545,0.00287522873966051,,
194.552817569491,-0.143962124055804,0.00251699673028716,,
195.324852559846,-0.150617637554088,0.00219716007697457,,
196.096887550201,-0.157311240924042,0.00186284826586336,,
196.868922540556,-0.163952071734364,0.00149834368811064,,
197.640957530911,-0.170572758180527,0.00119301838049113,,
198.412992521266,-0.177110668313398,0.000854894777826409,,
199.185027511621,-0.183477351350907,0.000498275140196736,,
199.957062501976,-0.190041576832733,0.00013681436645907,,
200.729097492332,-0.196408330801102,-0.000179769397226082,,
201.501132482687,-0.202630385815644,-0.0005141495632488,,
202.273167473042,-0.208966781376053,-0.000883280160181243,,
203.045202463397,-0.215339209813199,-0.00119097778532895,,
203.817237453752,-0.221427347364592,-0.00155436656966801,,
204.589272444107,-0.228002283406236,-0.00187134035843828,,
205.361307434462,-0.233876067899558,-0.00222390695188412,,
206.133342424817,-0.239788509711428,-0.00256329914129516,,
206.905377415173,-0.245961196847606,-0.00288905653623495,,
207.677412405528,-0.251766745853878,-0.00325236892390768,,
208.449447395883,-0.257634146569826,-0.00357088270863271,,
209.221482386238,-0.263488212284147,-0.0039115354430348,,
209.993517376593,-0.269110405018046,-0.00425905181476027,,
210.765552366948,-0.275090798593526,-0.00452922058287664,,
211.537587357303,-0.28068156895657,-0.00488484304296888,,
212.309622347658,-0.286140407920537,-0.00522155129687096,,
213.081657338013,-0.291600665501698,-0.00555113455643497,,
213.853692328369,-0.297299534494954,-0.00587217948333585,,
214.625727318724,-0.302479473318506,-0.00621428777527244,,
215.397762309079,-0.307766375878514,-0.0065251840082059,,
216.169797299434,-0.312738912868248,-0.00686417410990003,,
216.941832289789,-0.31802241074699,-0.00718258134138017,,
217.713867280144,-0.322974164994826,-0.00749883137226037,,
218.485902270499,-0.328130625703811,-0.00781803875829645,,
219.257937260854,-0.333140330464038,-0.00817599533758395,,
220.02997225121,-0.337941498496691,-0.00847844772846829,,
220.802007241565,-0.342838777844264,-0.00878158768934778,,
221.57404223192,-0.347420982312965,-0.00907028868032356,,
222.346077222275,-0.351861254131368,-0.00938907789513443,,
223.11811221263,-0.356336423932753,-0.00970732228108906,,
223.890147202985,-0.360880254806346,-0.0100119117681876,,
224.66218219334,-0.36540110408139,-0.0103180291886087,,
225.434217183695,-0.369517931179475,-0.0106079987663303,,
226.206252174051,-0.373825704151924,-0.010914307178417,,
226.978287164406,-0.377847696690565,-0.0111897573686917,,
227.750322154761,-0.381662429257107,-0.0114997810712798,,
228.522357145116,-0.385510570258577,-0.0117958141317684,,
229.294392135471,-0.389519582449889,-0.0120942597185567,,
230.066427125826,-0.392933342866441,-0.0123569516655824,,
230.838462116181,-0.396793967699221,-0.0126204799550589,,
231.610497106536,-0.400173468510529,-0.0129334650336799,,
232.382532096891,-0.403612976829158,-0.0132013680375134,,
233.154567087247,-0.407033546608242,-0.0134704129704617,,
233.926602077602,-0.410405032232401,-0.0137346630073898,,
234.698637067957,-0.413062953407788,-0.0139984184764259,,
235.470672058312,-0.416413940013488,-0.0142428556411169,,
236.242707048667,-0.419415875858512,-0.0145069307698877,,
237.014742039022,-0.42219203877705,-0.0147726283225955,,
237.786777029377,-0.425034096464267,-0.0150130325474889,,
238.558812019732,-0.427665063912961,-0.015250567876524,,
239.330847010088,-0.430288654552243,-0.0155175219533459,,
240.102882000443,-0.432471622690952,-0.015746309864106,,
240.874916990798,-0.434814327125748,-0.0159936903108826,,
241.646951981153,-0.437304284025321,-0.0162397519099486,,
242.418986971508,-0.439229063834653,-0.0164775646795081,,
243.191021961863,-0.441437850806299,-0.0166820644817456,,
243.963056952218,-0.443416538069018,-0.0169261498196844,,
244.735091942573,-0.445436648953812,-0.017135715927151,,
245.507126932929,-0.447092175219652,-0.0173558649833194,,
246.279161923284,-0.448826860324937,-0.0175772564905321,,
247.051196913639,-0.450121774099965,-0.017778380766388,,
247.823231903994,-0.451662959819938,-0.0179730555552697,,
248.595266894349,-0.45272465292821,-0.0181759168500615,,
249.367301884704,-0.454081347482054,-0.0183831046086844,,
250.139336875059,-0.455347321466317,-0.018541462835,,
250.911371865414,-0.456703306711563,-0.0187593300433764,,
251.68340685577,-0.457427936374451,-0.0189195539566973,,
252.455441846125,-0.458143486887296,-0.0190697417606116,,
253.22747683648,-0.458381885506811,-0.0192851803591796,,
253.999511826835,-0.458906135490993,-0.019460024181877,,
254.77154681719,-0.459854339223716,-0.019623657799035,,
255.543581807545,-0.460112811276531,-0.0197697282247304,,
256.3156167979,-0.46028219416954,-0.0199148014728889,,
257.087651788255,-0.460263752146013,-0.0200681255609929,,
257.85968677861,-0.460207645835976,-0.0202272075451986,,
258.631721768966,-0.460151397664218,-0.0203765429231533,,
259.403756759321,-0.46018884915815,-0.0204615925169738,,
260.175791749676,-0.459604378874066,-0.0206199829103069,,
260.947826740031,-0.459087151044996,-0.0207199901671862,,
261.719861730386,-0.458746753849205,-0.0208621844672936,,
262.491896720741,-0.457946086304698,-0.0209825051956165,,
263.263931711096,-0.45744836446205,-0.0211157088143801,,
264.035966701451,-0.456787927227208,-0.0212194313617609,,
264.808001691807,-0.455527769573442,-0.0212851485781664,,
265.580036682162,-0.454502747719644,-0.0213858152589008,,
266.352071672517,-0.45360298976411,-0.0214855812631498,,
267.124106662872,-0.452185791186926,-0.021602138450445,,
267.896141653227,-0.450912724116691,-0.021669319266139,,
268.668176643582,-0.449375865179161,-0.0217289890832864,,
