Time domain (s),Current (AC) (A),Potential (AC) (V),Frequency (Hz),Column 5
0,-0.181302251378321,-0.00483396577776585,0.63096,0.3
0.00386935186065678,-0.177682547254995,-0.00477051397565065,,
0.00773870372131355,-0.174284620265205,-0.00466355695310927,,
0.0116080555819703,-0.170748885320024,-0.00459159674995124,,
0.0154774074426271,-0.167402093097144,-0.00452763323975391,,
0.0193467593032839,-0.163788376425279,-0.00442155916449094,,
0.0232161111639407,-0.160322221460378,-0.00435046309581377,,
0.0270854630245974,-0.156515892337897,-0.00428735117823287,,
0.0309548148852542,-0.152769148014629,-0.00418817011183314,,
0.034824166745911,-0.149292225294278,-0.00409180845662815,,
0.0386935186065678,-0.145593428868594,-0.00400323279105619,,
0.0425628704672245,-0.141722493213417,-0.00393008863586619,,
0.0464322223278813,-0.137951171367621,-0.00381332889184094,,
0.0503015741885381,-0.134156141145477,-0.00374007436824098,,
0.0541709260491949,-0.130340347986816,-0.00365350540102849,,
0.0580402779098517,-0.126395196905067,-0.00355284941133505,,
0.0619096297705084,-0.122580804037474,-0.00346820687454708,,
0.0657789816311652,-0.118567811267804,-0.00335531002486267,,
0.069648333491822,-0.114469159313529,-0.00325686140336412,,
0.0735176853524788,-0.110488662953803,-0.00319218551524969,,
0.0773870372131355,-0.106554086483908,-0.00308265991880896,,
0.0812563890737923,-0.102565333235474,-0.00298369958922873,,
0.0851257409344491,-0.0983426348069868,-0.00286515388366348,,
0.0889950927951059,-0.0942404096961948,-0.00275836743048252,,
0.0928644446557626,-0.0901608789578744,-0.00267970485480529,,
0.0967337965164194,-0.0861018214406774,-0.00257582811424495,,
0.100603148377076,-0.0817789780579218,-0.0024902624962122,,
0.104472500237733,-0.0777156713816237,-0.00238236232544198,,
0.10834185209839,-0.073466753710047,-0.0022612580794692,,
0.112211203959047,-0.0692552093242002,-0.00217710718377928,,
0.116080555819703,-0.0649894398739159,-0.00207953147606688,,
0.11994990768036,-0.060752641962957,-0.00195951084720791,,
0.123819259541017,-0.0564322128751452,-0.00184526950962294,,
0.127688611401674,-0.0521681817172204,-0.00175469717918375,,
0.13155796326233,-0.0479358261089581,-0.00165463316550607,,
0.135427315122987,-0.043587536057495,-0.00154601058332693,,
0.139296666983644,-0.0392733358506382,-0.00143123872486317,,
0.143166018844301,-0.0349738145570396,-0.00132310652959555,,
0.147035370704958,-0.0306450320087224,-0.00121980169806779,,
0.150904722565614,-0.0262533329341699,-0.00113524068340087,,
0.154774074426271,-0.0219234398101785,-0.000978405918957481,,
0.158643426286928,-0.0175450676437157,-0.000904428983948158,,
0.162512778147585,-0.0131475742612982,-0.000787027096447623,,
0.166382130008241,-0.00880512680359904,-0.000687645360212041,,
0.170251481868898,-0.00442574063325991,-0.000570373908105104,,
0.174120833729555,-7.73540099990441E-05,-0.000465182780119644,,
0.177990185590212,0.00430565360275577,-0.000353620384844433,,
0.181859537450869,0.00869018222132518,-0.000253425935773599,,
0.185728889311525,0.013041321140822,-0.0001607967395163,,
0.189598241172182,0.0173967333623693,-4.79613449693161E-05,,
0.193467593032839,0.0217980896166969,6.40839120986669E-05,,
0.197336944893496,0.0260686876568688,0.000134820029257909,,
0.201206296754152,0.0304561617152696,0.000300683682131098,,
0.205075648614809,0.0347856444091206,0.000399764413612669,,
0.208945000475466,0.0390769088140114,0.000489225534835658,,
0.212814352336123,0.0434516112521596,0.000620972807230835,,
0.21668370419678,0.0477116105375283,0.000726806078690689,,
0.220553056057436,0.0519777421320542,0.000816726232163223,,
0.224422407918093,0.0563289051945004,0.000923761014265612,,
0.22829175977875,0.0606093294150936,0.00107061120018637,,
0.232161111639407,0.06485095591594,0.00113467755367447,,
0.236030463500063,0.0690591685747644,0.00128705870194734,,
0.23989981536072,0.0732542474690946,0.00136855824743032,,
0.243769167221377,0.0774510646557843,0.00144007697694937,,
0.247638519082034,0.081618330872362,0.00155893372075999,,
0.251507870942691,0.0858922364966069,0.00166019171996146,,
0.255377222803347,0.0899439787001243,0.00180255693504927,,
0.259246574664004,0.0940865225364776,0.00189515603083112,,
0.263115926524661,0.0981929726634212,0.00200091906784872,,
0.266985278385318,0.102300147078848,0.00210311018178722,,
0.270854630245974,0.106378784528039,0.0022271743078397,,
0.274723982106631,0.110414857957371,0.00233014552576538,,
0.278593333967288,0.114352862726087,0.00242454563332428,,
0.282462685827945,0.118422615569885,0.00250422911679227,,
0.286332037688601,0.122346713999724,0.00263334008921801,,
0.290201389549258,0.126240682028664,0.00273475862428807,,
0.294070741409915,0.130160748585947,0.00278472290505727,,
0.297940093270572,0.134003316275535,0.0029061808316162,,
0.301809445131229,0.137830263476836,0.0029989705637421,,
0.305678796991885,0.141643883770047,0.00310939164932567,,
0.309548148852542,0.145518344295842,0.00320371399732311,,
0.313417500713199,0.14914483258796,0.00328362072598365,,
0.317286852573856,0.152805459010583,0.00339095902121311,,
0.321156204434512,0.156426321995482,0.00350201974189845,,
0.325025556295169,0.160004476102826,0.00360375934870616,,
0.328894908155826,0.163530529725282,0.00369093032542667,,
0.332764260016483,0.167327732812876,0.00376668569685634,,
0.33663361187714,0.170686306795081,0.00386197376843933,,
0.340502963737796,0.174255793583577,0.00395494159504439,,
0.344372315598453,0.177622286453198,0.00403174797473982,,
0.34824166745911,0.180921565351584,0.0041386447963303,,
0.352111019319767,0.184265653564127,0.00424574228775665,,
0.355980371180423,0.187535574635997,0.0042936522110808,,
0.35984972304108,0.190852429601574,0.00440902984161129,,
0.363719074901737,0.194229955799088,0.00448924510014459,,
0.367588426762394,0.197269432418573,0.00455463336617656,,
0.371457778623051,0.200182424125953,0.00462033267045436,,
0.375327130483707,0.203279095392656,0.00472239334899927,,
0.379196482344364,0.206441821769021,0.00481948744910543,,
0.383065834205021,0.209287406361571,0.00485922007661577,,
0.386935186065678,0.212170074524456,0.00497168548615301,,
0.390804537926334,0.215235456528688,0.00505794341511967,,
0.394673889786991,0.217896395843936,0.00511333832332328,,
0.398543241647648,0.220627832571543,0.00519723838171826,,
0.402412593508305,0.223448887927463,0.00525193094549614,,
0.406281945368962,0.226156954280014,0.00535167388743663,,
0.410151297229618,0.228619341979084,0.00541457384750332,,
0.414020649090275,0.231027649471414,0.0054771627693242,,
0.417890000950932,0.233527120740822,0.00555536380437927,,
0.421759352811589,0.23617685772753,0.00560809983725719,,
0.425628704672245,0.238341804289526,0.00569486947430553,,
0.429498056532902,0.240869281380281,0.00575008628802953,,
0.433367408393559,0.243050258860704,0.00582324047671134,,
0.437236760254216,0.245222158592138,0.0058799773644429,,
0.441106112114873,0.247497390147166,0.00592957291438845,,
0.444975463975529,0.249561708895904,0.00599376719489664,,
0.448844815836186,0.251522695821049,0.00605149990668874,,
0.452714167696843,0.253908212369109,0.00609390144301702,,
0.4565835195575,0.255562873551785,0.00617684831969134,,
0.460452871418156,0.257462633957155,0.00620243121539721,,
0.464322223278813,0.258985764351293,0.00627303689716285,,
0.46819157513947,0.26098402799037,0.00627885883077717,,
0.472060927000127,0.262412131735521,0.00636257828631992,,
0.475930278860784,0.264469883602012,0.00637924642456555,,
0.47979963072144,0.265566746080875,0.00643682863398043,,
0.483668982582097,0.267212136370967,0.00649326451695798,,
0.487538334442754,0.268665541927129,0.0065232270318325,,
0.491407686303411,0.270194466629132,0.00656905751398185,,
0.495277038164067,0.271302917723726,0.00662804441224818,,
0.499146390024724,0.272507168041688,0.00663316149306414,,
0.503015741885381,0.273967333623693,0.00670454978719004,,
0.506885093746038,0.274970521458736,0.00672964355017047,,
0.510754445606695,0.275896258711983,0.00676792132137116,,
0.514623797467351,0.277005096093767,0.00679632613664438,,
0.518493149328008,0.277817844343645,0.00684025276372546,,
0.522362501188665,0.278465454819367,0.00686227627821712,,
0.526231853049322,0.27968303204542,0.00687783571561873,,
0.530101204909978,0.280014852742494,0.00690702565162526,,
0.533970556770635,0.280910459594843,0.00691158085690047,,
0.537839908631292,0.281464395426746,0.00693915289235481,,
0.541709260491949,0.282167824401569,0.00697764136688273,,
0.545578612352606,0.282413696198644,0.00699672506827831,,
0.549447964213262,0.282907178085155,0.0070226716780617,,
0.553317316073919,0.283371302145149,0.00702759059741442,,
0.557186667934576,0.283658892958854,0.00705054722664267,,
0.561056019795233,0.283958651819075,0.00705077799695397,,
0.564925371655889,0.283890858417053,0.00705066762854445,,
0.568794723516546,0.283822485584245,0.0070654745540617,,
0.572664075377203,0.283790616890987,0.00708213015044246,,
0.57653342723786,0.283746580151212,0.00707568864870955,,
0.580402779098517,0.283540302791215,0.00707036086456592,,
0.584272130959173,0.283610413916382,0.00709509342184234,,
0.58814148281983,0.283147641861557,0.00709145126432054,,
0.592010834680487,0.282998728149424,0.0070879721510404,,
0.595880186541144,0.282411185331903,0.00710450483714675,,
0.5997495384018,0.281967727636627,0.00709371883346632,,
0.603618890262457,0.281592256486969,0.00706206316685121,,
0.607488242123114,0.280799981458215,0.00707962177749355,,
0.611357593983771,0.280214370076649,0.00705191178152687,,
0.615226945844428,0.279382886898008,0.00704264836022661,,
0.619096297705084,0.278503310964086,0.00702658724823468,,
0.622965649565741,0.277860915365442,0.00701080205726745,,
0.626835001426398,0.276914318603881,0.00699471586154621,,
0.630704353287055,0.275740971261199,0.00694510275298965,,
0.634573705147711,0.274799975663907,0.00699058457129942,,
0.638443057008368,0.273768975151111,0.0069305416480212,,
0.642312408869025,0.27249075083607,0.00692226652566275,,
0.646181760729682,0.271201131048895,0.00686612913906659,,
0.650051112590339,0.270132853822167,0.0068555337717302,,
0.653920464450995,0.2685336248514,0.00684576867584008,,
0.657789816311652,0.267125414896586,0.00681577104374442,,
0.661659168172309,0.265604602225594,0.00676131928376922,,
0.665528520032966,0.264102138196174,0.00672989438746541,,
0.669397871893622,0.262684271061585,0.00674114193176845,,
0.673267223754279,0.260667851924531,0.00666547937013773,,
0.677136575614936,0.259047956589046,0.00664166989410653,,
0.681005927475593,0.257090253105025,0.00660086368297419,,
0.684875279336249,0.255330521806395,0.00657419466178144,,
0.688744631196906,0.253434624272935,0.00651800961609883,,
0.692613983057563,0.251638968265542,0.00648426447481709,,
0.69648333491822,0.249399275132086,0.00644043818265372,,
0.700352686778877,0.247125588725822,0.00640078833145052,,
0.704222038639533,0.245193380196408,0.00633981981855447,,
0.70809139050019,0.242960833375986,0.00630062147448207,,
0.711960742360847,0.240659141148374,0.00623771148092356,,
0.715830094221504,0.238435865220536,0.00615167428877594,,
0.719699446082161,0.235878837159669,0.00612829625289235,,
0.723568797942817,0.233301722164869,0.00604729587362618,,
0.727438149803474,0.23109312515029,0.0060205766849748,,
0.731307501664131,0.228255266301561,0.00595866000710377,,
0.735176853524788,0.225849662819568,0.00588546568445514,,
0.739046205385444,0.223183122340051,0.00581133072195028,,
0.742915557246101,0.220372689881883,0.00576117329646397,,
0.746784909106758,0.217640866867085,0.00569896063058506,,
0.750654260967415,0.214760709570941,0.00564593613481845,,
0.754523612828071,0.211952787979515,0.00559317000146509,,
0.758392964688728,0.208855537282025,0.00553047071123425,,
0.762262316549385,0.206016326428128,0.00545226716780656,,
0.766131668410042,0.202896864217155,0.00534688791185012,,
0.770001020270699,0.199907387645956,0.00530745628909335,,
0.773870372131355,0.196861126857679,0.00524925200318682,,
0.777739723992012,0.193692026742662,0.00516843222677332,,
0.781609075852669,0.190579517701128,0.00506904296541899,,
0.785478427713326,0.187354430086364,0.00500949920835758,,
0.789347779573983,0.183831080474245,0.00491423120375822,,
0.793217131434639,0.180579339043302,0.00482724333826345,,
0.797086483295296,0.177197756830282,0.00474330314590121,,
0.800955835155953,0.17375999397392,0.00467551687532985,,
0.80482518701661,0.170259459449019,0.00462842969833321,,
0.808694538877266,0.166771865545017,0.00451313735248293,,
0.812563890737923,0.163198709028208,0.0044558135054813,,
0.81643324259858,0.15963791370151,0.00435351202313328,,
0.820302594459237,0.156111111647621,0.00426922065855839,,
0.824171946319893,0.152431146722498,0.00417011986009319,,
0.82804129818055,0.148730708576252,0.00406615281810696,,
0.831910650041207,0.144971554776972,0.00400213161533225,,
0.835780001901864,0.141263173600361,0.00391465963385818,,
0.839649353762521,0.137444748860211,0.00378142238793133,,
0.843518705623177,0.133575672212141,0.00373064288595337,,
0.847388057483834,0.129752249881458,0.00362870010093719,,
0.851257409344491,0.125802439210468,0.00356296317106519,,
0.855126761205148,0.121966221116582,0.00342169160658301,,
0.858996113065804,0.117901127862026,0.00336229333515314,,
0.862865464926461,0.113929709251289,0.00325049013607437,,
0.866734816787118,0.109899961274709,0.00315129903618283,,
0.870604168647775,0.10599520134737,0.00306879112477487,,
0.874473520508432,0.101853599086045,0.00296952226532188,,
0.878342872369088,0.097754874702921,0.00287647166240923,,
0.882212224229745,0.0937019736378307,0.00279221039830979,,
0.886081576090402,0.0895418537342866,0.00266376163634252,,
0.889950927951059,0.0854064562109669,0.00255897184802878,,
0.893820279811715,0.0812444048714678,0.00245706418023373,,
0.897689631672372,0.0770363612132894,0.00233495407670814,,
0.901558983533029,0.0727953382861789,0.00225066020376019,,
0.905428335393686,0.0685871256273545,0.00213698325008904,,
0.909297687254343,0.0643897048669289,0.0020455982068146,,
0.913167039114999,0.0600803091070102,0.00194571479598915,,
0.917036390975656,0.0558145396567259,0.0018503564899639,,
0.920905742836313,0.0515756171662165,0.00173943372979046,,
0.92477509469697,0.0472916922179548,0.00160952258639346,,
0.928644446557626,0.0429349521341885,0.00152511081991724,,
0.932513798418283,0.0386664545306176,0.00143258195857809,,
0.93638315027894,0.0343085797282277,0.00133359152852242,,
0.940252502139597,0.0299367985869615,0.00120255412567172,,
0.944121854000254,0.0256667558346266,0.00109323923255866,,
0.94799120586091,0.0212928259708604,0.000995352486600432,,
0.951860557721567,0.0169185339628527,0.00087442884347988,,
0.955729909582224,0.0125899687010804,0.00079452211481934,,
0.959599261442881,0.00821022038649965,0.000668360988981487,,
0.963468613303537,0.00384790328141311,0.000538808542916325,,
0.967337965164194,-0.000540898639206797,0.000439755403537134,,
0.971207317024851,-0.00492506511353463,0.00033118549718969,,
0.975076668885508,-0.00924414219617788,0.000202164826189843,,
0.978946020746165,-0.0136248320857867,0.000155930495995715,,
0.982815372606821,-0.017974184427025,1.90636344488127E-07,,
0.986684724467478,-0.0223215087605106,-9.36337996231273E-05,,
0.990554076328135,-0.0266937003319173,-0.000222241843272464,,
0.994423428188792,-0.0310187648660211,-0.000293810740250589,,
0.998292780049448,-0.0354066010686635,-0.000434068922061659,,
1.00216213191011,-0.039711964956026,-0.000522975692862637,,
1.00603148377076,-0.044016363125411,-0.000630514657927961,,
1.00990083563142,-0.0483300321873802,-0.00072582279649458,,
1.01377018749208,-0.0526390658030573,-0.000868198045074209,,
1.01763953935273,-0.0569220250333414,-0.000968101522883291,,
1.02150889121339,-0.0611978379505919,-0.00107079431141122,,
1.02537824307405,-0.0654634142572808,-0.00116622285187917,,
1.0292475949347,-0.069657720577229,-0.00127376181694494,,
1.03311694679536,-0.0739279323302099,-0.00138442119795856,,
1.03698629865602,-0.0781449813085285,-0.00151092471670422,,
1.04085565051667,-0.0822502484309497,-0.00161086707429359,,
1.04472500237733,-0.0864716914260661,-0.00172254987147058,,
1.04859435423799,-0.0905529121708471,-0.00183327070762163,,
1.05246370609864,-0.0947047751856834,-0.00189175342292547,,
1.0563330579593,-0.0988142914672057,-0.00202365496025703,,
1.06020240981996,-0.102851185756819,-0.00213460531253284,,
1.06407176168061,-0.106985424418565,-0.00222003046168107,,
1.06794111354127,-0.111071039180144,-0.00234427519058578,,
1.07181046540193,-0.11493386280431,-0.00242283743134575,,
1.07567981726258,-0.119010496388698,-0.00253033626244381,,
1.07954916912324,-0.122838312736178,-0.00262843245754318,,
1.0834185209839,-0.126802536747983,-0.00274513325480452,,
1.08728787284455,-0.130745370106586,-0.00284341130694221,,
1.09115722470521,-0.134418768149462,-0.0029269489054462,,
1.09502657656587,-0.138376087277728,-0.00302481683860689,,
1.09889592842652,-0.142227129142568,-0.00314190768786204,,
1.10276528028718,-0.145957166544825,-0.00322970074107332,,
1.10663463214784,-0.149702027718037,-0.00331929856862168,,
1.11050398400849,-0.153285227701813,-0.00344922350806964,,
1.11437333586915,-0.15702603285952,-0.00353054495907301,,
1.11824268772981,-0.160538011142454,-0.00360816405160413,,
1.12211203959047,-0.164242457018307,-0.00370708424721711,,
1.12598139145112,-0.167628457391074,-0.00379458632916663,,
1.12985074331178,-0.171376022574623,-0.00389649525114821,,
1.13372009517244,-0.174787324758402,-0.00397935182639619,,
1.13758944703309,-0.178067675584428,-0.00406203030716501,,
1.14145879889375,-0.18146893430124,-0.00416368839185166,,
1.14532815075441,-0.18476975834839,-0.00422134083570924,,
1.14919750261506,-0.188211577220258,-0.00431196207942097,,
1.15306685447572,-0.191380291048084,-0.00442889364699361,,
1.15693620633638,-0.194514963317203,-0.00449268658783009,,
1.16080555819703,-0.197825685973622,-0.00457881408140359,,
1.16467491005769,-0.2007859978619,-0.00466616691516242,,
1.16854426191835,-0.203916662401412,-0.00476720417754439,,
1.172413613779,-0.206938780240251,-0.004811621191537,,
1.17628296563966,-0.209778618810834,-0.00487415994589924,,
1.18015231750032,-0.212830818764673,-0.00499268558448085,,
1.18402166936097,-0.215512231301044,-0.00505706046784127,,
1.18789102122163,-0.218447627665502,-0.00515680340978175,,
1.19176037308229,-0.221074766851537,-0.00519682700855428,,
1.19562972494294,-0.224037975893748,-0.00526944816798469,,
1.1994990768036,-0.226546911199335,-0.00537109872755215,,
1.20336842866426,-0.2291469619961,-0.00541557719668218,,
1.20723778052491,-0.231751358523765,-0.00547342027688424,,
1.21110713238557,-0.234202737037892,-0.0055589256939661,,
1.21497648424623,-0.236673623055165,-0.00562372198398231,,
1.21884583610688,-0.239185841801875,-0.00569896439314421,,
1.22271518796754,-0.241440213848589,-0.00576248517551559,,
1.2265845398282,-0.243695744756876,-0.00581169945277304,,
1.23045389168886,-0.245944708782915,-0.00588091047917949,,
1.23432324354951,-0.248021581865362,-0.0059436386156988,,
1.23819259541017,-0.2501760986732,-0.00602889570385923,,
1.24206194727083,-0.252125110695423,-0.00605399950033192,,
1.24593129913148,-0.254207778085734,-0.00612262733002744,,
1.24980065099214,-0.256118161388857,-0.00617324629613636,,
1.2536700028528,-0.258056357369732,-0.00620777154140484,,
1.25753935471345,-0.259741197239205,-0.00626893570739107,,
1.26140870657411,-0.261516138595981,-0.00634226171961982,,
1.26527805843477,-0.26318572012141,-0.00639291956550947,,
1.26914741029542,-0.264828937546053,-0.00640459854995967,,
1.27301676215608,-0.266601561179682,-0.00646425769217629,,
1.27688611401674,-0.267929278541071,-0.00650877504108704,,
1.28075546587739,-0.269344441665323,-0.00653340851763184,,
1.28462481773805,-0.270435075263231,-0.00661140888285061,,
1.28849416959871,-0.271881382792258,-0.00662163426517681,,
1.29236352145936,-0.273193648666005,-0.00664518161623473,,
1.29623287332002,-0.274543480969079,-0.00670074709379875,,
1.30010222518068,-0.275346427181484,-0.00672976395207181,,
1.30397157704133,-0.276448069964336,-0.00677290796679308,,
1.30784092890199,-0.277515188329491,-0.00678511872630816,,
